792.44574,2087
792.56488,2038
792.68396,2034
792.80304,2029
792.92218,1929
793.041199,1955
793.160339,1911
793.279419,1932
793.398499,1906
793.517578,1931
793.636658,1867
793.755737,1875
793.874817,1871
793.993896,1863
794.112976,1824
794.232056,1771
794.351074,1812
794.470215,1750
794.589233,1764
794.708313,1776
794.827393,1758
794.946411,1694
795.065552,1737
795.18457,1681
795.303589,1690
795.422668,1706
795.541687,1726
795.660767,1693
795.779846,1694
795.898865,1675
796.017883,1685
796.136963,1674
796.255981,1662
796.375061,1675
796.49408,1656
796.613037,1663
796.732117,1671
796.851135,1661
796.970154,1695
797.089233,1641
797.208191,1617
797.327271,1591
797.446228,1612
797.565186,1619
797.684265,1652
797.803223,1564
797.922241,1573
798.04126,1622
798.160278,1606
798.279297,1601
798.398315,1602
798.517273,1601
798.636292,1581
798.75531,1633
798.874268,1568
798.993286,1585
799.112244,1603
799.231323,1562
799.350281,1614
799.469238,1592
799.588257,1584
799.707153,1557
799.826111,1558
799.945129,1625
800.064087,1589
800.183044,1541
800.302063,1586
800.421021,1582
800.539978,1589
800.658936,1526
800.777893,1612
800.896912,1569
801.015747,1553
801.134705,1578
801.253723,1557
801.37262,1524
801.491638,1606
801.610535,1567
801.729492,1539
801.84845,1544
801.967407,1562
802.086243,1528
802.205261,1547
802.324158,1516
802.443115,1543
802.562073,1528
802.680969,1570
802.799927,1524
802.918762,1553
803.037659,1523
803.156677,1570
803.275574,1584
803.39447,1490
803.513428,1516
803.632263,1554
803.751221,1535
803.870117,1555
803.989014,1496
804.107971,1493
804.226746,1569
804.345642,1530
804.4646,1521
804.583496,1527
804.702393,1565
804.821228,1554
804.940125,1541
805.059021,1545
805.177917,1559
805.296814,1512
805.415649,1532
805.534546,1527
805.653442,1478
805.772278,1547
805.891113,1516
806.01001,1567
806.128906,1550
806.247742,1510
806.366577,1513
806.485413,1546
806.604309,1448
806.723145,1519
806.84198,1498
806.960876,1527
807.079712,1542
807.198486,1497
807.317383,1509
807.436218,1502
807.554993,1552
807.673889,1535
807.792725,1505
807.91156,1523
808.030396,1498
808.14917,1497
808.268005,1536
808.386841,1508
808.505676,1527
808.624451,1503
808.743286,1448
808.862122,1485
808.980896,1498
809.099731,1483
809.218506,1566
809.337341,1507
809.456116,1512
809.57489,1520
809.693726,1520
809.8125,1555
809.931274,1512
810.050049,1529
810.168884,1478
810.287659,1497
810.406372,1538
810.525269,1472
810.643982,1468
810.762756,1490
810.881531,1484
811.000305,1497
811.11908,1499
811.237854,1451
811.356567,1527
811.475403,1526
811.594116,1506
811.71283,1486
811.831604,1524
811.950378,1516
812.069153,1483
812.187927,1541
812.30658,1528
812.425415,1510
812.544128,1525
812.662781,1506
812.781616,1504
812.900269,1506
813.019043,1504
813.137756,1466
813.256531,1536
813.375244,1505
813.493896,1469
813.612671,1515
813.731384,1474
813.850037,1485
813.96875,1482
814.087524,1449
814.206238,1501
814.324951,1497
814.443604,1455
814.562256,1482
814.68103,1478
814.799683,1473
814.918335,1519
815.037109,1483
815.155762,1493
815.274475,1415
815.393188,1510
815.511841,1496
815.630554,1513
815.749146,1465
815.867859,1452
815.986572,1480
816.105164,1477
816.223877,1490
816.342529,1444
816.461182,1486
816.579895,1441
816.698486,1455
816.817139,1493
816.935791,1466
817.054504,1473
817.173096,1433
817.291748,1465
817.4104,1493
817.529053,1434
817.647644,1449
817.766235,1452
817.884949,1447
818.00354,1415
818.122192,1428
818.240845,1399
818.359436,1393
818.478088,1402
818.59668,1410
818.715271,1412
818.833923,1428
818.952515,1385
819.071106,1410
819.189758,1384
819.30835,1387
819.426941,1384
819.545532,1363
819.664124,1413
819.782715,1380
819.901306,1406
820.019897,1353
820.138489,1396
820.25708,1418
820.375671,1385
820.494202,1380
820.612732,1338
820.731384,1342
820.849915,1356
820.968506,1387
821.087097,1366
821.205627,1379
821.324158,1364
821.442749,1384
821.561279,1371
821.679871,1365
821.798401,1361
821.916931,1390
822.035461,1337
822.154053,1388
822.272583,1377
822.391174,1379
822.509583,1367
822.628174,1361
822.746704,1341
822.865234,1376
822.983765,1377
823.102295,1373
823.220825,1381
823.339294,1320
823.457825,1373
823.576355,1332
823.694824,1353
823.813354,1370
823.931885,1334
824.050354,1357
824.168884,1328
824.287354,1373
824.405823,1380
824.524353,1371
824.642822,1331
824.761353,1363
824.879822,1386
824.998291,1367
825.116699,1359
825.235291,1389
825.353699,1372
825.472168,1334
825.590637,1347
825.709106,1399
825.827576,1343
825.946045,1368
826.064453,1320
826.182983,1358
826.301392,1336
826.4198,1370
826.53833,1302
826.656738,1337
826.775208,1355
826.893677,1328
827.012024,1323
827.130493,1340
827.248962,1354
827.36731,1337
827.485779,1307
827.604248,1280
827.722595,1305
827.841064,1321
827.959412,1327
828.077942,1338
828.196289,1320
828.314636,1304
828.433105,1365
828.551514,1331
828.669861,1334
828.78833,1323
828.906677,1276
829.025085,1311
829.143433,1365
829.261841,1277
829.38031,1342
829.498657,1269
829.617004,1326
829.735413,1328
829.85376,1339
829.972107,1285
830.090515,1280
830.208862,1365
830.327209,1313
830.445557,1275
830.563904,1310
830.682312,1306
830.800659,1289
830.919006,1335
831.037354,1327
831.155701,1321
831.274048,1346
831.392395,1321
831.51062,1302
831.629028,1293
831.747314,1318
831.865662,1326
831.984009,1309
832.102356,1325
832.220642,1321
832.338928,1311
832.457275,1325
832.575623,1314
832.693909,1323
832.812134,1347
832.930481,1343
833.048828,1326
833.167114,1328
833.2854,1306
833.403687,1321
833.521973,1330
833.640259,1333
833.758545,1334
833.876831,1274
833.995056,1324
834.113281,1315
834.231628,1323
834.349915,1309
834.468201,1316
834.586426,1287
834.704651,1352
834.822998,1328
834.941162,1302
835.059448,1296
835.177673,1339
835.295959,1314
835.414246,1316
835.53241,1305
835.650635,1294
835.768921,1332
835.887146,1329
836.005371,1310
836.123596,1287
836.241821,1312
836.360046,1313
836.478271,1350
836.596497,1317
836.714722,1320
836.832886,1320
836.95105,1298
837.069336,1344
837.1875,1294
837.305725,1307
837.423889,1315
837.542053,1301
837.660339,1326
837.778503,1378
837.896667,1302
838.014832,1318
838.132996,1294
838.25116,1310
838.369385,1339
838.487488,1337
838.605713,1330
838.723877,1341
838.84198,1324
838.960205,1330
839.078308,1329
839.196472,1331
839.314636,1301
839.4328,1331
839.550964,1309
839.669067,1342
839.787231,1336
839.905396,1375
840.023499,1321
840.141602,1324
840.259766,1334
840.377869,1295
840.495972,1348
840.614136,1320
840.732239,1338
840.850342,1380
840.968445,1355
841.086548,1363
841.204651,1359
841.322754,1318
841.440918,1306
841.55896,1341
841.677002,1343
841.795166,1333
841.913208,1350
842.031311,1327
842.149353,1346
842.267456,1365
842.385498,1322
842.503601,1318
842.621643,1342
842.739746,1352
842.857788,1349
842.97583,1335
843.093933,1344
843.211975,1348
843.330017,1340
843.44812,1305
843.566101,1328
843.684204,1355
843.802246,1298
843.920227,1341
844.038269,1345
844.156311,1334
844.274292,1335
844.392395,1327
844.510376,1316
844.628357,1352
844.74646,1290
844.864441,1319
844.982422,1281
845.100403,1312
845.218384,1308
845.336426,1299
845.454468,1281
845.572449,1320
845.69043,1304
845.808411,1332
845.926453,1328
846.044373,1311
846.162354,1282
846.280396,1324
846.398315,1329
846.516296,1332
846.634216,1313
846.752197,1357
846.870178,1338
846.988098,1336
847.106079,1315
847.22406,1322
847.34198,1314
847.4599,1341
847.577881,1353
847.695801,1312
847.813782,1293
847.931641,1284
848.049561,1290
848.167603,1325
848.285461,1360
848.403381,1309
848.521362,1307
848.639221,1297
848.75708,1332
848.875,1332
848.99292,1332
849.110901,1321
849.22876,1315
849.34668,1327
849.464539,1319
849.582458,1309
849.700317,1332
849.818176,1309
849.936096,1327
850.053955,1344
850.171875,1317
850.289673,1313
850.407593,1286
850.525452,1369
850.643311,1313
850.761169,1298
850.878967,1349
850.996887,1327
851.114746,1338
851.232544,1319
851.350403,1330
851.468262,1302
851.58606,1313
851.703979,1356
851.821777,1356
851.939636,1324
852.057434,1313
852.175232,1300
852.293091,1350
852.410889,1315
852.528687,1306
852.646545,1364
852.764343,1356
852.88208,1335
852.999939,1378
853.117676,1362
853.235535,1324
853.353271,1352
853.471069,1344
853.588928,1337
853.706604,1342
853.824402,1320
853.9422,1282
854.059998,1337
854.177734,1333
854.295532,1326
854.413269,1301
854.531006,1341
854.648804,1322
854.766541,1340
854.884277,1373
855.002014,1323
855.119751,1355
855.237549,1344
855.355225,1357
855.473022,1303
855.590698,1310
855.708435,1315
855.826172,1333
855.943848,1347
856.061646,1348
856.179321,1316
856.296997,1317
856.414795,1301
856.53241,1359
856.650085,1340
856.767822,1337
856.885559,1369
857.003174,1353
857.120911,1374
857.238586,1329
857.356201,1328
857.473938,1352
857.591614,1327
857.709351,1332
857.826965,1344
857.944641,1328
858.062317,1375
858.179993,1308
858.297668,1369
858.415283,1324
858.532959,1370
858.650574,1358
858.768188,1369
858.885803,1310
859.003479,1362
859.121094,1355
859.23877,1354
859.356384,1333
859.473999,1306
859.591675,1319
859.709229,1331
859.826843,1344
859.944458,1337
860.062012,1328
860.179626,1379
860.297302,1350
860.414856,1332
860.532471,1281
860.650024,1333
860.767639,1359
860.885193,1317
861.002808,1334
861.120361,1332
861.237976,1335
861.35553,1352
861.473022,1290
861.590698,1362
861.708191,1295
861.825745,1332
861.943298,1334
862.060852,1321
862.178406,1311
862.295959,1284
862.413513,1322
862.531006,1331
862.64856,1321
862.766113,1319
862.883667,1278
863.00116,1330
863.118713,1350
863.236206,1363
863.353699,1311
863.471252,1339
863.588745,1313
863.706177,1313
863.82373,1354
863.941162,1300
864.058716,1323
864.176208,1289
864.29364,1322
864.411194,1336
864.528687,1338
864.646118,1291
864.763611,1343
864.881042,1314
864.998535,1321
865.116028,1345
865.233459,1289
865.350891,1316
865.468384,1327
865.585754,1306
865.703308,1345
865.820679,1343
865.938171,1330
866.055542,1312
866.173035,1292
866.290466,1350
866.407837,1329
866.52533,1323
866.6427,1319
866.760071,1336
866.877563,1292
866.994934,1330
867.112305,1303
867.229736,1324
867.347107,1314
867.464539,1319
867.58197,1335
867.699341,1340
867.81665,1308
867.934082,1344
868.051453,1321
868.168823,1302
868.286194,1303
868.403564,1369
868.520935,1325
868.638306,1356
868.755676,1318
868.872986,1339
868.990295,1361
869.107727,1330
869.225037,1366
869.342346,1296
869.459717,1335
869.577026,1328
869.694336,1333
869.811707,1336
869.929016,1323
870.046326,1345
870.163635,1370
870.280945,1371
870.398254,1355
870.515564,1344
870.632812,1376
870.750183,1367
870.867432,1352
870.984741,1335
871.102051,1332
871.219299,1401
871.336609,1381
871.453918,1375
871.571106,1399
871.688416,1326
871.805664,1355
871.922852,1372
872.040222,1393
872.157471,1391
872.274719,1362
872.391968,1348
872.509155,1348
872.626465,1357
872.743652,1346
872.860962,1418
872.978149,1368
873.095337,1381
873.212646,1344
873.329834,1339
873.44696,1340
873.564209,1370
873.681396,1364
873.798645,1378
873.915894,1339
874.03302,1390
874.150208,1352
874.267456,1365
874.384583,1390
874.501831,1344
874.618958,1348
874.736145,1381
874.853333,1343
874.970459,1396
875.087646,1385
875.204834,1390
875.32196,1333
875.439148,1390
875.556274,1351
875.673401,1365
875.790527,1374
875.907715,1359
876.024841,1333
876.141968,1405
876.259094,1322
876.376282,1347
876.493347,1372
876.610474,1351
876.7276,1388
876.844727,1362
876.961853,1378
877.078918,1326
877.195984,1354
877.313171,1382
877.430237,1337
877.547302,1367
877.664368,1392
877.781433,1367
877.898499,1369
878.015625,1359
878.13269,1328
878.249695,1353
878.366821,1328
878.483887,1361
878.600952,1377
878.717957,1326
878.834961,1349
878.952087,1359
879.069092,1387
879.186157,1343
879.303162,1342
879.420227,1320
879.537231,1358
879.654236,1321
879.77124,1363
879.888306,1346
880.005249,1295
880.122314,1342
880.239319,1339
880.356323,1363
880.473328,1356
880.590271,1322
880.707275,1317
880.824341,1361
880.941284,1349
881.058228,1298
881.175232,1345
881.292236,1306
881.40918,1310
881.526123,1330
881.643066,1343
881.760071,1351
881.877014,1350
881.993958,1322
882.11084,1355
882.227783,1273
882.344727,1350
882.46167,1322
882.578613,1357
882.695618,1323
882.812439,1343
882.929382,1341
883.046326,1346
883.163208,1282
883.280151,1326
883.397034,1327
883.513916,1375
883.630798,1299
883.747742,1351
883.864563,1374
883.981506,1390
884.098389,1347
884.21521,1369
884.332153,1384
884.448975,1369
884.565796,1381
884.682678,1389
884.7995,1389
884.916443,1341
885.033264,1386
885.150085,1417
885.266968,1430
885.383789,1417
885.500671,1437
885.617493,1429
885.734314,1436
885.851196,1420
885.967896,1444
886.084717,1399
886.201599,1472
886.318359,1416
886.435181,1408
886.552002,1442
886.668762,1389
886.785645,1438
886.902344,1377
887.019165,1377
887.135925,1376
887.252747,1426
887.369446,1394
887.486267,1431
887.603027,1401
887.719788,1389
887.836548,1426
887.953247,1346
888.070068,1366
888.186829,1397
888.303528,1349
888.420288,1365
888.536987,1360
888.653687,1390
888.770447,1362
888.887146,1329
889.003967,1388
889.120667,1344
889.237305,1376
889.354065,1367
889.470703,1352
889.587463,1335
889.704163,1348
889.820862,1366
889.937561,1345
890.054199,1383
890.170837,1342
890.287598,1312
890.404236,1371
890.520874,1370
890.637634,1378
890.754211,1393
890.87085,1355
890.987549,1384
891.104187,1368
891.220886,1414
891.337463,1345
891.454102,1378
891.57074,1325
891.687378,1374
891.804077,1406
891.920654,1352
892.037231,1363
892.15387,1370
892.270447,1352
892.387085,1361
892.503723,1339
892.6203,1371
892.736877,1363
892.853516,1363
892.970032,1410
893.08667,1357
893.203186,1378
893.319763,1361
893.43634,1395
893.552917,1322
893.669556,1363
893.786011,1364
893.902588,1416
894.019165,1363
894.135681,1367
894.252197,1338
894.368835,1358
894.485291,1401
894.601868,1386
894.718384,1395
894.8349,1352
894.951355,1388
895.067932,1377
895.184448,1360
895.300964,1371
895.417419,1381
895.533936,1378
895.650452,1367
895.766907,1334
895.883423,1366
895.999878,1417
896.116333,1378
896.232849,1362
896.349304,1403
896.465759,1373
896.582214,1396
896.698669,1354
896.815125,1379
896.931641,1356
897.048035,1373
897.164551,1355
897.280884,1369
897.397339,1368
897.513794,1364
897.630249,1342
897.746582,1310
897.863098,1391
897.979431,1423
898.095886,1364
898.212341,1366
898.328674,1380
898.445129,1384
898.561462,1432
898.677795,1380
898.794312,1407
898.910645,1339
899.026978,1367
899.143433,1372
899.259766,1360
899.37616,1384
899.492493,1432
899.608765,1368
899.725159,1386
899.841553,1393
899.957947,1403
900.07428,1361
900.190552,1415
900.306946,1370
900.423157,1396
900.53949,1350
900.655884,1435
900.772156,1425
900.888489,1408
901.004822,1395
901.121033,1408
901.237366,1380
901.353699,1398
901.46991,1409
901.586304,1390
901.702515,1424
901.818787,1381
901.93512,1397
902.051331,1431
902.167603,1461
902.283875,1444
902.400085,1426
902.516418,1440
902.632629,1455
902.74884,1482
902.865112,1451
902.981384,1409
903.097595,1386
903.213867,1449
903.330017,1401
903.446289,1413
903.5625,1445
903.67865,1409
903.794922,1436
903.911072,1435
904.027344,1417
904.143494,1427
904.259705,1400
904.375916,1427
904.492065,1392
904.608215,1403
904.724426,1422
904.840576,1397
904.956726,1381
905.072876,1391
905.189087,1356
905.305176,1396
905.421387,1399
905.537537,1476
905.653687,1393
905.769775,1371
905.885925,1425
906.002014,1417
906.118164,1377
906.234314,1380
906.350403,1405
906.466492,1396
906.582642,1400
906.69873,1347
906.814758,1430
906.930908,1385
907.046936,1398
907.163086,1430
907.279175,1382
907.395264,1392
907.511353,1378
907.62738,1360
907.743408,1393
907.859497,1378
907.975525,1374
908.091553,1415
908.207703,1387
908.32373,1409
908.439758,1432
908.555786,1388
908.671814,1395
908.787842,1358
908.90387,1378
909.019775,1422
909.135864,1437
909.251892,1400
909.367859,1380
909.483826,1412
909.599854,1381
909.715881,1353
909.831848,1430
909.947815,1386
910.063782,1379
910.179749,1415
910.295776,1419
910.411743,1399
910.527649,1440
910.643616,1428
910.759583,1395
910.875488,1383
910.991455,1433
911.107361,1396
911.223267,1453
911.339294,1372
911.4552,1396
911.571106,1418
911.687073,1371
911.802979,1419
911.918823,1410
912.034729,1386
912.150635,1405
912.266602,1399
912.382446,1440
912.498352,1372
912.614197,1416
912.730103,1370
912.846008,1420
792.44574,2167
792.56488,2071
792.68396,2138
792.80304,2058
792.92218,2059
793.041199,2008
793.160339,1950
793.279419,1950
793.398499,1935
793.517578,1927
793.636658,1882
793.755737,1882
793.874817,1924
793.993896,1919
794.112976,1858
794.232056,1873
794.351074,1858
794.470215,1827
794.589233,1785
794.708313,1789
794.827393,1748
794.946411,1813
795.065552,1804
795.18457,1737
795.303589,1735
795.422668,1744
795.541687,1797
795.660767,1776
795.779846,1739
795.898865,1726
796.017883,1736
796.136963,1742
796.255981,1720
796.375061,1685
796.49408,1701
796.613037,1717
796.732117,1685
796.851135,1712
796.970154,1697
797.089233,1661
797.208191,1619
797.327271,1680
797.446228,1660
797.565186,1676
797.684265,1649
797.803223,1702
797.922241,1610
798.04126,1652
798.160278,1638
798.279297,1665
798.398315,1647
798.517273,1649
798.636292,1635
798.75531,1653
798.874268,1641
798.993286,1620
799.112244,1639
799.231323,1632
799.350281,1600
799.469238,1658
799.588257,1621
799.707153,1612
799.826111,1628
799.945129,1575
800.064087,1607
800.183044,1634
800.302063,1681
800.421021,1582
800.539978,1591
800.658936,1614
800.777893,1617
800.896912,1569
801.015747,1628
801.134705,1599
801.253723,1621
801.37262,1565
801.491638,1577
801.610535,1553
801.729492,1565
801.84845,1584
801.967407,1614
802.086243,1603
802.205261,1579
802.324158,1574
802.443115,1586
802.562073,1612
802.680969,1570
802.799927,1570
802.918762,1546
803.037659,1595
803.156677,1585
803.275574,1595
803.39447,1579
803.513428,1590
803.632263,1557
803.751221,1574
803.870117,1549
803.989014,1597
804.107971,1570
804.226746,1594
804.345642,1572
804.4646,1550
804.583496,1553
804.702393,1561
804.821228,1592
804.940125,1590
805.059021,1545
805.177917,1545
805.296814,1576
805.415649,1547
805.534546,1552
805.653442,1563
805.772278,1559
805.891113,1541
806.01001,1568
806.128906,1550
806.247742,1572
806.366577,1583
806.485413,1571
806.604309,1575
806.723145,1577
806.84198,1549
806.960876,1590
807.079712,1514
807.198486,1566
807.317383,1554
807.436218,1521
807.554993,1538
807.673889,1565
807.792725,1565
807.91156,1529
808.030396,1552
808.14917,1533
808.268005,1530
808.386841,1510
808.505676,1535
808.624451,1537
808.743286,1553
808.862122,1516
808.980896,1539
809.099731,1533
809.218506,1521
809.337341,1540
809.456116,1539
809.57489,1552
809.693726,1535
809.8125,1544
809.931274,1517
810.050049,1549
810.168884,1511
810.287659,1577
810.406372,1530
810.525269,1541
810.643982,1547
810.762756,1521
810.881531,1549
811.000305,1490
811.11908,1537
811.237854,1497
811.356567,1551
811.475403,1519
811.594116,1553
811.71283,1535
811.831604,1506
811.950378,1518
812.069153,1555
812.187927,1563
812.30658,1530
812.425415,1502
812.544128,1536
812.662781,1538
812.781616,1523
812.900269,1513
813.019043,1499
813.137756,1525
813.256531,1549
813.375244,1530
813.493896,1499
813.612671,1539
813.731384,1542
813.850037,1510
813.96875,1523
814.087524,1547
814.206238,1536
814.324951,1513
814.443604,1534
814.562256,1504
814.68103,1548
814.799683,1538
814.918335,1484
815.037109,1509
815.155762,1500
815.274475,1500
815.393188,1440
815.511841,1503
815.630554,1477
815.749146,1454
815.867859,1510
815.986572,1442
816.105164,1509
816.223877,1481
816.342529,1481
816.461182,1485
816.579895,1467
816.698486,1512
816.817139,1474
816.935791,1479
817.054504,1522
817.173096,1499
817.291748,1498
817.4104,1488
817.529053,1491
817.647644,1452
817.766235,1477
817.884949,1478
818.00354,1437
818.122192,1459
818.240845,1467
818.359436,1476
818.478088,1417
818.59668,1515
818.715271,1461
818.833923,1466
818.952515,1446
819.071106,1429
819.189758,1396
819.30835,1438
819.426941,1475
819.545532,1443
819.664124,1427
819.782715,1404
819.901306,1427
820.019897,1362
820.138489,1415
820.25708,1417
820.375671,1428
820.494202,1437
820.612732,1397
820.731384,1419
820.849915,1403
820.968506,1428
821.087097,1382
821.205627,1431
821.324158,1412
821.442749,1431
821.561279,1416
821.679871,1413
821.798401,1362
821.916931,1404
822.035461,1366
822.154053,1432
822.272583,1385
822.391174,1442
822.509583,1375
822.628174,1395
822.746704,1398
822.865234,1373
822.983765,1382
823.102295,1390
823.220825,1389
823.339294,1360
823.457825,1401
823.576355,1396
823.694824,1387
823.813354,1421
823.931885,1375
824.050354,1393
824.168884,1357
824.287354,1386
824.405823,1375
824.524353,1408
824.642822,1393
824.761353,1395
824.879822,1398
824.998291,1354
825.116699,1399
825.235291,1373
825.353699,1373
825.472168,1377
825.590637,1409
825.709106,1401
825.827576,1359
825.946045,1368
826.064453,1378
826.182983,1368
826.301392,1374
826.4198,1349
826.53833,1391
826.656738,1366
826.775208,1315
826.893677,1347
827.012024,1348
827.130493,1392
827.248962,1352
827.36731,1349
827.485779,1342
827.604248,1382
827.722595,1296
827.841064,1373
827.959412,1357
828.077942,1362
828.196289,1374
828.314636,1338
828.433105,1359
828.551514,1340
828.669861,1354
828.78833,1367
828.906677,1341
829.025085,1340
829.143433,1361
829.261841,1330
829.38031,1351
829.498657,1328
829.617004,1351
829.735413,1392
829.85376,1304
829.972107,1331
830.090515,1313
830.208862,1385
830.327209,1347
830.445557,1318
830.563904,1323
830.682312,1406
830.800659,1353
830.919006,1330
831.037354,1341
831.155701,1366
831.274048,1350
831.392395,1362
831.51062,1387
831.629028,1345
831.747314,1364
831.865662,1336
831.984009,1319
832.102356,1302
832.220642,1370
832.338928,1380
832.457275,1338
832.575623,1330
832.693909,1340
832.812134,1335
832.930481,1351
833.048828,1350
833.167114,1311
833.2854,1322
833.403687,1347
833.521973,1352
833.640259,1317
833.758545,1382
833.876831,1346
833.995056,1351
834.113281,1333
834.231628,1325
834.349915,1359
834.468201,1310
834.586426,1369
834.704651,1334
834.822998,1315
834.941162,1354
835.059448,1317
835.177673,1315
835.295959,1358
835.414246,1311
835.53241,1352
835.650635,1342
835.768921,1344
835.887146,1360
836.005371,1323
836.123596,1305
836.241821,1347
836.360046,1338
836.478271,1345
836.596497,1330
836.714722,1370
836.832886,1351
836.95105,1341
837.069336,1346
837.1875,1368
837.305725,1358
837.423889,1399
837.542053,1332
837.660339,1352
837.778503,1351
837.896667,1311
838.014832,1339
838.132996,1310
838.25116,1348
838.369385,1313
838.487488,1313
838.605713,1374
838.723877,1365
838.84198,1356
838.960205,1345
839.078308,1340
839.196472,1333
839.314636,1379
839.4328,1358
839.550964,1358
839.669067,1342
839.787231,1313
839.905396,1334
840.023499,1367
840.141602,1350
840.259766,1341
840.377869,1314
840.495972,1391
840.614136,1333
840.732239,1374
840.850342,1334
840.968445,1341
841.086548,1401
841.204651,1316
841.322754,1363
841.440918,1340
841.55896,1365
841.677002,1357
841.795166,1378
841.913208,1374
842.031311,1329
842.149353,1380
842.267456,1339
842.385498,1347
842.503601,1362
842.621643,1356
842.739746,1360
842.857788,1338
842.97583,1300
843.093933,1333
843.211975,1368
843.330017,1372
843.44812,1353
843.566101,1347
843.684204,1344
843.802246,1344
843.920227,1360
844.038269,1391
844.156311,1358
844.274292,1337
844.392395,1379
844.510376,1367
844.628357,1314
844.74646,1383
844.864441,1335
844.982422,1326
845.100403,1347
845.218384,1304
845.336426,1305
845.454468,1369
845.572449,1329
845.69043,1347
845.808411,1299
845.926453,1311
846.044373,1313
846.162354,1354
846.280396,1353
846.398315,1311
846.516296,1334
846.634216,1335
846.752197,1364
846.870178,1355
846.988098,1343
847.106079,1339
847.22406,1321
847.34198,1382
847.4599,1322
847.577881,1335
847.695801,1372
847.813782,1342
847.931641,1333
848.049561,1351
848.167603,1333
848.285461,1332
848.403381,1377
848.521362,1361
848.639221,1370
848.75708,1300
848.875,1340
848.99292,1378
849.110901,1362
849.22876,1327
849.34668,1334
849.464539,1353
849.582458,1328
849.700317,1355
849.818176,1323
849.936096,1353
850.053955,1369
850.171875,1376
850.289673,1379
850.407593,1360
850.525452,1373
850.643311,1359
850.761169,1336
850.878967,1325
850.996887,1392
851.114746,1363
851.232544,1320
851.350403,1365
851.468262,1333
851.58606,1389
851.703979,1321
851.821777,1371
851.939636,1354
852.057434,1354
852.175232,1348
852.293091,1331
852.410889,1330
852.528687,1428
852.646545,1399
852.764343,1364
852.88208,1373
852.999939,1377
853.117676,1363
853.235535,1372
853.353271,1319
853.471069,1387
853.588928,1303
853.706604,1379
853.824402,1351
853.9422,1298
854.059998,1366
854.177734,1356
854.295532,1374
854.413269,1383
854.531006,1350
854.648804,1344
854.766541,1337
854.884277,1368
855.002014,1316
855.119751,1366
855.237549,1354
855.355225,1348
855.473022,1376
855.590698,1380
855.708435,1364
855.826172,1344
855.943848,1341
856.061646,1349
856.179321,1328
856.296997,1370
856.414795,1337
856.53241,1341
856.650085,1342
856.767822,1373
856.885559,1408
857.003174,1364
857.120911,1371
857.238586,1351
857.356201,1400
857.473938,1348
857.591614,1331
857.709351,1352
857.826965,1383
857.944641,1339
858.062317,1338
858.179993,1330
858.297668,1385
858.415283,1341
858.532959,1369
858.650574,1365
858.768188,1375
858.885803,1401
859.003479,1358
859.121094,1358
859.23877,1364
859.356384,1352
859.473999,1364
859.591675,1339
859.709229,1343
859.826843,1359
859.944458,1324
860.062012,1343
860.179626,1320
860.297302,1335
860.414856,1359
860.532471,1359
860.650024,1327
860.767639,1351
860.885193,1354
861.002808,1363
861.120361,1384
861.237976,1349
861.35553,1370
861.473022,1404
861.590698,1362
861.708191,1354
861.825745,1364
861.943298,1313
862.060852,1372
862.178406,1367
862.295959,1370
862.413513,1349
862.531006,1347
862.64856,1349
862.766113,1341
862.883667,1359
863.00116,1354
863.118713,1338
863.236206,1359
863.353699,1395
863.471252,1330
863.588745,1341
863.706177,1375
863.82373,1316
863.941162,1349
864.058716,1356
864.176208,1361
864.29364,1302
864.411194,1339
864.528687,1314
864.646118,1361
864.763611,1338
864.881042,1352
864.998535,1359
865.116028,1358
865.233459,1345
865.350891,1324
865.468384,1348
865.585754,1339
865.703308,1363
865.820679,1378
865.938171,1347
866.055542,1299
866.173035,1357
866.290466,1360
866.407837,1368
866.52533,1379
866.6427,1395
866.760071,1320
866.877563,1343
866.994934,1367
867.112305,1385
867.229736,1343
867.347107,1376
867.464539,1354
867.58197,1354
867.699341,1377
867.81665,1343
867.934082,1357
868.051453,1383
868.168823,1335
868.286194,1364
868.403564,1368
868.520935,1347
868.638306,1383
868.755676,1342
868.872986,1376
868.990295,1364
869.107727,1385
869.225037,1339
869.342346,1370
869.459717,1360
869.577026,1367
869.694336,1380
869.811707,1362
869.929016,1404
870.046326,1373
870.163635,1338
870.280945,1395
870.398254,1381
870.515564,1388
870.632812,1343
870.750183,1363
870.867432,1349
870.984741,1385
871.102051,1401
871.219299,1407
871.336609,1359
871.453918,1416
871.571106,1364
871.688416,1406
871.805664,1376
871.922852,1410
872.040222,1386
872.157471,1382
872.274719,1408
872.391968,1419
872.509155,1384
872.626465,1401
872.743652,1394
872.860962,1389
872.978149,1409
873.095337,1366
873.212646,1377
873.329834,1395
873.44696,1338
873.564209,1386
873.681396,1360
873.798645,1359
873.915894,1386
874.03302,1394
874.150208,1418
874.267456,1403
874.384583,1401
874.501831,1384
874.618958,1386
874.736145,1414
874.853333,1396
874.970459,1414
875.087646,1403
875.204834,1431
875.32196,1386
875.439148,1415
875.556274,1408
875.673401,1377
875.790527,1363
875.907715,1377
876.024841,1404
876.141968,1418
876.259094,1373
876.376282,1398
876.493347,1389
876.610474,1353
876.7276,1381
876.844727,1345
876.961853,1393
877.078918,1397
877.195984,1379
877.313171,1380
877.430237,1386
877.547302,1381
877.664368,1392
877.781433,1407
877.898499,1368
878.015625,1338
878.13269,1367
878.249695,1402
878.366821,1386
878.483887,1362
878.600952,1363
878.717957,1384
878.834961,1327
878.952087,1393
879.069092,1349
879.186157,1407
879.303162,1375
879.420227,1388
879.537231,1382
879.654236,1394
879.77124,1366
879.888306,1377
880.005249,1390
880.122314,1361
880.239319,1354
880.356323,1362
880.473328,1365
880.590271,1373
880.707275,1343
880.824341,1378
880.941284,1374
881.058228,1380
881.175232,1386
881.292236,1359
881.40918,1376
881.526123,1376
881.643066,1404
881.760071,1397
881.877014,1372
881.993958,1365
882.11084,1415
882.227783,1340
882.344727,1365
882.46167,1372
882.578613,1376
882.695618,1412
882.812439,1369
882.929382,1371
883.046326,1399
883.163208,1343
883.280151,1384
883.397034,1390
883.513916,1358
883.630798,1418
883.747742,1427
883.864563,1350
883.981506,1356
884.098389,1373
884.21521,1361
884.332153,1425
884.448975,1363
884.565796,1405
884.682678,1388
884.7995,1404
884.916443,1431
885.033264,1426
885.150085,1475
885.266968,1491
885.383789,1469
885.500671,1467
885.617493,1462
885.734314,1471
885.851196,1476
885.967896,1471
886.084717,1450
886.201599,1415
886.318359,1460
886.435181,1479
886.552002,1474
886.668762,1455
886.785645,1403
886.902344,1464
887.019165,1429
887.135925,1421
887.252747,1472
887.369446,1407
887.486267,1397
887.603027,1399
887.719788,1377
887.836548,1421
887.953247,1416
888.070068,1409
888.186829,1386
888.303528,1390
888.420288,1407
888.536987,1395
888.653687,1399
888.770447,1411
888.887146,1400
889.003967,1397
889.120667,1393
889.237305,1383
889.354065,1390
889.470703,1369
889.587463,1410
889.704163,1398
889.820862,1346
889.937561,1447
890.054199,1370
890.170837,1372
890.287598,1359
890.404236,1407
890.520874,1375
890.637634,1373
890.754211,1413
890.87085,1394
890.987549,1444
891.104187,1389
891.220886,1424
891.337463,1404
891.454102,1418
891.57074,1407
891.687378,1374
891.804077,1370
891.920654,1393
892.037231,1429
892.15387,1372
892.270447,1369
892.387085,1441
892.503723,1391
892.6203,1390
892.736877,1404
892.853516,1372
892.970032,1379
893.08667,1423
893.203186,1376
893.319763,1440
893.43634,1385
893.552917,1380
893.669556,1416
893.786011,1434
893.902588,1374
894.019165,1418
894.135681,1414
894.252197,1358
894.368835,1405
894.485291,1383
894.601868,1429
894.718384,1440
894.8349,1404
894.951355,1451
895.067932,1370
895.184448,1376
895.300964,1430
895.417419,1449
895.533936,1410
895.650452,1427
895.766907,1410
895.883423,1419
895.999878,1417
896.116333,1396
896.232849,1413
896.349304,1390
896.465759,1442
896.582214,1428
896.698669,1407
896.815125,1383
896.931641,1387
897.048035,1362
897.164551,1412
897.280884,1410
897.397339,1407
897.513794,1427
897.630249,1407
897.746582,1403
897.863098,1422
897.979431,1423
898.095886,1430
898.212341,1393
898.328674,1415
898.445129,1412
898.561462,1409
898.677795,1417
898.794312,1426
898.910645,1451
899.026978,1406
899.143433,1397
899.259766,1422
899.37616,1378
899.492493,1440
899.608765,1448
899.725159,1407
899.841553,1408
899.957947,1410
900.07428,1446
900.190552,1412
900.306946,1400
900.423157,1388
900.53949,1465
900.655884,1449
900.772156,1424
900.888489,1458
901.004822,1386
901.121033,1418
901.237366,1441
901.353699,1444
901.46991,1403
901.586304,1405
901.702515,1453
901.818787,1430
901.93512,1420
902.051331,1463
902.167603,1474
902.283875,1420
902.400085,1458
902.516418,1471
902.632629,1443
902.74884,1494
902.865112,1473
902.981384,1468
903.097595,1459
903.213867,1437
903.330017,1484
903.446289,1487
903.5625,1498
903.67865,1439
903.794922,1465
903.911072,1460
904.027344,1504
904.143494,1476
904.259705,1468
904.375916,1441
904.492065,1419
904.608215,1407
904.724426,1434
904.840576,1447
904.956726,1414
905.072876,1450
905.189087,1429
905.305176,1408
905.421387,1438
905.537537,1415
905.653687,1431
905.769775,1458
905.885925,1454
906.002014,1397
906.118164,1429
906.234314,1440
906.350403,1423
906.466492,1399
906.582642,1402
906.69873,1456
906.814758,1451
906.930908,1446
907.046936,1440
907.163086,1430
907.279175,1424
907.395264,1401
907.511353,1382
907.62738,1462
907.743408,1421
907.859497,1444
907.975525,1458
908.091553,1416
908.207703,1423
908.32373,1431
908.439758,1463
908.555786,1414
908.671814,1427
908.787842,1457
908.90387,1434
909.019775,1481
909.135864,1476
909.251892,1458
909.367859,1457
909.483826,1461
909.599854,1436
909.715881,1433
909.831848,1483
909.947815,1409
910.063782,1399
910.179749,1441
910.295776,1386
910.411743,1462
910.527649,1418
910.643616,1477
910.759583,1449
910.875488,1443
910.991455,1415
911.107361,1440
911.223267,1436
911.339294,1475
911.4552,1415
911.571106,1471
911.687073,1465
911.802979,1408
911.918823,1458
912.034729,1430
912.150635,1423
912.266602,1459
912.382446,1441
912.498352,1440
912.614197,1443
912.730103,1452
912.846008,1442
792.44574,2139
792.56488,2131
792.68396,2097
792.80304,2057
792.92218,1993
793.041199,2006
793.160339,1974
793.279419,1948
793.398499,1940
793.517578,1949
793.636658,1923
793.755737,1933
793.874817,1895
793.993896,1865
794.112976,1876
794.232056,1866
794.351074,1823
794.470215,1810
794.589233,1823
794.708313,1805
794.827393,1804
794.946411,1812
795.065552,1800
795.18457,1794
795.303589,1808
795.422668,1780
795.541687,1767
795.660767,1722
795.779846,1758
795.898865,1709
796.017883,1756
796.136963,1733
796.255981,1733
796.375061,1742
796.49408,1716
796.613037,1686
796.732117,1671
796.851135,1711
796.970154,1706
797.089233,1666
797.208191,1660
797.327271,1713
797.446228,1662
797.565186,1721
797.684265,1609
797.803223,1682
797.922241,1694
798.04126,1664
798.160278,1596
798.279297,1645
798.398315,1606
798.517273,1631
798.636292,1609
798.75531,1631
798.874268,1666
798.993286,1648
799.112244,1655
799.231323,1690
799.350281,1614
799.469238,1674
799.588257,1575
799.707153,1638
799.826111,1658
799.945129,1611
800.064087,1616
800.183044,1607
800.302063,1599
800.421021,1631
800.539978,1640
800.658936,1627
800.777893,1588
800.896912,1644
801.015747,1598
801.134705,1573
801.253723,1598
801.37262,1613
801.491638,1630
801.610535,1578
801.729492,1596
801.84845,1610
801.967407,1628
802.086243,1567
802.205261,1587
802.324158,1619
802.443115,1573
802.562073,1593
802.680969,1592
802.799927,1591
802.918762,1565
803.037659,1593
803.156677,1580
803.275574,1599
803.39447,1537
803.513428,1569
803.632263,1616
803.751221,1555
803.870117,1603
803.989014,1590
804.107971,1573
804.226746,1589
804.345642,1595
804.4646,1577
804.583496,1558
804.702393,1552
804.821228,1576
804.940125,1558
805.059021,1578
805.177917,1585
805.296814,1538
805.415649,1571
805.534546,1564
805.653442,1590
805.772278,1556
805.891113,1605
806.01001,1577
806.128906,1557
806.247742,1566
806.366577,1601
806.485413,1567
806.604309,1607
806.723145,1574
806.84198,1563
806.960876,1580
807.079712,1566
807.198486,1550
807.317383,1517
807.436218,1570
807.554993,1575
807.673889,1569
807.792725,1543
807.91156,1543
808.030396,1597
808.14917,1577
808.268005,1523
808.386841,1584
808.505676,1542
808.624451,1604
808.743286,1575
808.862122,1602
808.980896,1525
809.099731,1565
809.218506,1553
809.337341,1513
809.456116,1516
809.57489,1563
809.693726,1561
809.8125,1555
809.931274,1548
810.050049,1566
810.168884,1548
810.287659,1527
810.406372,1542
810.525269,1540
810.643982,1595
810.762756,1525
810.881531,1559
811.000305,1564
811.11908,1569
811.237854,1511
811.356567,1561
811.475403,1550
811.594116,1548
811.71283,1612
811.831604,1545
811.950378,1612
812.069153,1555
812.187927,1551
812.30658,1534
812.425415,1552
812.544128,1572
812.662781,1579
812.781616,1551
812.900269,1539
813.019043,1512
813.137756,1538
813.256531,1520
813.375244,1504
813.493896,1541
813.612671,1537
813.731384,1537
813.850037,1499
813.96875,1503
814.087524,1515
814.206238,1551
814.324951,1525
814.443604,1535
814.562256,1519
814.68103,1553
814.799683,1557
814.918335,1527
815.037109,1556
815.155762,1527
815.274475,1546
815.393188,1494
815.511841,1510
815.630554,1513
815.749146,1547
815.867859,1507
815.986572,1500
816.105164,1482
816.223877,1518
816.342529,1557
816.461182,1486
816.579895,1496
816.698486,1511
816.817139,1496
816.935791,1539
817.054504,1508
817.173096,1496
817.291748,1495
817.4104,1499
817.529053,1520
817.647644,1527
817.766235,1504
817.884949,1478
818.00354,1460
818.122192,1479
818.240845,1505
818.359436,1414
818.478088,1545
818.59668,1443
818.715271,1406
818.833923,1465
818.952515,1413
819.071106,1430
819.189758,1448
819.30835,1442
819.426941,1461
819.545532,1422
819.664124,1417
819.782715,1421
819.901306,1427
820.019897,1405
820.138489,1406
820.25708,1446
820.375671,1461
820.494202,1434
820.612732,1417
820.731384,1408
820.849915,1453
820.968506,1412
821.087097,1420
821.205627,1397
821.324158,1359
821.442749,1404
821.561279,1407
821.679871,1389
821.798401,1393
821.916931,1383
822.035461,1386
822.154053,1438
822.272583,1397
822.391174,1384
822.509583,1415
822.628174,1403
822.746704,1413
822.865234,1401
822.983765,1391
823.102295,1417
823.220825,1397
823.339294,1391
823.457825,1376
823.576355,1372
823.694824,1421
823.813354,1430
823.931885,1387
824.050354,1423
824.168884,1369
824.287354,1362
824.405823,1407
824.524353,1385
824.642822,1436
824.761353,1393
824.879822,1396
824.998291,1346
825.116699,1407
825.235291,1398
825.353699,1391
825.472168,1366
825.590637,1387
825.709106,1415
825.827576,1394
825.946045,1324
826.064453,1319
826.182983,1365
826.301392,1388
826.4198,1340
826.53833,1374
826.656738,1366
826.775208,1371
826.893677,1360
827.012024,1342
827.130493,1370
827.248962,1399
827.36731,1347
827.485779,1364
827.604248,1336
827.722595,1337
827.841064,1323
827.959412,1348
828.077942,1395
828.196289,1329
828.314636,1376
828.433105,1374
828.551514,1396
828.669861,1345
828.78833,1353
828.906677,1324
829.025085,1333
829.143433,1368
829.261841,1350
829.38031,1376
829.498657,1342
829.617004,1374
829.735413,1340
829.85376,1369
829.972107,1325
830.090515,1333
830.208862,1323
830.327209,1323
830.445557,1368
830.563904,1330
830.682312,1381
830.800659,1329
830.919006,1371
831.037354,1351
831.155701,1386
831.274048,1362
831.392395,1341
831.51062,1343
831.629028,1351
831.747314,1378
831.865662,1344
831.984009,1321
832.102356,1367
832.220642,1312
832.338928,1402
832.457275,1334
832.575623,1359
832.693909,1336
832.812134,1368
832.930481,1375
833.048828,1424
833.167114,1350
833.2854,1321
833.403687,1326
833.521973,1337
833.640259,1323
833.758545,1339
833.876831,1316
833.995056,1379
834.113281,1379
834.231628,1339
834.349915,1353
834.468201,1366
834.586426,1350
834.704651,1377
834.822998,1340
834.941162,1346
835.059448,1319
835.177673,1366
835.295959,1333
835.414246,1338
835.53241,1365
835.650635,1350
835.768921,1321
835.887146,1358
836.005371,1359
836.123596,1332
836.241821,1350
836.360046,1305
836.478271,1340
836.596497,1339
836.714722,1315
836.832886,1351
836.95105,1308
837.069336,1352
837.1875,1384
837.305725,1316
837.423889,1328
837.542053,1349
837.660339,1318
837.778503,1354
837.896667,1368
838.014832,1317
838.132996,1310
838.25116,1346
838.369385,1347
838.487488,1361
838.605713,1352
838.723877,1360
838.84198,1348
838.960205,1329
839.078308,1329
839.196472,1315
839.314636,1336
839.4328,1360
839.550964,1362
839.669067,1334
839.787231,1337
839.905396,1386
840.023499,1351
840.141602,1342
840.259766,1372
840.377869,1342
840.495972,1328
840.614136,1302
840.732239,1347
840.850342,1375
840.968445,1405
841.086548,1347
841.204651,1386
841.322754,1374
841.440918,1380
841.55896,1356
841.677002,1366
841.795166,1351
841.913208,1346
842.031311,1323
842.149353,1354
842.267456,1370
842.385498,1349
842.503601,1348
842.621643,1343
842.739746,1353
842.857788,1334
842.97583,1353
843.093933,1340
843.211975,1334
843.330017,1404
843.44812,1364
843.566101,1334
843.684204,1341
843.802246,1328
843.920227,1308
844.038269,1357
844.156311,1317
844.274292,1378
844.392395,1323
844.510376,1368
844.628357,1325
844.74646,1355
844.864441,1342
844.982422,1341
845.100403,1338
845.218384,1367
845.336426,1332
845.454468,1362
845.572449,1359
845.69043,1314
845.808411,1334
845.926453,1336
846.044373,1358
846.162354,1302
846.280396,1339
846.398315,1314
846.516296,1350
846.634216,1364
846.752197,1367
846.870178,1318
846.988098,1308
847.106079,1361
847.22406,1330
847.34198,1362
847.4599,1323
847.577881,1351
847.695801,1321
847.813782,1368
847.931641,1374
848.049561,1335
848.167603,1362
848.285461,1329
848.403381,1330
848.521362,1306
848.639221,1317
848.75708,1369
848.875,1352
848.99292,1335
849.110901,1311
849.22876,1376
849.34668,1332
849.464539,1304
849.582458,1381
849.700317,1333
849.818176,1363
849.936096,1345
850.053955,1311
850.171875,1373
850.289673,1346
850.407593,1377
850.525452,1359
850.643311,1362
850.761169,1318
850.878967,1360
850.996887,1373
851.114746,1363
851.232544,1378
851.350403,1351
851.468262,1372
851.58606,1359
851.703979,1334
851.821777,1332
851.939636,1350
852.057434,1340
852.175232,1365
852.293091,1395
852.410889,1377
852.528687,1440
852.646545,1383
852.764343,1359
852.88208,1376
852.999939,1348
853.117676,1378
853.235535,1381
853.353271,1382
853.471069,1337
853.588928,1331
853.706604,1371
853.824402,1366
853.9422,1386
854.059998,1316
854.177734,1347
854.295532,1336
854.413269,1404
854.531006,1321
854.648804,1393
854.766541,1361
854.884277,1361
855.002014,1391
855.119751,1339
855.237549,1342
855.355225,1327
855.473022,1365
855.590698,1340
855.708435,1351
855.826172,1396
855.943848,1365
856.061646,1359
856.179321,1338
856.296997,1312
856.414795,1369
856.53241,1362
856.650085,1323
856.767822,1331
856.885559,1364
857.003174,1376
857.120911,1337
857.238586,1384
857.356201,1386
857.473938,1347
857.591614,1383
857.709351,1390
857.826965,1342
857.944641,1417
858.062317,1431
858.179993,1375
858.297668,1352
858.415283,1369
858.532959,1389
858.650574,1384
858.768188,1427
858.885803,1404
859.003479,1364
859.121094,1330
859.23877,1354
859.356384,1352
859.473999,1365
859.591675,1339
859.709229,1372
859.826843,1372
859.944458,1319
860.062012,1369
860.179626,1384
860.297302,1364
860.414856,1335
860.532471,1371
860.650024,1378
860.767639,1373
860.885193,1374
861.002808,1322
861.120361,1362
861.237976,1332
861.35553,1354
861.473022,1338
861.590698,1380
861.708191,1393
861.825745,1359
861.943298,1382
862.060852,1332
862.178406,1342
862.295959,1297
862.413513,1356
862.531006,1360
862.64856,1364
862.766113,1339
862.883667,1343
863.00116,1345
863.118713,1389
863.236206,1354
863.353699,1364
863.471252,1313
863.588745,1364
863.706177,1359
863.82373,1375
863.941162,1363
864.058716,1329
864.176208,1373
864.29364,1381
864.411194,1352
864.528687,1348
864.646118,1361
864.763611,1317
864.881042,1361
864.998535,1374
865.116028,1355
865.233459,1351
865.350891,1369
865.468384,1372
865.585754,1342
865.703308,1372
865.820679,1380
865.938171,1358
866.055542,1340
866.173035,1378
866.290466,1324
866.407837,1356
866.52533,1339
866.6427,1392
866.760071,1335
866.877563,1341
866.994934,1328
867.112305,1371
867.229736,1383
867.347107,1394
867.464539,1391
867.58197,1363
867.699341,1391
867.81665,1376
867.934082,1353
868.051453,1390
868.168823,1358
868.286194,1375
868.403564,1375
868.520935,1357
868.638306,1387
868.755676,1394
868.872986,1386
868.990295,1363
869.107727,1406
869.225037,1369
869.342346,1374
869.459717,1369
869.577026,1373
869.694336,1372
869.811707,1383
869.929016,1405
870.046326,1389
870.163635,1395
870.280945,1391
870.398254,1361
870.515564,1383
870.632812,1394
870.750183,1401
870.867432,1340
870.984741,1396
871.102051,1416
871.219299,1373
871.336609,1371
871.453918,1386
871.571106,1407
871.688416,1404
871.805664,1369
871.922852,1374
872.040222,1371
872.157471,1383
872.274719,1436
872.391968,1379
872.509155,1366
872.626465,1363
872.743652,1414
872.860962,1393
872.978149,1420
873.095337,1379
873.212646,1394
873.329834,1370
873.44696,1334
873.564209,1372
873.681396,1404
873.798645,1419
873.915894,1386
874.03302,1390
874.150208,1413
874.267456,1391
874.384583,1404
874.501831,1395
874.618958,1359
874.736145,1448
874.853333,1383
874.970459,1435
875.087646,1416
875.204834,1373
875.32196,1396
875.439148,1371
875.556274,1449
875.673401,1401
875.790527,1396
875.907715,1372
876.024841,1402
876.141968,1429
876.259094,1406
876.376282,1436
876.493347,1383
876.610474,1422
876.7276,1405
876.844727,1417
876.961853,1364
877.078918,1397
877.195984,1364
877.313171,1383
877.430237,1371
877.547302,1425
877.664368,1372
877.781433,1397
877.898499,1361
878.015625,1424
878.13269,1360
878.249695,1384
878.366821,1396
878.483887,1382
878.600952,1352
878.717957,1416
878.834961,1349
878.952087,1405
879.069092,1397
879.186157,1356
879.303162,1398
879.420227,1387
879.537231,1390
879.654236,1405
879.77124,1381
879.888306,1391
880.005249,1337
880.122314,1416
880.239319,1392
880.356323,1388
880.473328,1399
880.590271,1370
880.707275,1387
880.824341,1341
880.941284,1393
881.058228,1422
881.175232,1367
881.292236,1406
881.40918,1380
881.526123,1374
881.643066,1386
881.760071,1389
881.877014,1347
881.993958,1385
882.11084,1343
882.227783,1400
882.344727,1377
882.46167,1380
882.578613,1417
882.695618,1338
882.812439,1358
882.929382,1363
883.046326,1357
883.163208,1388
883.280151,1357
883.397034,1372
883.513916,1401
883.630798,1400
883.747742,1416
883.864563,1382
883.981506,1336
884.098389,1401
884.21521,1433
884.332153,1442
884.448975,1372
884.565796,1412
884.682678,1406
884.7995,1420
884.916443,1459
885.033264,1412
885.150085,1460
885.266968,1476
885.383789,1499
885.500671,1483
885.617493,1424
885.734314,1497
885.851196,1459
885.967896,1412
886.084717,1464
886.201599,1497
886.318359,1434
886.435181,1465
886.552002,1438
886.668762,1475
886.785645,1461
886.902344,1461
887.019165,1434
887.135925,1434
887.252747,1433
887.369446,1463
887.486267,1446
887.603027,1421
887.719788,1471
887.836548,1417
887.953247,1453
888.070068,1424
888.186829,1404
888.303528,1419
888.420288,1441
888.536987,1371
888.653687,1437
888.770447,1388
888.887146,1408
889.003967,1372
889.120667,1398
889.237305,1414
889.354065,1410
889.470703,1356
889.587463,1390
889.704163,1414
889.820862,1392
889.937561,1381
890.054199,1459
890.170837,1428
890.287598,1416
890.404236,1404
890.520874,1404
890.637634,1416
890.754211,1424
890.87085,1402
890.987549,1389
891.104187,1376
891.220886,1448
891.337463,1403
891.454102,1456
891.57074,1396
891.687378,1413
891.804077,1457
891.920654,1402
892.037231,1438
892.15387,1408
892.270447,1382
892.387085,1413
892.503723,1430
892.6203,1406
892.736877,1391
892.853516,1411
892.970032,1387
893.08667,1432
893.203186,1402
893.319763,1379
893.43634,1456
893.552917,1397
893.669556,1412
893.786011,1422
893.902588,1439
894.019165,1441
894.135681,1446
894.252197,1426
894.368835,1431
894.485291,1400
894.601868,1405
894.718384,1393
894.8349,1398
894.951355,1409
895.067932,1385
895.184448,1426
895.300964,1409
895.417419,1385
895.533936,1410
895.650452,1421
895.766907,1418
895.883423,1381
895.999878,1403
896.116333,1404
896.232849,1386
896.349304,1416
896.465759,1429
896.582214,1381
896.698669,1440
896.815125,1400
896.931641,1409
897.048035,1421
897.164551,1414
897.280884,1417
897.397339,1426
897.513794,1405
897.630249,1424
897.746582,1381
897.863098,1396
897.979431,1402
898.095886,1396
898.212341,1460
898.328674,1408
898.445129,1417
898.561462,1429
898.677795,1423
898.794312,1446
898.910645,1421
899.026978,1405
899.143433,1481
899.259766,1401
899.37616,1397
899.492493,1444
899.608765,1405
899.725159,1441
899.841553,1436
899.957947,1435
900.07428,1446
900.190552,1442
900.306946,1413
900.423157,1429
900.53949,1442
900.655884,1434
900.772156,1462
900.888489,1466
901.004822,1450
901.121033,1427
901.237366,1448
901.353699,1414
901.46991,1454
901.586304,1407
901.702515,1440
901.818787,1465
901.93512,1442
902.051331,1500
902.167603,1474
902.283875,1471
902.400085,1507
902.516418,1516
902.632629,1436
902.74884,1501
902.865112,1492
902.981384,1461
903.097595,1491
903.213867,1462
903.330017,1462
903.446289,1432
903.5625,1474
903.67865,1502
903.794922,1468
903.911072,1426
904.027344,1461
904.143494,1469
904.259705,1482
904.375916,1423
904.492065,1444
904.608215,1449
904.724426,1413
904.840576,1448
904.956726,1449
905.072876,1433
905.189087,1429
905.305176,1461
905.421387,1453
905.537537,1451
905.653687,1423
905.769775,1466
905.885925,1408
906.002014,1447
906.118164,1444
906.234314,1441
906.350403,1447
906.466492,1451
906.582642,1436
906.69873,1435
906.814758,1455
906.930908,1427
907.046936,1460
907.163086,1479
907.279175,1423
907.395264,1462
907.511353,1423
907.62738,1433
907.743408,1428
907.859497,1480
907.975525,1449
908.091553,1454
908.207703,1403
908.32373,1436
908.439758,1440
908.555786,1435
908.671814,1453
908.787842,1454
908.90387,1442
909.019775,1458
909.135864,1444
909.251892,1499
909.367859,1435
909.483826,1482
909.599854,1449
909.715881,1463
909.831848,1475
909.947815,1471
910.063782,1480
910.179749,1427
910.295776,1480
910.411743,1447
910.527649,1457
910.643616,1441
910.759583,1452
910.875488,1469
910.991455,1395
911.107361,1452
911.223267,1432
911.339294,1469
911.4552,1464
911.571106,1433
911.687073,1475
911.802979,1481
911.918823,1466
912.034729,1450
912.150635,1456
912.266602,1471
912.382446,1440
912.498352,1442
912.614197,1438
912.730103,1465
912.846008,1461
