792.44574,1800
792.56488,1769
792.68396,1814
792.80304,1747
792.92218,1700
793.041199,1690
793.160339,1754
793.279419,1712
793.398499,1682
793.517578,1731
793.636658,1657
793.755737,1682
793.874817,1649
793.993896,1689
794.112976,1683
794.232056,1618
794.351074,1616
794.470215,1631
794.589233,1686
794.708313,1614
794.827393,1609
794.946411,1612
795.065552,1635
795.18457,1571
795.303589,1663
795.422668,1591
795.541687,1564
795.660767,1656
795.779846,1594
795.898865,1605
796.017883,1589
796.136963,1572
796.255981,1546
796.375061,1552
796.49408,1587
796.613037,1592
796.732117,1593
796.851135,1558
796.970154,1568
797.089233,1580
797.208191,1604
797.327271,1578
797.446228,1550
797.565186,1530
797.684265,1620
797.803223,1546
797.922241,1548
798.04126,1604
798.160278,1547
798.279297,1523
798.398315,1593
798.517273,1578
798.636292,1491
798.75531,1552
798.874268,1530
798.993286,1583
799.112244,1532
799.231323,1519
799.350281,1551
799.469238,1581
799.588257,1549
799.707153,1521
799.826111,1526
799.945129,1532
800.064087,1549
800.183044,1536
800.302063,1534
800.421021,1588
800.539978,1549
800.658936,1557
800.777893,1548
800.896912,1570
801.015747,1546
801.134705,1514
801.253723,1527
801.37262,1544
801.491638,1587
801.610535,1518
801.729492,1536
801.84845,1550
801.967407,1554
802.086243,1509
802.205261,1508
802.324158,1531
802.443115,1555
802.562073,1509
802.680969,1565
802.799927,1530
802.918762,1518
803.037659,1526
803.156677,1533
803.275574,1545
803.39447,1560
803.513428,1533
803.632263,1544
803.751221,1553
803.870117,1584
803.989014,1508
804.107971,1526
804.226746,1540
804.345642,1523
804.4646,1552
804.583496,1504
804.702393,1540
804.821228,1585
804.940125,1551
805.059021,1528
805.177917,1554
805.296814,1509
805.415649,1534
805.534546,1551
805.653442,1519
805.772278,1558
805.891113,1558
806.01001,1545
806.128906,1566
806.247742,1578
806.366577,1583
806.485413,1540
806.604309,1547
806.723145,1582
806.84198,1543
806.960876,1558
807.079712,1538
807.198486,1549
807.317383,1548
807.436218,1496
807.554993,1527
807.673889,1550
807.792725,1524
807.91156,1554
808.030396,1465
808.14917,1542
808.268005,1496
808.386841,1568
808.505676,1586
808.624451,1531
808.743286,1507
808.862122,1530
808.980896,1549
809.099731,1512
809.218506,1523
809.337341,1561
809.456116,1546
809.57489,1548
809.693726,1575
809.8125,1552
809.931274,1566
810.050049,1536
810.168884,1539
810.287659,1551
810.406372,1539
810.525269,1541
810.643982,1499
810.762756,1533
810.881531,1582
811.000305,1583
811.11908,1518
811.237854,1545
811.356567,1530
811.475403,1551
811.594116,1552
811.71283,1548
811.831604,1497
811.950378,1569
812.069153,1536
812.187927,1549
812.30658,1578
812.425415,1534
812.544128,1552
812.662781,1521
812.781616,1537
812.900269,1552
813.019043,1545
813.137756,1549
813.256531,1549
813.375244,1526
813.493896,1551
813.612671,1590
813.731384,1540
813.850037,1549
813.96875,1546
814.087524,1520
814.206238,1496
814.324951,1481
814.443604,1535
814.562256,1553
814.68103,1530
814.799683,1540
814.918335,1549
815.037109,1521
815.155762,1536
815.274475,1520
815.393188,1534
815.511841,1508
815.630554,1509
815.749146,1506
815.867859,1470
815.986572,1511
816.105164,1507
816.223877,1486
816.342529,1519
816.461182,1511
816.579895,1541
816.698486,1528
816.817139,1487
816.935791,1500
817.054504,1511
817.173096,1529
817.291748,1488
817.4104,1514
817.529053,1477
817.647644,1513
817.766235,1446
817.884949,1492
818.00354,1459
818.122192,1424
818.240845,1464
818.359436,1432
818.478088,1432
818.59668,1444
818.715271,1474
818.833923,1397
818.952515,1412
819.071106,1437
819.189758,1400
819.30835,1432
819.426941,1383
819.545532,1399
819.664124,1367
819.782715,1407
819.901306,1372
820.019897,1407
820.138489,1348
820.25708,1412
820.375671,1378
820.494202,1356
820.612732,1364
820.731384,1365
820.849915,1396
820.968506,1384
821.087097,1375
821.205627,1398
821.324158,1326
821.442749,1371
821.561279,1353
821.679871,1349
821.798401,1348
821.916931,1389
822.035461,1372
822.154053,1367
822.272583,1372
822.391174,1313
822.509583,1359
822.628174,1345
822.746704,1347
822.865234,1339
822.983765,1360
823.102295,1346
823.220825,1388
823.339294,1350
823.457825,1320
823.576355,1368
823.694824,1329
823.813354,1362
823.931885,1329
824.050354,1355
824.168884,1356
824.287354,1332
824.405823,1367
824.524353,1347
824.642822,1357
824.761353,1372
824.879822,1339
824.998291,1307
825.116699,1356
825.235291,1369
825.353699,1351
825.472168,1315
825.590637,1351
825.709106,1361
825.827576,1345
825.946045,1326
826.064453,1315
826.182983,1369
826.301392,1289
826.4198,1331
826.53833,1325
826.656738,1336
826.775208,1324
826.893677,1340
827.012024,1298
827.130493,1323
827.248962,1295
827.36731,1302
827.485779,1301
827.604248,1322
827.722595,1324
827.841064,1248
827.959412,1328
828.077942,1278
828.196289,1305
828.314636,1341
828.433105,1321
828.551514,1336
828.669861,1317
828.78833,1274
828.906677,1326
829.025085,1337
829.143433,1303
829.261841,1320
829.38031,1297
829.498657,1289
829.617004,1285
829.735413,1279
829.85376,1288
829.972107,1263
830.090515,1349
830.208862,1302
830.327209,1276
830.445557,1291
830.563904,1314
830.682312,1251
830.800659,1324
830.919006,1265
831.037354,1304
831.155701,1284
831.274048,1322
831.392395,1281
831.51062,1259
831.629028,1306
831.747314,1356
831.865662,1292
831.984009,1328
832.102356,1315
832.220642,1274
832.338928,1258
832.457275,1286
832.575623,1319
832.693909,1274
832.812134,1283
832.930481,1265
833.048828,1293
833.167114,1279
833.2854,1309
833.403687,1286
833.521973,1313
833.640259,1271
833.758545,1274
833.876831,1272
833.995056,1338
834.113281,1305
834.231628,1290
834.349915,1309
834.468201,1270
834.586426,1303
834.704651,1279
834.822998,1277
834.941162,1291
835.059448,1324
835.177673,1311
835.295959,1289
835.414246,1338
835.53241,1286
835.650635,1283
835.768921,1304
835.887146,1282
836.005371,1323
836.123596,1317
836.241821,1317
836.360046,1300
836.478271,1286
836.596497,1317
836.714722,1301
836.832886,1288
836.95105,1313
837.069336,1310
837.1875,1288
837.305725,1305
837.423889,1327
837.542053,1283
837.660339,1302
837.778503,1292
837.896667,1354
838.014832,1284
838.132996,1280
838.25116,1304
838.369385,1313
838.487488,1298
838.605713,1334
838.723877,1361
838.84198,1304
838.960205,1307
839.078308,1290
839.196472,1326
839.314636,1313
839.4328,1331
839.550964,1300
839.669067,1286
839.787231,1232
839.905396,1320
840.023499,1313
840.141602,1337
840.259766,1353
840.377869,1294
840.495972,1328
840.614136,1287
840.732239,1301
840.850342,1280
840.968445,1280
841.086548,1291
841.204651,1286
841.322754,1302
841.440918,1307
841.55896,1327
841.677002,1276
841.795166,1282
841.913208,1320
842.031311,1321
842.149353,1297
842.267456,1275
842.385498,1310
842.503601,1289
842.621643,1269
842.739746,1298
842.857788,1290
842.97583,1311
843.093933,1316
843.211975,1290
843.330017,1289
843.44812,1324
843.566101,1249
843.684204,1268
843.802246,1321
843.920227,1314
844.038269,1306
844.156311,1304
844.274292,1276
844.392395,1310
844.510376,1283
844.628357,1302
844.74646,1291
844.864441,1291
844.982422,1306
845.100403,1291
845.218384,1279
845.336426,1277
845.454468,1277
845.572449,1342
845.69043,1289
845.808411,1296
845.926453,1262
846.044373,1268
846.162354,1263
846.280396,1284
846.398315,1290
846.516296,1304
846.634216,1288
846.752197,1270
846.870178,1283
846.988098,1268
847.106079,1285
847.22406,1302
847.34198,1274
847.4599,1293
847.577881,1276
847.695801,1323
847.813782,1308
847.931641,1307
848.049561,1276
848.167603,1266
848.285461,1299
848.403381,1300
848.521362,1306
848.639221,1323
848.75708,1298
848.875,1264
848.99292,1322
849.110901,1278
849.22876,1313
849.34668,1306
849.464539,1291
849.582458,1288
849.700317,1293
849.818176,1277
849.936096,1324
850.053955,1342
850.171875,1311
850.289673,1251
850.407593,1285
850.525452,1299
850.643311,1269
850.761169,1282
850.878967,1255
850.996887,1306
851.114746,1261
851.232544,1329
851.350403,1280
851.468262,1297
851.58606,1324
851.703979,1283
851.821777,1339
851.939636,1267
852.057434,1304
852.175232,1316
852.293091,1315
852.410889,1359
852.528687,1273
852.646545,1319
852.764343,1286
852.88208,1289
852.999939,1272
853.117676,1327
853.235535,1304
853.353271,1266
853.471069,1282
853.588928,1308
853.706604,1293
853.824402,1318
853.9422,1292
854.059998,1322
854.177734,1312
854.295532,1319
854.413269,1246
854.531006,1266
854.648804,1318
854.766541,1281
854.884277,1277
855.002014,1305
855.119751,1275
855.237549,1309
855.355225,1321
855.473022,1296
855.590698,1305
855.708435,1309
855.826172,1327
855.943848,1294
856.061646,1281
856.179321,1276
856.296997,1313
856.414795,1283
856.53241,1343
856.650085,1280
856.767822,1320
856.885559,1339
857.003174,1297
857.120911,1319
857.238586,1267
857.356201,1303
857.473938,1304
857.591614,1333
857.709351,1317
857.826965,1323
857.944641,1322
858.062317,1282
858.179993,1304
858.297668,1291
858.415283,1289
858.532959,1265
858.650574,1325
858.768188,1336
858.885803,1324
859.003479,1281
859.121094,1332
859.23877,1332
859.356384,1304
859.473999,1326
859.591675,1276
859.709229,1299
859.826843,1294
859.944458,1285
860.062012,1333
860.179626,1276
860.297302,1301
860.414856,1306
860.532471,1321
860.650024,1305
860.767639,1291
860.885193,1293
861.002808,1264
861.120361,1307
861.237976,1321
861.35553,1302
861.473022,1305
861.590698,1282
861.708191,1307
861.825745,1301
861.943298,1323
862.060852,1312
862.178406,1301
862.295959,1283
862.413513,1311
862.531006,1313
862.64856,1273
862.766113,1271
862.883667,1290
863.00116,1273
863.118713,1326
863.236206,1332
863.353699,1293
863.471252,1309
863.588745,1289
863.706177,1277
863.82373,1302
863.941162,1310
864.058716,1317
864.176208,1303
864.29364,1296
864.411194,1337
864.528687,1312
864.646118,1345
864.763611,1277
864.881042,1318
864.998535,1299
865.116028,1308
865.233459,1306
865.350891,1240
865.468384,1339
865.585754,1369
865.703308,1313
865.820679,1348
865.938171,1294
866.055542,1322
866.173035,1320
866.290466,1308
866.407837,1299
866.52533,1330
866.6427,1282
866.760071,1302
866.877563,1326
866.994934,1314
867.112305,1271
867.229736,1324
867.347107,1296
867.464539,1320
867.58197,1347
867.699341,1314
867.81665,1358
867.934082,1294
868.051453,1346
868.168823,1349
868.286194,1322
868.403564,1305
868.520935,1290
868.638306,1330
868.755676,1313
868.872986,1347
868.990295,1312
869.107727,1335
869.225037,1308
869.342346,1344
869.459717,1296
869.577026,1301
869.694336,1302
869.811707,1295
869.929016,1322
870.046326,1322
870.163635,1316
870.280945,1331
870.398254,1291
870.515564,1322
870.632812,1309
870.750183,1324
870.867432,1347
870.984741,1333
871.102051,1325
871.219299,1305
871.336609,1332
871.453918,1304
871.571106,1359
871.688416,1307
871.805664,1342
871.922852,1279
872.040222,1351
872.157471,1328
872.274719,1296
872.391968,1337
872.509155,1326
872.626465,1316
872.743652,1283
872.860962,1348
872.978149,1289
873.095337,1341
873.212646,1281
873.329834,1307
873.44696,1312
873.564209,1320
873.681396,1302
873.798645,1299
873.915894,1348
874.03302,1344
874.150208,1323
874.267456,1338
874.384583,1340
874.501831,1363
874.618958,1315
874.736145,1310
874.853333,1330
874.970459,1324
875.087646,1332
875.204834,1309
875.32196,1339
875.439148,1357
875.556274,1315
875.673401,1346
875.790527,1341
875.907715,1309
876.024841,1295
876.141968,1314
876.259094,1307
876.376282,1374
876.493347,1298
876.610474,1330
876.7276,1291
876.844727,1341
876.961853,1323
877.078918,1356
877.195984,1346
877.313171,1334
877.430237,1318
877.547302,1321
877.664368,1330
877.781433,1322
877.898499,1354
878.015625,1341
878.13269,1316
878.249695,1305
878.366821,1296
878.483887,1342
878.600952,1303
878.717957,1310
878.834961,1352
878.952087,1364
879.069092,1311
879.186157,1350
879.303162,1333
879.420227,1343
879.537231,1328
879.654236,1345
879.77124,1347
879.888306,1293
880.005249,1360
880.122314,1339
880.239319,1350
880.356323,1316
880.473328,1342
880.590271,1359
880.707275,1360
880.824341,1343
880.941284,1325
881.058228,1356
881.175232,1351
881.292236,1340
881.40918,1349
881.526123,1347
881.643066,1341
881.760071,1334
881.877014,1287
881.993958,1360
882.11084,1344
882.227783,1329
882.344727,1366
882.46167,1325
882.578613,1332
882.695618,1378
882.812439,1356
882.929382,1336
883.046326,1391
883.163208,1335
883.280151,1360
883.397034,1338
883.513916,1343
883.630798,1355
883.747742,1328
883.864563,1364
883.981506,1342
884.098389,1341
884.21521,1347
884.332153,1385
884.448975,1333
884.565796,1359
884.682678,1379
884.7995,1356
884.916443,1369
885.033264,1365
885.150085,1320
885.266968,1405
885.383789,1335
885.500671,1381
885.617493,1369
885.734314,1382
885.851196,1396
885.967896,1379
886.084717,1368
886.201599,1357
886.318359,1364
886.435181,1378
886.552002,1367
886.668762,1394
886.785645,1391
886.902344,1373
887.019165,1385
887.135925,1337
887.252747,1347
887.369446,1340
887.486267,1380
887.603027,1331
887.719788,1359
887.836548,1373
887.953247,1380
888.070068,1336
888.186829,1375
888.303528,1322
888.420288,1357
888.536987,1335
888.653687,1409
888.770447,1374
888.887146,1342
889.003967,1378
889.120667,1368
889.237305,1341
889.354065,1345
889.470703,1411
889.587463,1354
889.704163,1403
889.820862,1342
889.937561,1388
890.054199,1339
890.170837,1369
890.287598,1357
890.404236,1379
890.520874,1382
890.637634,1349
890.754211,1420
890.87085,1381
890.987549,1356
891.104187,1387
891.220886,1397
891.337463,1387
891.454102,1417
891.57074,1394
891.687378,1394
891.804077,1370
891.920654,1378
892.037231,1382
892.15387,1405
892.270447,1373
892.387085,1406
892.503723,1378
892.6203,1392
892.736877,1337
892.853516,1372
892.970032,1390
893.08667,1380
893.203186,1398
893.319763,1395
893.43634,1410
893.552917,1393
893.669556,1404
893.786011,1388
893.902588,1406
894.019165,1385
894.135681,1384
894.252197,1361
894.368835,1406
894.485291,1365
894.601868,1408
894.718384,1395
894.8349,1389
894.951355,1374
895.067932,1371
895.184448,1376
895.300964,1422
895.417419,1397
895.533936,1346
895.650452,1423
895.766907,1343
895.883423,1340
895.999878,1403
896.116333,1393
896.232849,1407
896.349304,1411
896.465759,1363
896.582214,1397
896.698669,1403
896.815125,1333
896.931641,1421
897.048035,1384
897.164551,1381
897.280884,1406
897.397339,1410
897.513794,1392
897.630249,1436
897.746582,1370
897.863098,1383
897.979431,1427
898.095886,1402
898.212341,1349
898.328674,1389
898.445129,1402
898.561462,1437
898.677795,1403
898.794312,1375
898.910645,1380
899.026978,1420
899.143433,1384
899.259766,1357
899.37616,1423
899.492493,1386
899.608765,1368
899.725159,1404
899.841553,1403
899.957947,1406
900.07428,1381
900.190552,1392
900.306946,1438
900.423157,1419
900.53949,1419
900.655884,1348
900.772156,1413
900.888489,1411
901.004822,1396
901.121033,1410
901.237366,1438
901.353699,1449
901.46991,1375
901.586304,1387
901.702515,1383
901.818787,1376
901.93512,1394
902.051331,1369
902.167603,1392
902.283875,1435
902.400085,1450
902.516418,1432
902.632629,1456
902.74884,1380
902.865112,1401
902.981384,1417
903.097595,1392
903.213867,1432
903.330017,1422
903.446289,1439
903.5625,1427
903.67865,1425
903.794922,1408
903.911072,1443
904.027344,1430
904.143494,1447
904.259705,1425
904.375916,1447
904.492065,1426
904.608215,1386
904.724426,1422
904.840576,1414
904.956726,1397
905.072876,1444
905.189087,1414
905.305176,1442
905.421387,1429
905.537537,1404
905.653687,1429
905.769775,1403
905.885925,1420
906.002014,1388
906.118164,1381
906.234314,1378
906.350403,1425
906.466492,1450
906.582642,1386
906.69873,1441
906.814758,1424
906.930908,1414
907.046936,1405
907.163086,1410
907.279175,1418
907.395264,1410
907.511353,1446
907.62738,1421
907.743408,1437
907.859497,1429
907.975525,1423
908.091553,1426
908.207703,1426
908.32373,1467
908.439758,1454
908.555786,1376
908.671814,1430
908.787842,1411
908.90387,1440
909.019775,1413
909.135864,1379
909.251892,1447
909.367859,1363
909.483826,1440
909.599854,1428
909.715881,1401
909.831848,1485
909.947815,1421
910.063782,1457
910.179749,1407
910.295776,1461
910.411743,1456
910.527649,1407
910.643616,1405
910.759583,1437
910.875488,1451
910.991455,1425
911.107361,1393
911.223267,1457
911.339294,1392
911.4552,1444
911.571106,1376
911.687073,1442
911.802979,1449
911.918823,1436
912.034729,1437
912.150635,1451
912.266602,1438
912.382446,1423
912.498352,1439
912.614197,1415
912.730103,1406
912.846008,1445
792.44574,1822
792.56488,1770
792.68396,1855
792.80304,1803
792.92218,1786
793.041199,1737
793.160339,1747
793.279419,1723
793.398499,1726
793.517578,1722
793.636658,1710
793.755737,1733
793.874817,1712
793.993896,1717
794.112976,1681
794.232056,1651
794.351074,1682
794.470215,1664
794.589233,1645
794.708313,1619
794.827393,1693
794.946411,1657
795.065552,1642
795.18457,1632
795.303589,1614
795.422668,1654
795.541687,1624
795.660767,1613
795.779846,1601
795.898865,1616
796.017883,1616
796.136963,1603
796.255981,1593
796.375061,1596
796.49408,1578
796.613037,1619
796.732117,1584
796.851135,1613
796.970154,1595
797.089233,1558
797.208191,1581
797.327271,1572
797.446228,1551
797.565186,1589
797.684265,1603
797.803223,1606
797.922241,1581
798.04126,1590
798.160278,1597
798.279297,1579
798.398315,1612
798.517273,1615
798.636292,1536
798.75531,1576
798.874268,1560
798.993286,1587
799.112244,1586
799.231323,1579
799.350281,1517
799.469238,1546
799.588257,1607
799.707153,1572
799.826111,1573
799.945129,1618
800.064087,1548
800.183044,1549
800.302063,1578
800.421021,1568
800.539978,1529
800.658936,1579
800.777893,1570
800.896912,1564
801.015747,1543
801.134705,1570
801.253723,1555
801.37262,1543
801.491638,1556
801.610535,1557
801.729492,1566
801.84845,1523
801.967407,1570
802.086243,1583
802.205261,1536
802.324158,1556
802.443115,1550
802.562073,1553
802.680969,1533
802.799927,1580
802.918762,1543
803.037659,1514
803.156677,1596
803.275574,1535
803.39447,1549
803.513428,1560
803.632263,1511
803.751221,1601
803.870117,1549
803.989014,1542
804.107971,1582
804.226746,1561
804.345642,1568
804.4646,1593
804.583496,1594
804.702393,1488
804.821228,1567
804.940125,1596
805.059021,1586
805.177917,1563
805.296814,1550
805.415649,1579
805.534546,1578
805.653442,1561
805.772278,1578
805.891113,1568
806.01001,1586
806.128906,1616
806.247742,1559
806.366577,1582
806.485413,1586
806.604309,1581
806.723145,1557
806.84198,1586
806.960876,1549
807.079712,1548
807.198486,1569
807.317383,1582
807.436218,1596
807.554993,1597
807.673889,1589
807.792725,1568
807.91156,1576
808.030396,1557
808.14917,1589
808.268005,1566
808.386841,1544
808.505676,1541
808.624451,1570
808.743286,1475
808.862122,1545
808.980896,1550
809.099731,1568
809.218506,1581
809.337341,1580
809.456116,1570
809.57489,1575
809.693726,1608
809.8125,1564
809.931274,1556
810.050049,1541
810.168884,1544
810.287659,1603
810.406372,1549
810.525269,1580
810.643982,1609
810.762756,1575
810.881531,1544
811.000305,1577
811.11908,1571
811.237854,1567
811.356567,1558
811.475403,1581
811.594116,1554
811.71283,1604
811.831604,1572
811.950378,1605
812.069153,1555
812.187927,1596
812.30658,1576
812.425415,1583
812.544128,1622
812.662781,1627
812.781616,1567
812.900269,1531
813.019043,1552
813.137756,1597
813.256531,1548
813.375244,1538
813.493896,1574
813.612671,1585
813.731384,1554
813.850037,1555
813.96875,1590
814.087524,1546
814.206238,1539
814.324951,1542
814.443604,1572
814.562256,1522
814.68103,1545
814.799683,1534
814.918335,1547
815.037109,1602
815.155762,1581
815.274475,1549
815.393188,1564
815.511841,1580
815.630554,1551
815.749146,1541
815.867859,1538
815.986572,1534
816.105164,1472
816.223877,1564
816.342529,1502
816.461182,1566
816.579895,1552
816.698486,1544
816.817139,1540
816.935791,1566
817.054504,1555
817.173096,1517
817.291748,1527
817.4104,1511
817.529053,1529
817.647644,1535
817.766235,1490
817.884949,1488
818.00354,1487
818.122192,1486
818.240845,1465
818.359436,1483
818.478088,1482
818.59668,1427
818.715271,1469
818.833923,1429
818.952515,1382
819.071106,1461
819.189758,1413
819.30835,1412
819.426941,1385
819.545532,1456
819.664124,1396
819.782715,1427
819.901306,1392
820.019897,1413
820.138489,1392
820.25708,1397
820.375671,1433
820.494202,1382
820.612732,1412
820.731384,1368
820.849915,1430
820.968506,1400
821.087097,1408
821.205627,1394
821.324158,1430
821.442749,1372
821.561279,1400
821.679871,1395
821.798401,1396
821.916931,1397
822.035461,1380
822.154053,1372
822.272583,1368
822.391174,1346
822.509583,1370
822.628174,1382
822.746704,1362
822.865234,1395
822.983765,1366
823.102295,1389
823.220825,1363
823.339294,1356
823.457825,1342
823.576355,1398
823.694824,1388
823.813354,1388
823.931885,1381
824.050354,1328
824.168884,1392
824.287354,1371
824.405823,1386
824.524353,1386
824.642822,1387
824.761353,1366
824.879822,1360
824.998291,1337
825.116699,1369
825.235291,1385
825.353699,1360
825.472168,1367
825.590637,1390
825.709106,1374
825.827576,1368
825.946045,1369
826.064453,1376
826.182983,1371
826.301392,1378
826.4198,1393
826.53833,1305
826.656738,1324
826.775208,1332
826.893677,1320
827.012024,1331
827.130493,1340
827.248962,1333
827.36731,1364
827.485779,1327
827.604248,1336
827.722595,1348
827.841064,1343
827.959412,1346
828.077942,1312
828.196289,1325
828.314636,1330
828.433105,1350
828.551514,1315
828.669861,1339
828.78833,1345
828.906677,1301
829.025085,1349
829.143433,1337
829.261841,1355
829.38031,1299
829.498657,1352
829.617004,1356
829.735413,1318
829.85376,1305
829.972107,1308
830.090515,1315
830.208862,1353
830.327209,1288
830.445557,1298
830.563904,1269
830.682312,1354
830.800659,1311
830.919006,1342
831.037354,1323
831.155701,1371
831.274048,1288
831.392395,1351
831.51062,1320
831.629028,1310
831.747314,1347
831.865662,1309
831.984009,1308
832.102356,1323
832.220642,1312
832.338928,1312
832.457275,1337
832.575623,1324
832.693909,1322
832.812134,1293
832.930481,1349
833.048828,1314
833.167114,1323
833.2854,1351
833.403687,1339
833.521973,1315
833.640259,1320
833.758545,1357
833.876831,1284
833.995056,1343
834.113281,1292
834.231628,1314
834.349915,1297
834.468201,1335
834.586426,1354
834.704651,1307
834.822998,1329
834.941162,1317
835.059448,1273
835.177673,1319
835.295959,1347
835.414246,1345
835.53241,1336
835.650635,1327
835.768921,1342
835.887146,1328
836.005371,1322
836.123596,1340
836.241821,1335
836.360046,1319
836.478271,1324
836.596497,1309
836.714722,1327
836.832886,1310
836.95105,1328
837.069336,1351
837.1875,1297
837.305725,1311
837.423889,1356
837.542053,1316
837.660339,1340
837.778503,1315
837.896667,1310
838.014832,1331
838.132996,1350
838.25116,1289
838.369385,1356
838.487488,1359
838.605713,1319
838.723877,1328
838.84198,1315
838.960205,1320
839.078308,1333
839.196472,1316
839.314636,1314
839.4328,1308
839.550964,1361
839.669067,1332
839.787231,1333
839.905396,1318
840.023499,1339
840.141602,1341
840.259766,1349
840.377869,1334
840.495972,1316
840.614136,1361
840.732239,1323
840.850342,1361
840.968445,1319
841.086548,1342
841.204651,1311
841.322754,1331
841.440918,1317
841.55896,1317
841.677002,1310
841.795166,1282
841.913208,1312
842.031311,1343
842.149353,1305
842.267456,1292
842.385498,1363
842.503601,1300
842.621643,1309
842.739746,1313
842.857788,1344
842.97583,1328
843.093933,1336
843.211975,1331
843.330017,1313
843.44812,1261
843.566101,1295
843.684204,1294
843.802246,1308
843.920227,1292
844.038269,1303
844.156311,1331
844.274292,1342
844.392395,1307
844.510376,1308
844.628357,1283
844.74646,1319
844.864441,1351
844.982422,1304
845.100403,1324
845.218384,1318
845.336426,1303
845.454468,1364
845.572449,1300
845.69043,1295
845.808411,1349
845.926453,1298
846.044373,1309
846.162354,1311
846.280396,1313
846.398315,1287
846.516296,1282
846.634216,1330
846.752197,1268
846.870178,1314
846.988098,1325
847.106079,1306
847.22406,1259
847.34198,1312
847.4599,1320
847.577881,1295
847.695801,1289
847.813782,1317
847.931641,1309
848.049561,1304
848.167603,1276
848.285461,1326
848.403381,1326
848.521362,1303
848.639221,1311
848.75708,1313
848.875,1279
848.99292,1317
849.110901,1310
849.22876,1302
849.34668,1309
849.464539,1327
849.582458,1314
849.700317,1316
849.818176,1319
849.936096,1334
850.053955,1360
850.171875,1328
850.289673,1304
850.407593,1322
850.525452,1314
850.643311,1317
850.761169,1301
850.878967,1365
850.996887,1327
851.114746,1313
851.232544,1319
851.350403,1307
851.468262,1330
851.58606,1298
851.703979,1303
851.821777,1376
851.939636,1308
852.057434,1317
852.175232,1336
852.293091,1310
852.410889,1308
852.528687,1294
852.646545,1299
852.764343,1332
852.88208,1346
852.999939,1343
853.117676,1304
853.235535,1352
853.353271,1354
853.471069,1329
853.588928,1310
853.706604,1326
853.824402,1345
853.9422,1315
854.059998,1336
854.177734,1336
854.295532,1295
854.413269,1344
854.531006,1343
854.648804,1319
854.766541,1286
854.884277,1355
855.002014,1312
855.119751,1341
855.237549,1358
855.355225,1315
855.473022,1333
855.590698,1321
855.708435,1294
855.826172,1284
855.943848,1329
856.061646,1354
856.179321,1320
856.296997,1326
856.414795,1333
856.53241,1324
856.650085,1317
856.767822,1292
856.885559,1305
857.003174,1301
857.120911,1332
857.238586,1327
857.356201,1324
857.473938,1348
857.591614,1359
857.709351,1358
857.826965,1313
857.944641,1324
858.062317,1336
858.179993,1350
858.297668,1328
858.415283,1335
858.532959,1346
858.650574,1324
858.768188,1350
858.885803,1344
859.003479,1287
859.121094,1345
859.23877,1292
859.356384,1333
859.473999,1332
859.591675,1347
859.709229,1348
859.826843,1329
859.944458,1302
860.062012,1341
860.179626,1343
860.297302,1366
860.414856,1340
860.532471,1354
860.650024,1315
860.767639,1295
860.885193,1304
861.002808,1308
861.120361,1334
861.237976,1353
861.35553,1366
861.473022,1315
861.590698,1335
861.708191,1329
861.825745,1346
861.943298,1358
862.060852,1273
862.178406,1356
862.295959,1321
862.413513,1347
862.531006,1308
862.64856,1326
862.766113,1305
862.883667,1311
863.00116,1316
863.118713,1360
863.236206,1318
863.353699,1333
863.471252,1338
863.588745,1360
863.706177,1362
863.82373,1292
863.941162,1346
864.058716,1311
864.176208,1340
864.29364,1354
864.411194,1327
864.528687,1336
864.646118,1360
864.763611,1280
864.881042,1356
864.998535,1352
865.116028,1332
865.233459,1339
865.350891,1315
865.468384,1329
865.585754,1334
865.703308,1333
865.820679,1302
865.938171,1363
866.055542,1321
866.173035,1333
866.290466,1350
866.407837,1342
866.52533,1329
866.6427,1331
866.760071,1334
866.877563,1306
866.994934,1352
867.112305,1325
867.229736,1367
867.347107,1331
867.464539,1347
867.58197,1327
867.699341,1332
867.81665,1339
867.934082,1363
868.051453,1328
868.168823,1353
868.286194,1346
868.403564,1315
868.520935,1361
868.638306,1330
868.755676,1335
868.872986,1370
868.990295,1378
869.107727,1351
869.225037,1336
869.342346,1392
869.459717,1368
869.577026,1369
869.694336,1340
869.811707,1361
869.929016,1368
870.046326,1349
870.163635,1401
870.280945,1325
870.398254,1342
870.515564,1365
870.632812,1323
870.750183,1349
870.867432,1349
870.984741,1333
871.102051,1338
871.219299,1325
871.336609,1352
871.453918,1343
871.571106,1381
871.688416,1381
871.805664,1348
871.922852,1365
872.040222,1291
872.157471,1402
872.274719,1390
872.391968,1382
872.509155,1362
872.626465,1369
872.743652,1316
872.860962,1362
872.978149,1338
873.095337,1317
873.212646,1341
873.329834,1350
873.44696,1367
873.564209,1326
873.681396,1356
873.798645,1384
873.915894,1342
874.03302,1310
874.150208,1367
874.267456,1349
874.384583,1361
874.501831,1347
874.618958,1316
874.736145,1382
874.853333,1304
874.970459,1357
875.087646,1332
875.204834,1364
875.32196,1345
875.439148,1349
875.556274,1348
875.673401,1385
875.790527,1316
875.907715,1381
876.024841,1371
876.141968,1353
876.259094,1302
876.376282,1337
876.493347,1365
876.610474,1375
876.7276,1346
876.844727,1358
876.961853,1342
877.078918,1412
877.195984,1333
877.313171,1370
877.430237,1399
877.547302,1390
877.664368,1343
877.781433,1356
877.898499,1346
878.015625,1360
878.13269,1349
878.249695,1392
878.366821,1346
878.483887,1353
878.600952,1347
878.717957,1346
878.834961,1383
878.952087,1382
879.069092,1348
879.186157,1354
879.303162,1347
879.420227,1363
879.537231,1351
879.654236,1361
879.77124,1371
879.888306,1368
880.005249,1371
880.122314,1388
880.239319,1380
880.356323,1370
880.473328,1385
880.590271,1367
880.707275,1397
880.824341,1337
880.941284,1383
881.058228,1348
881.175232,1374
881.292236,1341
881.40918,1337
881.526123,1381
881.643066,1387
881.760071,1365
881.877014,1355
881.993958,1368
882.11084,1368
882.227783,1384
882.344727,1353
882.46167,1364
882.578613,1350
882.695618,1358
882.812439,1397
882.929382,1290
883.046326,1410
883.163208,1296
883.280151,1327
883.397034,1374
883.513916,1375
883.630798,1336
883.747742,1357
883.864563,1384
883.981506,1411
884.098389,1329
884.21521,1354
884.332153,1375
884.448975,1357
884.565796,1333
884.682678,1388
884.7995,1381
884.916443,1376
885.033264,1389
885.150085,1373
885.266968,1388
885.383789,1402
885.500671,1365
885.617493,1445
885.734314,1413
885.851196,1362
885.967896,1407
886.084717,1411
886.201599,1388
886.318359,1433
886.435181,1391
886.552002,1366
886.668762,1413
886.785645,1365
886.902344,1391
887.019165,1462
887.135925,1384
887.252747,1358
887.369446,1427
887.486267,1376
887.603027,1376
887.719788,1387
887.836548,1364
887.953247,1394
888.070068,1386
888.186829,1370
888.303528,1372
888.420288,1411
888.536987,1374
888.653687,1407
888.770447,1411
888.887146,1416
889.003967,1412
889.120667,1397
889.237305,1413
889.354065,1389
889.470703,1419
889.587463,1383
889.704163,1383
889.820862,1448
889.937561,1382
890.054199,1412
890.170837,1381
890.287598,1389
890.404236,1388
890.520874,1365
890.637634,1431
890.754211,1415
890.87085,1382
890.987549,1395
891.104187,1389
891.220886,1408
891.337463,1367
891.454102,1407
891.57074,1425
891.687378,1425
891.804077,1479
891.920654,1394
892.037231,1395
892.15387,1413
892.270447,1418
892.387085,1405
892.503723,1401
892.6203,1400
892.736877,1419
892.853516,1391
892.970032,1429
893.08667,1406
893.203186,1422
893.319763,1410
893.43634,1433
893.552917,1405
893.669556,1423
893.786011,1395
893.902588,1411
894.019165,1415
894.135681,1365
894.252197,1384
894.368835,1418
894.485291,1395
894.601868,1406
894.718384,1383
894.8349,1440
894.951355,1435
895.067932,1431
895.184448,1441
895.300964,1428
895.417419,1469
895.533936,1422
895.650452,1408
895.766907,1420
895.883423,1490
895.999878,1397
896.116333,1417
896.232849,1420
896.349304,1442
896.465759,1412
896.582214,1400
896.698669,1426
896.815125,1403
896.931641,1396
897.048035,1433
897.164551,1433
897.280884,1410
897.397339,1463
897.513794,1416
897.630249,1384
897.746582,1401
897.863098,1436
897.979431,1435
898.095886,1413
898.212341,1412
898.328674,1455
898.445129,1445
898.561462,1444
898.677795,1468
898.794312,1430
898.910645,1435
899.026978,1403
899.143433,1421
899.259766,1453
899.37616,1458
899.492493,1432
899.608765,1444
899.725159,1414
899.841553,1460
899.957947,1404
900.07428,1441
900.190552,1438
900.306946,1439
900.423157,1440
900.53949,1419
900.655884,1439
900.772156,1459
900.888489,1437
901.004822,1449
901.121033,1414
901.237366,1407
901.353699,1430
901.46991,1401
901.586304,1428
901.702515,1433
901.818787,1435
901.93512,1459
902.051331,1424
902.167603,1434
902.283875,1444
902.400085,1402
902.516418,1481
902.632629,1428
902.74884,1460
902.865112,1460
902.981384,1455
903.097595,1459
903.213867,1459
903.330017,1436
903.446289,1458
903.5625,1441
903.67865,1447
903.794922,1469
903.911072,1461
904.027344,1429
904.143494,1467
904.259705,1456
904.375916,1427
904.492065,1442
904.608215,1459
904.724426,1469
904.840576,1426
904.956726,1473
905.072876,1418
905.189087,1445
905.305176,1468
905.421387,1432
905.537537,1493
905.653687,1434
905.769775,1433
905.885925,1426
906.002014,1500
906.118164,1469
906.234314,1426
906.350403,1433
906.466492,1474
906.582642,1480
906.69873,1466
906.814758,1424
906.930908,1479
907.046936,1449
907.163086,1499
907.279175,1440
907.395264,1450
907.511353,1443
907.62738,1425
907.743408,1436
907.859497,1470
907.975525,1493
908.091553,1442
908.207703,1503
908.32373,1445
908.439758,1489
908.555786,1456
908.671814,1450
908.787842,1427
908.90387,1441
909.019775,1452
909.135864,1452
909.251892,1501
909.367859,1446
909.483826,1515
909.599854,1462
909.715881,1496
909.831848,1474
909.947815,1472
910.063782,1468
910.179749,1450
910.295776,1467
910.411743,1462
910.527649,1479
910.643616,1507
910.759583,1486
910.875488,1433
910.991455,1455
911.107361,1466
911.223267,1470
911.339294,1476
911.4552,1454
911.571106,1414
911.687073,1418
911.802979,1488
911.918823,1459
912.034729,1438
912.150635,1465
912.266602,1474
912.382446,1482
912.498352,1462
912.614197,1431
912.730103,1415
912.846008,1475
792.44574,1824
792.56488,1825
792.68396,1868
792.80304,1736
792.92218,1735
793.041199,1782
793.160339,1725
793.279419,1707
793.398499,1760
793.517578,1724
793.636658,1722
793.755737,1702
793.874817,1730
793.993896,1667
794.112976,1682
794.232056,1660
794.351074,1686
794.470215,1645
794.589233,1683
794.708313,1709
794.827393,1650
794.946411,1646
795.065552,1674
795.18457,1611
795.303589,1665
795.422668,1649
795.541687,1651
795.660767,1661
795.779846,1631
795.898865,1646
796.017883,1623
796.136963,1591
796.255981,1597
796.375061,1607
796.49408,1641
796.613037,1623
796.732117,1644
796.851135,1597
796.970154,1657
797.089233,1596
797.208191,1589
797.327271,1609
797.446228,1631
797.565186,1611
797.684265,1615
797.803223,1598
797.922241,1577
798.04126,1602
798.160278,1570
798.279297,1592
798.398315,1640
798.517273,1611
798.636292,1572
798.75531,1575
798.874268,1567
798.993286,1616
799.112244,1623
799.231323,1590
799.350281,1599
799.469238,1584
799.588257,1573
799.707153,1563
799.826111,1622
799.945129,1552
800.064087,1568
800.183044,1556
800.302063,1583
800.421021,1589
800.539978,1533
800.658936,1590
800.777893,1570
800.896912,1575
801.015747,1583
801.134705,1598
801.253723,1582
801.37262,1551
801.491638,1560
801.610535,1570
801.729492,1578
801.84845,1596
801.967407,1593
802.086243,1534
802.205261,1567
802.324158,1597
802.443115,1605
802.562073,1594
802.680969,1560
802.799927,1589
802.918762,1565
803.037659,1589
803.156677,1554
803.275574,1566
803.39447,1508
803.513428,1587
803.632263,1591
803.751221,1606
803.870117,1527
803.989014,1540
804.107971,1542
804.226746,1569
804.345642,1567
804.4646,1560
804.583496,1588
804.702393,1581
804.821228,1577
804.940125,1564
805.059021,1556
805.177917,1598
805.296814,1556
805.415649,1609
805.534546,1550
805.653442,1579
805.772278,1574
805.891113,1572
806.01001,1575
806.128906,1572
806.247742,1609
806.366577,1591
806.485413,1582
806.604309,1589
806.723145,1627
806.84198,1584
806.960876,1583
807.079712,1613
807.198486,1567
807.317383,1547
807.436218,1581
807.554993,1559
807.673889,1581
807.792725,1562
807.91156,1593
808.030396,1595
808.14917,1541
808.268005,1556
808.386841,1596
808.505676,1581
808.624451,1602
808.743286,1557
808.862122,1562
808.980896,1596
809.099731,1563
809.218506,1509
809.337341,1580
809.456116,1574
809.57489,1611
809.693726,1610
809.8125,1625
809.931274,1568
810.050049,1590
810.168884,1574
810.287659,1548
810.406372,1548
810.525269,1596
810.643982,1561
810.762756,1587
810.881531,1595
811.000305,1529
811.11908,1550
811.237854,1598
811.356567,1597
811.475403,1662
811.594116,1582
811.71283,1543
811.831604,1591
811.950378,1597
812.069153,1610
812.187927,1587
812.30658,1597
812.425415,1582
812.544128,1591
812.662781,1596
812.781616,1571
812.900269,1589
813.019043,1630
813.137756,1555
813.256531,1589
813.375244,1569
813.493896,1536
813.612671,1564
813.731384,1539
813.850037,1581
813.96875,1565
814.087524,1572
814.206238,1542
814.324951,1586
814.443604,1562
814.562256,1523
814.68103,1573
814.799683,1540
814.918335,1524
815.037109,1553
815.155762,1585
815.274475,1545
815.393188,1530
815.511841,1605
815.630554,1541
815.749146,1574
815.867859,1514
815.986572,1549
816.105164,1535
816.223877,1564
816.342529,1547
816.461182,1569
816.579895,1543
816.698486,1536
816.817139,1519
816.935791,1600
817.054504,1515
817.173096,1546
817.291748,1524
817.4104,1518
817.529053,1535
817.647644,1477
817.766235,1496
817.884949,1506
818.00354,1492
818.122192,1475
818.240845,1478
818.359436,1495
818.478088,1438
818.59668,1450
818.715271,1470
818.833923,1441
818.952515,1453
819.071106,1439
819.189758,1424
819.30835,1456
819.426941,1454
819.545532,1426
819.664124,1437
819.782715,1397
819.901306,1418
820.019897,1425
820.138489,1474
820.25708,1401
820.375671,1383
820.494202,1415
820.612732,1398
820.731384,1386
820.849915,1400
820.968506,1382
821.087097,1393
821.205627,1389
821.324158,1397
821.442749,1403
821.561279,1383
821.679871,1364
821.798401,1383
821.916931,1409
822.035461,1432
822.154053,1401
822.272583,1357
822.391174,1409
822.509583,1377
822.628174,1357
822.746704,1398
822.865234,1347
822.983765,1359
823.102295,1398
823.220825,1404
823.339294,1356
823.457825,1386
823.576355,1374
823.694824,1401
823.813354,1353
823.931885,1393
824.050354,1363
824.168884,1384
824.287354,1370
824.405823,1353
824.524353,1376
824.642822,1397
824.761353,1362
824.879822,1363
824.998291,1376
825.116699,1337
825.235291,1356
825.353699,1390
825.472168,1359
825.590637,1417
825.709106,1372
825.827576,1375
825.946045,1374
826.064453,1387
826.182983,1398
826.301392,1328
826.4198,1342
826.53833,1388
826.656738,1368
826.775208,1382
826.893677,1344
827.012024,1342
827.130493,1345
827.248962,1350
827.36731,1380
827.485779,1340
827.604248,1339
827.722595,1344
827.841064,1327
827.959412,1306
828.077942,1352
828.196289,1349
828.314636,1317
828.433105,1334
828.551514,1353
828.669861,1352
828.78833,1291
828.906677,1315
829.025085,1335
829.143433,1342
829.261841,1305
829.38031,1353
829.498657,1323
829.617004,1344
829.735413,1328
829.85376,1405
829.972107,1337
830.090515,1346
830.208862,1355
830.327209,1324
830.445557,1331
830.563904,1331
830.682312,1348
830.800659,1338
830.919006,1319
831.037354,1343
831.155701,1315
831.274048,1316
831.392395,1313
831.51062,1350
831.629028,1326
831.747314,1355
831.865662,1353
831.984009,1311
832.102356,1353
832.220642,1337
832.338928,1292
832.457275,1341
832.575623,1346
832.693909,1292
832.812134,1370
832.930481,1312
833.048828,1324
833.167114,1327
833.2854,1382
833.403687,1343
833.521973,1322
833.640259,1328
833.758545,1340
833.876831,1283
833.995056,1332
834.113281,1333
834.231628,1342
834.349915,1351
834.468201,1349
834.586426,1341
834.704651,1300
834.822998,1362
834.941162,1364
835.059448,1305
835.177673,1332
835.295959,1335
835.414246,1383
835.53241,1302
835.650635,1328
835.768921,1318
835.887146,1342
836.005371,1332
836.123596,1332
836.241821,1332
836.360046,1319
836.478271,1341
836.596497,1352
836.714722,1291
836.832886,1406
836.95105,1294
837.069336,1343
837.1875,1373
837.305725,1378
837.423889,1316
837.542053,1337
837.660339,1331
837.778503,1323
837.896667,1340
838.014832,1351
838.132996,1312
838.25116,1337
838.369385,1338
838.487488,1315
838.605713,1340
838.723877,1336
838.84198,1378
838.960205,1344
839.078308,1334
839.196472,1310
839.314636,1334
839.4328,1338
839.550964,1361
839.669067,1327
839.787231,1316
839.905396,1363
840.023499,1331
840.141602,1339
840.259766,1319
840.377869,1299
840.495972,1330
840.614136,1315
840.732239,1298
840.850342,1336
840.968445,1347
841.086548,1310
841.204651,1324
841.322754,1326
841.440918,1310
841.55896,1329
841.677002,1338
841.795166,1325
841.913208,1290
842.031311,1333
842.149353,1325
842.267456,1338
842.385498,1345
842.503601,1323
842.621643,1326
842.739746,1302
842.857788,1349
842.97583,1343
843.093933,1306
843.211975,1314
843.330017,1349
843.44812,1274
843.566101,1346
843.684204,1332
843.802246,1287
843.920227,1317
844.038269,1340
844.156311,1327
844.274292,1329
844.392395,1355
844.510376,1332
844.628357,1323
844.74646,1332
844.864441,1313
844.982422,1324
845.100403,1348
845.218384,1319
845.336426,1314
845.454468,1300
845.572449,1325
845.69043,1330
845.808411,1293
845.926453,1291
846.044373,1314
846.162354,1335
846.280396,1297
846.398315,1315
846.516296,1309
846.634216,1352
846.752197,1326
846.870178,1321
846.988098,1289
847.106079,1313
847.22406,1318
847.34198,1336
847.4599,1370
847.577881,1297
847.695801,1307
847.813782,1332
847.931641,1296
848.049561,1320
848.167603,1305
848.285461,1319
848.403381,1336
848.521362,1316
848.639221,1353
848.75708,1315
848.875,1342
848.99292,1283
849.110901,1353
849.22876,1346
849.34668,1321
849.464539,1340
849.582458,1324
849.700317,1300
849.818176,1352
849.936096,1308
850.053955,1327
850.171875,1330
850.289673,1348
850.407593,1337
850.525452,1344
850.643311,1346
850.761169,1339
850.878967,1284
850.996887,1346
851.114746,1335
851.232544,1314
851.350403,1302
851.468262,1353
851.58606,1295
851.703979,1366
851.821777,1312
851.939636,1325
852.057434,1330
852.175232,1316
852.293091,1353
852.410889,1302
852.528687,1331
852.646545,1361
852.764343,1322
852.88208,1354
852.999939,1326
853.117676,1362
853.235535,1318
853.353271,1376
853.471069,1329
853.588928,1297
853.706604,1305
853.824402,1352
853.9422,1334
854.059998,1300
854.177734,1309
854.295532,1349
854.413269,1343
854.531006,1323
854.648804,1343
854.766541,1311
854.884277,1342
855.002014,1320
855.119751,1332
855.237549,1333
855.355225,1322
855.473022,1345
855.590698,1344
855.708435,1303
855.826172,1337
855.943848,1281
856.061646,1338
856.179321,1349
856.296997,1314
856.414795,1334
856.53241,1348
856.650085,1297
856.767822,1328
856.885559,1338
857.003174,1322
857.120911,1353
857.238586,1346
857.356201,1336
857.473938,1343
857.591614,1361
857.709351,1305
857.826965,1315
857.944641,1330
858.062317,1350
858.179993,1332
858.297668,1365
858.415283,1351
858.532959,1321
858.650574,1344
858.768188,1319
858.885803,1368
859.003479,1330
859.121094,1360
859.23877,1322
859.356384,1324
859.473999,1357
859.591675,1337
859.709229,1341
859.826843,1323
859.944458,1310
860.062012,1316
860.179626,1335
860.297302,1361
860.414856,1352
860.532471,1278
860.650024,1322
860.767639,1355
860.885193,1360
861.002808,1329
861.120361,1389
861.237976,1294
861.35553,1325
861.473022,1290
861.590698,1342
861.708191,1307
861.825745,1323
861.943298,1264
862.060852,1388
862.178406,1323
862.295959,1355
862.413513,1331
862.531006,1341
862.64856,1378
862.766113,1351
862.883667,1357
863.00116,1318
863.118713,1361
863.236206,1326
863.353699,1305
863.471252,1329
863.588745,1323
863.706177,1348
863.82373,1320
863.941162,1312
864.058716,1343
864.176208,1305
864.29364,1360
864.411194,1374
864.528687,1331
864.646118,1359
864.763611,1312
864.881042,1346
864.998535,1337
865.116028,1368
865.233459,1345
865.350891,1359
865.468384,1336
865.585754,1317
865.703308,1333
865.820679,1341
865.938171,1375
866.055542,1379
866.173035,1323
866.290466,1314
866.407837,1364
866.52533,1359
866.6427,1328
866.760071,1330
866.877563,1347
866.994934,1339
867.112305,1355
867.229736,1355
867.347107,1382
867.464539,1374
867.58197,1382
867.699341,1354
867.81665,1362
867.934082,1381
868.051453,1350
868.168823,1326
868.286194,1376
868.403564,1341
868.520935,1343
868.638306,1347
868.755676,1346
868.872986,1323
868.990295,1348
869.107727,1372
869.225037,1366
869.342346,1319
869.459717,1337
869.577026,1353
869.694336,1356
869.811707,1390
869.929016,1317
870.046326,1386
870.163635,1406
870.280945,1378
870.398254,1368
870.515564,1355
870.632812,1349
870.750183,1352
870.867432,1352
870.984741,1347
871.102051,1335
871.219299,1310
871.336609,1379
871.453918,1347
871.571106,1342
871.688416,1365
871.805664,1366
871.922852,1363
872.040222,1354
872.157471,1343
872.274719,1355
872.391968,1358
872.509155,1337
872.626465,1337
872.743652,1366
872.860962,1342
872.978149,1346
873.095337,1350
873.212646,1384
873.329834,1364
873.44696,1371
873.564209,1385
873.681396,1349
873.798645,1360
873.915894,1398
874.03302,1359
874.150208,1377
874.267456,1380
874.384583,1395
874.501831,1367
874.618958,1326
874.736145,1314
874.853333,1322
874.970459,1390
875.087646,1393
875.204834,1344
875.32196,1334
875.439148,1324
875.556274,1364
875.673401,1418
875.790527,1343
875.907715,1372
876.024841,1356
876.141968,1404
876.259094,1389
876.376282,1404
876.493347,1382
876.610474,1368
876.7276,1366
876.844727,1414
876.961853,1334
877.078918,1408
877.195984,1382
877.313171,1369
877.430237,1371
877.547302,1368
877.664368,1429
877.781433,1403
877.898499,1363
878.015625,1394
878.13269,1360
878.249695,1363
878.366821,1368
878.483887,1374
878.600952,1345
878.717957,1365
878.834961,1335
878.952087,1364
879.069092,1346
879.186157,1406
879.303162,1388
879.420227,1390
879.537231,1388
879.654236,1375
879.77124,1358
879.888306,1374
880.005249,1380
880.122314,1372
880.239319,1401
880.356323,1373
880.473328,1381
880.590271,1322
880.707275,1380
880.824341,1352
880.941284,1368
881.058228,1367
881.175232,1409
881.292236,1333
881.40918,1401
881.526123,1352
881.643066,1400
881.760071,1388
881.877014,1394
881.993958,1363
882.11084,1390
882.227783,1413
882.344727,1375
882.46167,1388
882.578613,1370
882.695618,1393
882.812439,1337
882.929382,1362
883.046326,1372
883.163208,1408
883.280151,1357
883.397034,1362
883.513916,1428
883.630798,1351
883.747742,1353
883.864563,1362
883.981506,1382
884.098389,1346
884.21521,1370
884.332153,1390
884.448975,1348
884.565796,1446
884.682678,1398
884.7995,1383
884.916443,1321
885.033264,1436
885.150085,1382
885.266968,1401
885.383789,1390
885.500671,1455
885.617493,1368
885.734314,1451
885.851196,1388
885.967896,1416
886.084717,1386
886.201599,1418
886.318359,1420
886.435181,1394
886.552002,1402
886.668762,1421
886.785645,1410
886.902344,1403
887.019165,1417
887.135925,1414
887.252747,1374
887.369446,1412
887.486267,1395
887.603027,1406
887.719788,1448
887.836548,1379
887.953247,1358
888.070068,1410
888.186829,1381
888.303528,1398
888.420288,1380
888.536987,1394
888.653687,1365
888.770447,1410
888.887146,1389
889.003967,1408
889.120667,1407
889.237305,1389
889.354065,1395
889.470703,1396
889.587463,1375
889.704163,1426
889.820862,1381
889.937561,1359
890.054199,1386
890.170837,1458
890.287598,1415
890.404236,1397
890.520874,1432
890.637634,1421
890.754211,1416
890.87085,1360
890.987549,1427
891.104187,1403
891.220886,1410
891.337463,1432
891.454102,1441
891.57074,1357
891.687378,1420
891.804077,1428
891.920654,1447
892.037231,1389
892.15387,1438
892.270447,1436
892.387085,1428
892.503723,1396
892.6203,1422
892.736877,1411
892.853516,1407
892.970032,1447
893.08667,1402
893.203186,1459
893.319763,1445
893.43634,1441
893.552917,1407
893.669556,1470
893.786011,1399
893.902588,1469
894.019165,1462
894.135681,1430
894.252197,1456
894.368835,1473
894.485291,1443
894.601868,1468
894.718384,1405
894.8349,1418
894.951355,1408
895.067932,1439
895.184448,1408
895.300964,1451
895.417419,1428
895.533936,1437
895.650452,1415
895.766907,1474
895.883423,1428
895.999878,1447
896.116333,1435
896.232849,1417
896.349304,1472
896.465759,1422
896.582214,1420
896.698669,1455
896.815125,1452
896.931641,1441
897.048035,1438
897.164551,1408
897.280884,1482
897.397339,1451
897.513794,1436
897.630249,1409
897.746582,1457
897.863098,1480
897.979431,1412
898.095886,1470
898.212341,1414
898.328674,1429
898.445129,1431
898.561462,1432
898.677795,1467
898.794312,1420
898.910645,1422
899.026978,1434
899.143433,1406
899.259766,1414
899.37616,1466
899.492493,1443
899.608765,1411
899.725159,1487
899.841553,1447
899.957947,1476
900.07428,1445
900.190552,1452
900.306946,1478
900.423157,1410
900.53949,1440
900.655884,1464
900.772156,1413
900.888489,1450
901.004822,1422
901.121033,1461
901.237366,1437
901.353699,1429
901.46991,1475
901.586304,1466
901.702515,1439
901.818787,1422
901.93512,1450
902.051331,1469
902.167603,1428
902.283875,1454
902.400085,1472
902.516418,1458
902.632629,1440
902.74884,1455
902.865112,1445
902.981384,1471
903.097595,1440
903.213867,1457
903.330017,1463
903.446289,1466
903.5625,1509
903.67865,1484
903.794922,1498
903.911072,1441
904.027344,1478
904.143494,1486
904.259705,1490
904.375916,1462
904.492065,1467
904.608215,1475
904.724426,1456
904.840576,1471
904.956726,1441
905.072876,1491
905.189087,1447
905.305176,1432
905.421387,1459
905.537537,1467
905.653687,1446
905.769775,1445
905.885925,1463
906.002014,1449
906.118164,1456
906.234314,1435
906.350403,1473
906.466492,1457
906.582642,1472
906.69873,1458
906.814758,1503
906.930908,1469
907.046936,1440
907.163086,1467
907.279175,1483
907.395264,1449
907.511353,1445
907.62738,1456
907.743408,1474
907.859497,1466
907.975525,1477
908.091553,1475
908.207703,1422
908.32373,1463
908.439758,1456
908.555786,1479
908.671814,1476
908.787842,1413
908.90387,1551
909.019775,1447
909.135864,1483
909.251892,1462
909.367859,1510
909.483826,1489
909.599854,1480
909.715881,1483
909.831848,1450
909.947815,1476
910.063782,1509
910.179749,1464
910.295776,1458
910.411743,1460
910.527649,1489
910.643616,1495
910.759583,1509
910.875488,1496
910.991455,1448
911.107361,1488
911.223267,1447
911.339294,1476
911.4552,1460
911.571106,1491
911.687073,1427
911.802979,1466
911.918823,1487
912.034729,1498
912.150635,1452
912.266602,1513
912.382446,1489
912.498352,1474
912.614197,1476
912.730103,1505
912.846008,1484
