792.44574,3684
792.56488,3554
792.68396,3461
792.80304,3421
792.92218,3244
793.041199,3238
793.160339,3110
793.279419,3116
793.398499,3030
793.517578,2963
793.636658,2898
793.755737,2929
793.874817,2843
793.993896,2794
794.112976,2780
794.232056,2684
794.351074,2680
794.470215,2627
794.589233,2592
794.708313,2575
794.827393,2604
794.946411,2503
795.065552,2449
795.18457,2447
795.303589,2464
795.422668,2422
795.541687,2427
795.660767,2376
795.779846,2330
795.898865,2319
796.017883,2331
796.136963,2286
796.255981,2314
796.375061,2223
796.49408,2252
796.613037,2159
796.732117,2228
796.851135,2196
796.970154,2126
797.089233,2178
797.208191,2174
797.327271,2162
797.446228,2141
797.565186,2109
797.684265,2124
797.803223,2087
797.922241,2082
798.04126,2052
798.160278,2009
798.279297,2014
798.398315,2071
798.517273,1988
798.636292,2054
798.75531,2065
798.874268,1974
798.993286,1980
799.112244,2006
799.231323,2037
799.350281,2018
799.469238,1971
799.588257,1970
799.707153,1997
799.826111,1971
799.945129,1978
800.064087,1964
800.183044,1962
800.302063,1968
800.421021,1934
800.539978,1907
800.658936,1927
800.777893,1960
800.896912,1919
801.015747,1889
801.134705,1885
801.253723,1944
801.37262,1909
801.491638,1893
801.610535,1861
801.729492,1843
801.84845,1882
801.967407,1878
802.086243,1900
802.205261,1882
802.324158,1860
802.443115,1848
802.562073,1856
802.680969,1866
802.799927,1858
802.918762,1786
803.037659,1837
803.156677,1833
803.275574,1878
803.39447,1842
803.513428,1821
803.632263,1823
803.751221,1808
803.870117,1807
803.989014,1754
804.107971,1873
804.226746,1840
804.345642,1822
804.4646,1809
804.583496,1764
804.702393,1799
804.821228,1827
804.940125,1786
805.059021,1789
805.177917,1752
805.296814,1818
805.415649,1800
805.534546,1785
805.653442,1791
805.772278,1775
805.891113,1798
806.01001,1827
806.128906,1848
806.247742,1791
806.366577,1778
806.485413,1809
806.604309,1769
806.723145,1785
806.84198,1748
806.960876,1782
807.079712,1777
807.198486,1797
807.317383,1718
807.436218,1769
807.554993,1759
807.673889,1791
807.792725,1740
807.91156,1800
808.030396,1785
808.14917,1708
808.268005,1729
808.386841,1779
808.505676,1779
808.624451,1769
808.743286,1771
808.862122,1756
808.980896,1718
809.099731,1751
809.218506,1735
809.337341,1706
809.456116,1705
809.57489,1775
809.693726,1730
809.8125,1725
809.931274,1815
810.050049,1768
810.168884,1738
810.287659,1728
810.406372,1785
810.525269,1772
810.643982,1741
810.762756,1775
810.881531,1718
811.000305,1722
811.11908,1715
811.237854,1784
811.356567,1737
811.475403,1755
811.594116,1736
811.71283,1758
811.831604,1766
811.950378,1826
812.069153,1771
812.187927,1788
812.30658,1776
812.425415,1775
812.544128,1797
812.662781,1746
812.781616,1831
812.900269,1804
813.019043,1739
813.137756,1744
813.256531,1755
813.375244,1745
813.493896,1712
813.612671,1728
813.731384,1753
813.850037,1718
813.96875,1686
814.087524,1757
814.206238,1704
814.324951,1734
814.443604,1713
814.562256,1767
814.68103,1702
814.799683,1742
814.918335,1728
815.037109,1720
815.155762,1739
815.274475,1704
815.393188,1675
815.511841,1710
815.630554,1728
815.749146,1668
815.867859,1717
815.986572,1684
816.105164,1695
816.223877,1714
816.342529,1647
816.461182,1689
816.579895,1680
816.698486,1697
816.817139,1678
816.935791,1730
817.054504,1694
817.173096,1743
817.291748,1680
817.4104,1671
817.529053,1694
817.647644,1639
817.766235,1634
817.884949,1608
818.00354,1615
818.122192,1694
818.240845,1583
818.359436,1635
818.478088,1616
818.59668,1574
818.715271,1545
818.833923,1594
818.952515,1593
819.071106,1546
819.189758,1533
819.30835,1531
819.426941,1542
819.545532,1536
819.664124,1522
819.782715,1558
819.901306,1514
820.019897,1508
820.138489,1500
820.25708,1574
820.375671,1518
820.494202,1525
820.612732,1514
820.731384,1576
820.849915,1541
820.968506,1522
821.087097,1472
821.205627,1517
821.324158,1488
821.442749,1515
821.561279,1498
821.679871,1491
821.798401,1456
821.916931,1498
822.035461,1490
822.154053,1478
822.272583,1423
822.391174,1469
822.509583,1468
822.628174,1504
822.746704,1441
822.865234,1472
822.983765,1443
823.102295,1456
823.220825,1426
823.339294,1472
823.457825,1451
823.576355,1448
823.694824,1431
823.813354,1458
823.931885,1464
824.050354,1435
824.168884,1476
824.287354,1429
824.405823,1450
824.524353,1475
824.642822,1466
824.761353,1476
824.879822,1462
824.998291,1489
825.116699,1450
825.235291,1454
825.353699,1461
825.472168,1468
825.590637,1454
825.709106,1455
825.827576,1473
825.946045,1451
826.064453,1393
826.182983,1422
826.301392,1443
826.4198,1429
826.53833,1433
826.656738,1425
826.775208,1445
826.893677,1416
827.012024,1444
827.130493,1408
827.248962,1459
827.36731,1448
827.485779,1394
827.604248,1427
827.722595,1414
827.841064,1442
827.959412,1379
828.077942,1408
828.196289,1411
828.314636,1381
828.433105,1420
828.551514,1399
828.669861,1400
828.78833,1391
828.906677,1398
829.025085,1423
829.143433,1410
829.261841,1384
829.38031,1393
829.498657,1418
829.617004,1384
829.735413,1399
829.85376,1413
829.972107,1390
830.090515,1415
830.208862,1383
830.327209,1395
830.445557,1374
830.563904,1381
830.682312,1385
830.800659,1454
830.919006,1399
831.037354,1463
831.155701,1428
831.274048,1482
831.392395,1420
831.51062,1404
831.629028,1411
831.747314,1445
831.865662,1408
831.984009,1421
832.102356,1410
832.220642,1424
832.338928,1422
832.457275,1435
832.575623,1430
832.693909,1417
832.812134,1415
832.930481,1413
833.048828,1410
833.167114,1407
833.2854,1415
833.403687,1415
833.521973,1426
833.640259,1408
833.758545,1406
833.876831,1469
833.995056,1419
834.113281,1434
834.231628,1435
834.349915,1442
834.468201,1409
834.586426,1443
834.704651,1440
834.822998,1401
834.941162,1447
835.059448,1384
835.177673,1435
835.295959,1454
835.414246,1426
835.53241,1447
835.650635,1432
835.768921,1422
835.887146,1386
836.005371,1443
836.123596,1384
836.241821,1407
836.360046,1450
836.478271,1419
836.596497,1424
836.714722,1394
836.832886,1413
836.95105,1459
837.069336,1401
837.1875,1399
837.305725,1430
837.423889,1415
837.542053,1419
837.660339,1414
837.778503,1410
837.896667,1415
838.014832,1466
838.132996,1430
838.25116,1415
838.369385,1472
838.487488,1465
838.605713,1476
838.723877,1468
838.84198,1422
838.960205,1447
839.078308,1443
839.196472,1435
839.314636,1452
839.4328,1465
839.550964,1465
839.669067,1470
839.787231,1488
839.905396,1443
840.023499,1457
840.141602,1488
840.259766,1467
840.377869,1504
840.495972,1502
840.614136,1535
840.732239,1540
840.850342,1481
840.968445,1553
841.086548,1497
841.204651,1492
841.322754,1512
841.440918,1503
841.55896,1514
841.677002,1508
841.795166,1487
841.913208,1483
842.031311,1527
842.149353,1529
842.267456,1504
842.385498,1510
842.503601,1495
842.621643,1484
842.739746,1484
842.857788,1553
842.97583,1514
843.093933,1503
843.211975,1474
843.330017,1506
843.44812,1519
843.566101,1538
843.684204,1499
843.802246,1544
843.920227,1538
844.038269,1534
844.156311,1545
844.274292,1506
844.392395,1514
844.510376,1516
844.628357,1516
844.74646,1513
844.864441,1507
844.982422,1472
845.100403,1538
845.218384,1472
845.336426,1473
845.454468,1503
845.572449,1468
845.69043,1476
845.808411,1527
845.926453,1473
846.044373,1456
846.162354,1482
846.280396,1484
846.398315,1493
846.516296,1501
846.634216,1488
846.752197,1472
846.870178,1503
846.988098,1477
847.106079,1507
847.22406,1514
847.34198,1469
847.4599,1515
847.577881,1502
847.695801,1508
847.813782,1479
847.931641,1522
848.049561,1477
848.167603,1505
848.285461,1512
848.403381,1517
848.521362,1523
848.639221,1538
848.75708,1488
848.875,1538
848.99292,1543
849.110901,1530
849.22876,1511
849.34668,1574
849.464539,1496
849.582458,1493
849.700317,1576
849.818176,1523
849.936096,1528
850.053955,1540
850.171875,1505
850.289673,1494
850.407593,1543
850.525452,1575
850.643311,1570
850.761169,1543
850.878967,1532
850.996887,1525
851.114746,1528
851.232544,1502
851.350403,1502
851.468262,1500
851.58606,1478
851.703979,1512
851.821777,1520
851.939636,1491
852.057434,1459
852.175232,1512
852.293091,1531
852.410889,1549
852.528687,1603
852.646545,1593
852.764343,1644
852.88208,1637
852.999939,1561
853.117676,1583
853.235535,1527
853.353271,1556
853.471069,1527
853.588928,1537
853.706604,1488
853.824402,1501
853.9422,1491
854.059998,1500
854.177734,1521
854.295532,1499
854.413269,1560
854.531006,1497
854.648804,1517
854.766541,1526
854.884277,1486
855.002014,1530
855.119751,1481
855.237549,1458
855.355225,1472
855.473022,1488
855.590698,1464
855.708435,1474
855.826172,1501
855.943848,1524
856.061646,1449
856.179321,1529
856.296997,1500
856.414795,1498
856.53241,1507
856.650085,1534
856.767822,1552
856.885559,1536
857.003174,1558
857.120911,1605
857.238586,1535
857.356201,1573
857.473938,1571
857.591614,1549
857.709351,1551
857.826965,1520
857.944641,1549
858.062317,1573
858.179993,1533
858.297668,1526
858.415283,1514
858.532959,1585
858.650574,1528
858.768188,1553
858.885803,1545
859.003479,1548
859.121094,1535
859.23877,1492
859.356384,1498
859.473999,1474
859.591675,1465
859.709229,1458
859.826843,1491
859.944458,1491
860.062012,1458
860.179626,1516
860.297302,1465
860.414856,1465
860.532471,1417
860.650024,1508
860.767639,1450
860.885193,1445
861.002808,1505
861.120361,1473
861.237976,1444
861.35553,1505
861.473022,1492
861.590698,1484
861.708191,1527
861.825745,1465
861.943298,1491
862.060852,1476
862.178406,1493
862.295959,1472
862.413513,1441
862.531006,1459
862.64856,1391
862.766113,1444
862.883667,1413
863.00116,1460
863.118713,1446
863.236206,1440
863.353699,1443
863.471252,1496
863.588745,1456
863.706177,1515
863.82373,1489
863.941162,1495
864.058716,1492
864.176208,1465
864.29364,1442
864.411194,1505
864.528687,1461
864.646118,1451
864.763611,1422
864.881042,1438
864.998535,1449
865.116028,1427
865.233459,1461
865.350891,1409
865.468384,1460
865.585754,1476
865.703308,1411
865.820679,1461
865.938171,1459
866.055542,1437
866.173035,1440
866.290466,1397
866.407837,1430
866.52533,1423
866.6427,1465
866.760071,1451
866.877563,1453
866.994934,1463
867.112305,1510
867.229736,1465
867.347107,1485
867.464539,1477
867.58197,1516
867.699341,1469
867.81665,1442
867.934082,1451
868.051453,1463
868.168823,1447
868.286194,1453
868.403564,1447
868.520935,1484
868.638306,1453
868.755676,1469
868.872986,1500
868.990295,1490
869.107727,1522
869.225037,1445
869.342346,1469
869.459717,1506
869.577026,1521
869.694336,1484
869.811707,1546
869.929016,1538
870.046326,1539
870.163635,1557
870.280945,1514
870.398254,1516
870.515564,1558
870.632812,1530
870.750183,1550
870.867432,1566
870.984741,1577
871.102051,1562
871.219299,1557
871.336609,1593
871.453918,1596
871.571106,1617
871.688416,1613
871.805664,1630
871.922852,1559
872.040222,1618
872.157471,1600
872.274719,1632
872.391968,1600
872.509155,1614
872.626465,1606
872.743652,1581
872.860962,1569
872.978149,1571
873.095337,1589
873.212646,1578
873.329834,1544
873.44696,1559
873.564209,1554
873.681396,1566
873.798645,1557
873.915894,1567
874.03302,1593
874.150208,1610
874.267456,1582
874.384583,1627
874.501831,1576
874.618958,1643
874.736145,1658
874.853333,1665
874.970459,1623
875.087646,1609
875.204834,1626
875.32196,1578
875.439148,1623
875.556274,1571
875.673401,1568
875.790527,1506
875.907715,1544
876.024841,1521
876.141968,1527
876.259094,1554
876.376282,1562
876.493347,1518
876.610474,1487
876.7276,1532
876.844727,1516
876.961853,1517
877.078918,1529
877.195984,1511
877.313171,1539
877.430237,1506
877.547302,1538
877.664368,1504
877.781433,1502
877.898499,1517
878.015625,1500
878.13269,1489
878.249695,1532
878.366821,1518
878.483887,1491
878.600952,1519
878.717957,1486
878.834961,1502
878.952087,1512
879.069092,1477
879.186157,1479
879.303162,1443
879.420227,1458
879.537231,1475
879.654236,1468
879.77124,1447
879.888306,1465
880.005249,1472
880.122314,1424
880.239319,1436
880.356323,1461
880.473328,1426
880.590271,1456
880.707275,1409
880.824341,1444
880.941284,1452
881.058228,1473
881.175232,1396
881.292236,1444
881.40918,1413
881.526123,1425
881.643066,1462
881.760071,1400
881.877014,1441
881.993958,1421
882.11084,1424
882.227783,1460
882.344727,1430
882.46167,1441
882.578613,1465
882.695618,1390
882.812439,1440
882.929382,1457
883.046326,1441
883.163208,1452
883.280151,1490
883.397034,1438
883.513916,1493
883.630798,1488
883.747742,1477
883.864563,1454
883.981506,1464
884.098389,1493
884.21521,1466
884.332153,1528
884.448975,1516
884.565796,1550
884.682678,1602
884.7995,1661
884.916443,1651
885.033264,1709
885.150085,1722
885.266968,1816
885.383789,1782
885.500671,1812
885.617493,1839
885.734314,1852
885.851196,1756
885.967896,1815
886.084717,1804
886.201599,1774
886.318359,1736
886.435181,1775
886.552002,1720
886.668762,1726
886.785645,1725
886.902344,1705
887.019165,1729
887.135925,1651
887.252747,1645
887.369446,1628
887.486267,1652
887.603027,1604
887.719788,1571
887.836548,1513
887.953247,1555
888.070068,1535
888.186829,1539
888.303528,1486
888.420288,1506
888.536987,1469
888.653687,1434
888.770447,1516
888.887146,1458
889.003967,1486
889.120667,1414
889.237305,1459
889.354065,1373
889.470703,1434
889.587463,1405
889.704163,1465
889.820862,1366
889.937561,1445
890.054199,1435
890.170837,1441
890.287598,1397
890.404236,1481
890.520874,1442
890.637634,1390
890.754211,1430
890.87085,1455
890.987549,1431
891.104187,1447
891.220886,1436
891.337463,1436
891.454102,1413
891.57074,1458
891.687378,1423
891.804077,1454
891.920654,1478
892.037231,1452
892.15387,1432
892.270447,1431
892.387085,1414
892.503723,1438
892.6203,1415
892.736877,1455
892.853516,1445
892.970032,1411
893.08667,1432
893.203186,1414
893.319763,1413
893.43634,1476
893.552917,1419
893.669556,1411
893.786011,1401
893.902588,1439
894.019165,1384
894.135681,1442
894.252197,1409
894.368835,1450
894.485291,1465
894.601868,1430
894.718384,1477
894.8349,1439
894.951355,1443
895.067932,1404
895.184448,1421
895.300964,1393
895.417419,1434
895.533936,1409
895.650452,1461
895.766907,1406
895.883423,1455
895.999878,1420
896.116333,1425
896.232849,1450
896.349304,1398
896.465759,1433
896.582214,1418
896.698669,1423
896.815125,1450
896.931641,1396
897.048035,1427
897.164551,1466
897.280884,1441
897.397339,1413
897.513794,1432
897.630249,1417
897.746582,1404
897.863098,1427
897.979431,1428
898.095886,1418
898.212341,1440
898.328674,1455
898.445129,1481
898.561462,1476
898.677795,1418
898.794312,1454
898.910645,1399
899.026978,1451
899.143433,1457
899.259766,1415
899.37616,1460
899.492493,1434
899.608765,1435
899.725159,1427
899.841553,1471
899.957947,1452
900.07428,1476
900.190552,1487
900.306946,1435
900.423157,1475
900.53949,1501
900.655884,1445
900.772156,1492
900.888489,1430
901.004822,1506
901.121033,1500
901.237366,1453
901.353699,1523
901.46991,1465
901.586304,1496
901.702515,1512
901.818787,1501
901.93512,1491
902.051331,1600
902.167603,1601
902.283875,1594
902.400085,1581
902.516418,1661
902.632629,1629
902.74884,1604
902.865112,1686
902.981384,1701
903.097595,1643
903.213867,1615
903.330017,1603
903.446289,1615
903.5625,1600
903.67865,1608
903.794922,1586
903.911072,1606
904.027344,1575
904.143494,1560
904.259705,1557
904.375916,1532
904.492065,1516
904.608215,1507
904.724426,1532
904.840576,1499
904.956726,1463
905.072876,1488
905.189087,1475
905.305176,1489
905.421387,1499
905.537537,1455
905.653687,1468
905.769775,1469
905.885925,1439
906.002014,1422
906.118164,1401
906.234314,1464
906.350403,1465
906.466492,1456
906.582642,1468
906.69873,1459
906.814758,1439
906.930908,1471
907.046936,1426
907.163086,1443
907.279175,1480
907.395264,1405
907.511353,1451
907.62738,1455
907.743408,1414
907.859497,1442
907.975525,1467
908.091553,1519
908.207703,1418
908.32373,1416
908.439758,1460
908.555786,1452
908.671814,1467
908.787842,1454
908.90387,1494
909.019775,1462
909.135864,1429
909.251892,1460
909.367859,1473
909.483826,1444
909.599854,1475
909.715881,1475
909.831848,1423
909.947815,1436
910.063782,1458
910.179749,1464
910.295776,1461
910.411743,1487
910.527649,1422
910.643616,1458
910.759583,1440
910.875488,1532
910.991455,1474
911.107361,1449
911.223267,1452
911.339294,1473
911.4552,1429
911.571106,1456
911.687073,1448
911.802979,1492
911.918823,1423
912.034729,1432
912.150635,1423
912.266602,1468
912.382446,1391
912.498352,1428
912.614197,1415
912.730103,1416
912.846008,1406
792.44574,3677
792.56488,3512
792.68396,3546
792.80304,3343
792.92218,3282
793.041199,3230
793.160339,3230
793.279419,3136
793.398499,2998
793.517578,3041
793.636658,2937
793.755737,2895
793.874817,2833
793.993896,2851
794.112976,2796
794.232056,2789
794.351074,2665
794.470215,2685
794.589233,2664
794.708313,2529
794.827393,2539
794.946411,2530
795.065552,2508
795.18457,2488
795.303589,2502
795.422668,2484
795.541687,2436
795.660767,2411
795.779846,2408
795.898865,2340
796.017883,2350
796.136963,2362
796.255981,2313
796.375061,2256
796.49408,2230
796.613037,2270
796.732117,2202
796.851135,2242
796.970154,2203
797.089233,2207
797.208191,2157
797.327271,2112
797.446228,2092
797.565186,2140
797.684265,2137
797.803223,2095
797.922241,2100
798.04126,2090
798.160278,2061
798.279297,2074
798.398315,2091
798.517273,2108
798.636292,2073
798.75531,2075
798.874268,2044
798.993286,2040
799.112244,2026
799.231323,2032
799.350281,2063
799.469238,2019
799.588257,1981
799.707153,1982
799.826111,2002
799.945129,1991
800.064087,1937
800.183044,1981
800.302063,1985
800.421021,1962
800.539978,1985
800.658936,1964
800.777893,1933
800.896912,1906
801.015747,1883
801.134705,1951
801.253723,1939
801.37262,1925
801.491638,1924
801.610535,1832
801.729492,1951
801.84845,1911
801.967407,1928
802.086243,1934
802.205261,1892
802.324158,1877
802.443115,1930
802.562073,1894
802.680969,1896
802.799927,1904
802.918762,1866
803.037659,1880
803.156677,1847
803.275574,1847
803.39447,1853
803.513428,1881
803.632263,1921
803.751221,1868
803.870117,1789
803.989014,1832
804.107971,1850
804.226746,1815
804.345642,1868
804.4646,1845
804.583496,1865
804.702393,1813
804.821228,1825
804.940125,1842
805.059021,1829
805.177917,1791
805.296814,1825
805.415649,1845
805.534546,1805
805.653442,1808
805.772278,1837
805.891113,1857
806.01001,1847
806.128906,1812
806.247742,1808
806.366577,1805
806.485413,1805
806.604309,1845
806.723145,1813
806.84198,1765
806.960876,1801
807.079712,1790
807.198486,1806
807.317383,1784
807.436218,1809
807.554993,1863
807.673889,1832
807.792725,1809
807.91156,1786
808.030396,1795
808.14917,1822
808.268005,1837
808.386841,1752
808.505676,1787
808.624451,1738
808.743286,1725
808.862122,1746
808.980896,1785
809.099731,1815
809.218506,1781
809.337341,1789
809.456116,1807
809.57489,1792
809.693726,1774
809.8125,1793
809.931274,1774
810.050049,1800
810.168884,1765
810.287659,1776
810.406372,1772
810.525269,1786
810.643982,1780
810.762756,1776
810.881531,1837
811.000305,1816
811.11908,1781
811.237854,1759
811.356567,1794
811.475403,1793
811.594116,1759
811.71283,1775
811.831604,1853
811.950378,1771
812.069153,1774
812.187927,1796
812.30658,1820
812.425415,1813
812.544128,1814
812.662781,1766
812.781616,1810
812.900269,1791
813.019043,1828
813.137756,1753
813.256531,1789
813.375244,1798
813.493896,1720
813.612671,1803
813.731384,1720
813.850037,1734
813.96875,1722
814.087524,1754
814.206238,1714
814.324951,1741
814.443604,1754
814.562256,1703
814.68103,1735
814.799683,1766
814.918335,1727
815.037109,1746
815.155762,1755
815.274475,1703
815.393188,1679
815.511841,1720
815.630554,1738
815.749146,1720
815.867859,1699
815.986572,1724
816.105164,1706
816.223877,1718
816.342529,1695
816.461182,1721
816.579895,1725
816.698486,1749
816.817139,1769
816.935791,1713
817.054504,1767
817.173096,1686
817.291748,1740
817.4104,1748
817.529053,1711
817.647644,1678
817.766235,1733
817.884949,1703
818.00354,1667
818.122192,1632
818.240845,1610
818.359436,1654
818.478088,1625
818.59668,1616
818.715271,1632
818.833923,1602
818.952515,1601
819.071106,1581
819.189758,1603
819.30835,1543
819.426941,1558
819.545532,1526
819.664124,1564
819.782715,1575
819.901306,1553
820.019897,1559
820.138489,1563
820.25708,1541
820.375671,1572
820.494202,1535
820.612732,1570
820.731384,1529
820.849915,1521
820.968506,1539
821.087097,1497
821.205627,1572
821.324158,1523
821.442749,1522
821.561279,1515
821.679871,1505
821.798401,1531
821.916931,1550
822.035461,1521
822.154053,1464
822.272583,1519
822.391174,1476
822.509583,1507
822.628174,1493
822.746704,1468
822.865234,1487
822.983765,1498
823.102295,1480
823.220825,1468
823.339294,1491
823.457825,1457
823.576355,1525
823.694824,1485
823.813354,1500
823.931885,1513
824.050354,1488
824.168884,1517
824.287354,1485
824.405823,1509
824.524353,1518
824.642822,1528
824.761353,1512
824.879822,1522
824.998291,1505
825.116699,1502
825.235291,1510
825.353699,1448
825.472168,1432
825.590637,1492
825.709106,1496
825.827576,1504
825.946045,1449
826.064453,1489
826.182983,1418
826.301392,1424
826.4198,1483
826.53833,1463
826.656738,1431
826.775208,1425
826.893677,1467
827.012024,1466
827.130493,1477
827.248962,1498
827.36731,1471
827.485779,1435
827.604248,1475
827.722595,1411
827.841064,1451
827.959412,1449
828.077942,1452
828.196289,1406
828.314636,1424
828.433105,1419
828.551514,1411
828.669861,1465
828.78833,1439
828.906677,1443
829.025085,1418
829.143433,1440
829.261841,1409
829.38031,1434
829.498657,1394
829.617004,1416
829.735413,1453
829.85376,1401
829.972107,1403
830.090515,1442
830.208862,1461
830.327209,1437
830.445557,1417
830.563904,1455
830.682312,1386
830.800659,1423
830.919006,1425
831.037354,1451
831.155701,1491
831.274048,1461
831.392395,1448
831.51062,1471
831.629028,1437
831.747314,1447
831.865662,1414
831.984009,1444
832.102356,1445
832.220642,1441
832.338928,1434
832.457275,1461
832.575623,1460
832.693909,1487
832.812134,1498
832.930481,1445
833.048828,1473
833.167114,1462
833.2854,1442
833.403687,1505
833.521973,1437
833.640259,1460
833.758545,1450
833.876831,1423
833.995056,1471
834.113281,1427
834.231628,1446
834.349915,1451
834.468201,1464
834.586426,1438
834.704651,1433
834.822998,1459
834.941162,1431
835.059448,1477
835.177673,1445
835.295959,1443
835.414246,1460
835.53241,1440
835.650635,1443
835.768921,1467
835.887146,1415
836.005371,1457
836.123596,1426
836.241821,1452
836.360046,1490
836.478271,1410
836.596497,1430
836.714722,1438
836.832886,1434
836.95105,1417
837.069336,1444
837.1875,1430
837.305725,1467
837.423889,1408
837.542053,1463
837.660339,1438
837.778503,1417
837.896667,1478
838.014832,1457
838.132996,1446
838.25116,1468
838.369385,1467
838.487488,1481
838.605713,1473
838.723877,1465
838.84198,1447
838.960205,1459
839.078308,1454
839.196472,1424
839.314636,1414
839.4328,1469
839.550964,1480
839.669067,1449
839.787231,1485
839.905396,1507
840.023499,1534
840.141602,1540
840.259766,1539
840.377869,1520
840.495972,1529
840.614136,1479
840.732239,1511
840.850342,1499
840.968445,1522
841.086548,1523
841.204651,1557
841.322754,1525
841.440918,1578
841.55896,1506
841.677002,1535
841.795166,1555
841.913208,1540
842.031311,1540
842.149353,1558
842.267456,1522
842.385498,1546
842.503601,1551
842.621643,1549
842.739746,1513
842.857788,1529
842.97583,1519
843.093933,1544
843.211975,1533
843.330017,1519
843.44812,1546
843.566101,1553
843.684204,1530
843.802246,1528
843.920227,1516
844.038269,1592
844.156311,1563
844.274292,1534
844.392395,1524
844.510376,1528
844.628357,1494
844.74646,1566
844.864441,1514
844.982422,1525
845.100403,1506
845.218384,1520
845.336426,1491
845.454468,1527
845.572449,1518
845.69043,1538
845.808411,1463
845.926453,1513
846.044373,1522
846.162354,1479
846.280396,1499
846.398315,1526
846.516296,1515
846.634216,1498
846.752197,1481
846.870178,1536
846.988098,1500
847.106079,1522
847.22406,1511
847.34198,1523
847.4599,1500
847.577881,1475
847.695801,1495
847.813782,1522
847.931641,1494
848.049561,1566
848.167603,1514
848.285461,1543
848.403381,1524
848.521362,1523
848.639221,1543
848.75708,1525
848.875,1564
848.99292,1530
849.110901,1560
849.22876,1540
849.34668,1607
849.464539,1568
849.582458,1582
849.700317,1550
849.818176,1572
849.936096,1581
850.053955,1491
850.171875,1512
850.289673,1539
850.407593,1529
850.525452,1548
850.643311,1523
850.761169,1525
850.878967,1552
850.996887,1507
851.114746,1561
851.232544,1562
851.350403,1520
851.468262,1522
851.58606,1544
851.703979,1557
851.821777,1494
851.939636,1553
852.057434,1468
852.175232,1548
852.293091,1554
852.410889,1585
852.528687,1586
852.646545,1610
852.764343,1651
852.88208,1593
852.999939,1621
853.117676,1589
853.235535,1587
853.353271,1566
853.471069,1545
853.588928,1543
853.706604,1508
853.824402,1528
853.9422,1503
854.059998,1530
854.177734,1531
854.295532,1522
854.413269,1576
854.531006,1559
854.648804,1592
854.766541,1555
854.884277,1556
855.002014,1524
855.119751,1538
855.237549,1503
855.355225,1536
855.473022,1515
855.590698,1501
855.708435,1497
855.826172,1481
855.943848,1514
856.061646,1537
856.179321,1535
856.296997,1500
856.414795,1551
856.53241,1555
856.650085,1538
856.767822,1562
856.885559,1540
857.003174,1587
857.120911,1588
857.238586,1551
857.356201,1527
857.473938,1594
857.591614,1535
857.709351,1574
857.826965,1549
857.944641,1587
858.062317,1563
858.179993,1583
858.297668,1578
858.415283,1571
858.532959,1588
858.650574,1554
858.768188,1562
858.885803,1570
859.003479,1540
859.121094,1529
859.23877,1560
859.356384,1607
859.473999,1538
859.591675,1501
859.709229,1506
859.826843,1467
859.944458,1503
860.062012,1501
860.179626,1490
860.297302,1518
860.414856,1481
860.532471,1507
860.650024,1495
860.767639,1473
860.885193,1488
861.002808,1513
861.120361,1477
861.237976,1495
861.35553,1511
861.473022,1502
861.590698,1537
861.708191,1530
861.825745,1492
861.943298,1523
862.060852,1486
862.178406,1505
862.295959,1473
862.413513,1477
862.531006,1462
862.64856,1465
862.766113,1455
862.883667,1442
863.00116,1476
863.118713,1465
863.236206,1522
863.353699,1510
863.471252,1489
863.588745,1462
863.706177,1502
863.82373,1458
863.941162,1511
864.058716,1486
864.176208,1519
864.29364,1498
864.411194,1445
864.528687,1472
864.646118,1491
864.763611,1472
864.881042,1492
864.998535,1456
865.116028,1466
865.233459,1453
865.350891,1492
865.468384,1484
865.585754,1492
865.703308,1464
865.820679,1436
865.938171,1514
866.055542,1438
866.173035,1469
866.290466,1461
866.407837,1440
866.52533,1469
866.6427,1487
866.760071,1472
866.877563,1498
866.994934,1470
867.112305,1542
867.229736,1506
867.347107,1471
867.464539,1491
867.58197,1519
867.699341,1544
867.81665,1500
867.934082,1486
868.051453,1483
868.168823,1467
868.286194,1460
868.403564,1518
868.520935,1501
868.638306,1483
868.755676,1483
868.872986,1494
868.990295,1501
869.107727,1515
869.225037,1537
869.342346,1486
869.459717,1527
869.577026,1500
869.694336,1501
869.811707,1558
869.929016,1544
870.046326,1524
870.163635,1544
870.280945,1547
870.398254,1603
870.515564,1565
870.632812,1568
870.750183,1591
870.867432,1561
870.984741,1648
871.102051,1650
871.219299,1579
871.336609,1621
871.453918,1615
871.571106,1607
871.688416,1658
871.805664,1617
871.922852,1599
872.040222,1638
872.157471,1642
872.274719,1631
872.391968,1634
872.509155,1624
872.626465,1577
872.743652,1611
872.860962,1599
872.978149,1607
873.095337,1600
873.212646,1597
873.329834,1565
873.44696,1611
873.564209,1567
873.681396,1579
873.798645,1589
873.915894,1569
874.03302,1561
874.150208,1613
874.267456,1595
874.384583,1625
874.501831,1614
874.618958,1684
874.736145,1652
874.853333,1649
874.970459,1646
875.087646,1654
875.204834,1667
875.32196,1643
875.439148,1646
875.556274,1614
875.673401,1596
875.790527,1576
875.907715,1585
876.024841,1560
876.141968,1585
876.259094,1572
876.376282,1578
876.493347,1558
876.610474,1530
876.7276,1552
876.844727,1590
876.961853,1550
877.078918,1500
877.195984,1569
877.313171,1571
877.430237,1526
877.547302,1547
877.664368,1525
877.781433,1534
877.898499,1534
878.015625,1555
878.13269,1543
878.249695,1577
878.366821,1538
878.483887,1536
878.600952,1509
878.717957,1525
878.834961,1499
878.952087,1564
879.069092,1486
879.186157,1505
879.303162,1505
879.420227,1494
879.537231,1513
879.654236,1495
879.77124,1490
879.888306,1462
880.005249,1474
880.122314,1452
880.239319,1438
880.356323,1491
880.473328,1505
880.590271,1412
880.707275,1528
880.824341,1456
880.941284,1500
881.058228,1474
881.175232,1457
881.292236,1424
881.40918,1450
881.526123,1455
881.643066,1473
881.760071,1488
881.877014,1456
881.993958,1487
882.11084,1415
882.227783,1500
882.344727,1435
882.46167,1474
882.578613,1487
882.695618,1489
882.812439,1504
882.929382,1458
883.046326,1434
883.163208,1473
883.280151,1490
883.397034,1464
883.513916,1497
883.630798,1510
883.747742,1489
883.864563,1494
883.981506,1511
884.098389,1540
884.21521,1534
884.332153,1583
884.448975,1552
884.565796,1617
884.682678,1609
884.7995,1641
884.916443,1724
885.033264,1730
885.150085,1807
885.266968,1891
885.383789,1812
885.500671,1902
885.617493,1860
885.734314,1868
885.851196,1796
885.967896,1798
886.084717,1827
886.201599,1837
886.318359,1800
886.435181,1777
886.552002,1807
886.668762,1760
886.785645,1711
886.902344,1728
887.019165,1729
887.135925,1724
887.252747,1698
887.369446,1660
887.486267,1690
887.603027,1635
887.719788,1593
887.836548,1625
887.953247,1590
888.070068,1569
888.186829,1544
888.303528,1543
888.420288,1518
888.536987,1485
888.653687,1456
888.770447,1460
888.887146,1449
889.003967,1477
889.120667,1458
889.237305,1467
889.354065,1403
889.470703,1433
889.587463,1422
889.704163,1483
889.820862,1462
889.937561,1461
890.054199,1432
890.170837,1451
890.287598,1469
890.404236,1498
890.520874,1433
890.637634,1480
890.754211,1437
890.87085,1421
890.987549,1419
891.104187,1472
891.220886,1448
891.337463,1455
891.454102,1474
891.57074,1487
891.687378,1431
891.804077,1478
891.920654,1487
892.037231,1441
892.15387,1475
892.270447,1472
892.387085,1470
892.503723,1483
892.6203,1484
892.736877,1479
892.853516,1463
892.970032,1500
893.08667,1458
893.203186,1464
893.319763,1469
893.43634,1449
893.552917,1473
893.669556,1459
893.786011,1460
893.902588,1461
894.019165,1494
894.135681,1420
894.252197,1471
894.368835,1503
894.485291,1457
894.601868,1466
894.718384,1484
894.8349,1477
894.951355,1475
895.067932,1474
895.184448,1477
895.300964,1453
895.417419,1445
895.533936,1442
895.650452,1429
895.766907,1433
895.883423,1471
895.999878,1415
896.116333,1472
896.232849,1457
896.349304,1445
896.465759,1421
896.582214,1444
896.698669,1444
896.815125,1459
896.931641,1495
897.048035,1480
897.164551,1446
897.280884,1493
897.397339,1448
897.513794,1470
897.630249,1464
897.746582,1448
897.863098,1467
897.979431,1488
898.095886,1430
898.212341,1485
898.328674,1505
898.445129,1477
898.561462,1482
898.677795,1473
898.794312,1460
898.910645,1484
899.026978,1450
899.143433,1503
899.259766,1490
899.37616,1422
899.492493,1478
899.608765,1455
899.725159,1524
899.841553,1488
899.957947,1487
900.07428,1480
900.190552,1478
900.306946,1473
900.423157,1473
900.53949,1497
900.655884,1478
900.772156,1519
900.888489,1486
901.004822,1519
901.121033,1553
901.237366,1506
901.353699,1533
901.46991,1569
901.586304,1544
901.702515,1536
901.818787,1569
901.93512,1555
902.051331,1593
902.167603,1618
902.283875,1593
902.400085,1634
902.516418,1658
902.632629,1701
902.74884,1678
902.865112,1744
902.981384,1635
903.097595,1707
903.213867,1674
903.330017,1662
903.446289,1652
903.5625,1661
903.67865,1642
903.794922,1648
903.911072,1605
904.027344,1608
904.143494,1629
904.259705,1609
904.375916,1550
904.492065,1593
904.608215,1548
904.724426,1541
904.840576,1486
904.956726,1529
905.072876,1578
905.189087,1528
905.305176,1526
905.421387,1519
905.537537,1534
905.653687,1540
905.769775,1520
905.885925,1494
906.002014,1526
906.118164,1494
906.234314,1479
906.350403,1518
906.466492,1500
906.582642,1486
906.69873,1449
906.814758,1485
906.930908,1465
907.046936,1476
907.163086,1501
907.279175,1503
907.395264,1468
907.511353,1477
907.62738,1455
907.743408,1461
907.859497,1495
907.975525,1521
908.091553,1501
908.207703,1469
908.32373,1520
908.439758,1485
908.555786,1447
908.671814,1496
908.787842,1475
908.90387,1469
909.019775,1488
909.135864,1482
909.251892,1487
909.367859,1477
909.483826,1507
909.599854,1459
909.715881,1487
909.831848,1533
909.947815,1451
910.063782,1487
910.179749,1508
910.295776,1437
910.411743,1510
910.527649,1468
910.643616,1408
910.759583,1461
910.875488,1474
910.991455,1501
911.107361,1487
911.223267,1530
911.339294,1460
911.4552,1467
911.571106,1493
911.687073,1476
911.802979,1478
911.918823,1472
912.034729,1486
912.150635,1508
912.266602,1459
912.382446,1450
912.498352,1431
912.614197,1437
912.730103,1443
912.846008,1487
792.44574,3661
792.56488,3563
792.68396,3536
792.80304,3416
792.92218,3338
793.041199,3305
793.160339,3226
793.279419,3131
793.398499,3089
793.517578,2975
793.636658,3000
793.755737,2878
793.874817,2937
793.993896,2861
794.112976,2826
794.232056,2742
794.351074,2679
794.470215,2725
794.589233,2629
794.708313,2562
794.827393,2579
794.946411,2506
795.065552,2491
795.18457,2438
795.303589,2498
795.422668,2456
795.541687,2423
795.660767,2440
795.779846,2358
795.898865,2277
796.017883,2410
796.136963,2315
796.255981,2305
796.375061,2308
796.49408,2255
796.613037,2228
796.732117,2164
796.851135,2254
796.970154,2220
797.089233,2165
797.208191,2155
797.327271,2196
797.446228,2129
797.565186,2077
797.684265,2096
797.803223,2117
797.922241,2097
798.04126,2091
798.160278,2089
798.279297,2117
798.398315,2081
798.517273,2032
798.636292,2030
798.75531,2077
798.874268,2049
798.993286,2084
799.112244,2031
799.231323,1985
799.350281,2017
799.469238,2034
799.588257,1989
799.707153,2037
799.826111,1995
799.945129,1987
800.064087,2002
800.183044,1985
800.302063,1987
800.421021,1958
800.539978,1978
800.658936,1960
800.777893,1967
800.896912,1925
801.015747,1905
801.134705,1905
801.253723,1879
801.37262,1900
801.491638,1899
801.610535,1919
801.729492,1941
801.84845,1941
801.967407,1900
802.086243,1913
802.205261,1922
802.324158,1909
802.443115,1890
802.562073,1914
802.680969,1892
802.799927,1889
802.918762,1922
803.037659,1869
803.156677,1884
803.275574,1872
803.39447,1851
803.513428,1821
803.632263,1900
803.751221,1848
803.870117,1842
803.989014,1858
804.107971,1851
804.226746,1838
804.345642,1824
804.4646,1832
804.583496,1795
804.702393,1844
804.821228,1828
804.940125,1854
805.059021,1828
805.177917,1874
805.296814,1819
805.415649,1866
805.534546,1839
805.653442,1832
805.772278,1820
805.891113,1877
806.01001,1860
806.128906,1841
806.247742,1840
806.366577,1846
806.485413,1838
806.604309,1810
806.723145,1855
806.84198,1847
806.960876,1805
807.079712,1779
807.198486,1807
807.317383,1766
807.436218,1804
807.554993,1815
807.673889,1806
807.792725,1818
807.91156,1813
808.030396,1790
808.14917,1811
808.268005,1791
808.386841,1777
808.505676,1783
808.624451,1796
808.743286,1794
808.862122,1772
808.980896,1810
809.099731,1765
809.218506,1819
809.337341,1849
809.456116,1788
809.57489,1761
809.693726,1778
809.8125,1807
809.931274,1809
810.050049,1800
810.168884,1830
810.287659,1782
810.406372,1799
810.525269,1788
810.643982,1773
810.762756,1792
810.881531,1723
811.000305,1759
811.11908,1826
811.237854,1796
811.356567,1743
811.475403,1780
811.594116,1787
811.71283,1796
811.831604,1790
811.950378,1853
812.069153,1812
812.187927,1793
812.30658,1787
812.425415,1816
812.544128,1825
812.662781,1783
812.781616,1792
812.900269,1847
813.019043,1797
813.137756,1843
813.256531,1750
813.375244,1787
813.493896,1818
813.612671,1768
813.731384,1746
813.850037,1804
813.96875,1786
814.087524,1748
814.206238,1741
814.324951,1778
814.443604,1734
814.562256,1752
814.68103,1792
814.799683,1749
814.918335,1773
815.037109,1707
815.155762,1714
815.274475,1712
815.393188,1736
815.511841,1702
815.630554,1704
815.749146,1701
815.867859,1673
815.986572,1712
816.105164,1725
816.223877,1692
816.342529,1744
816.461182,1706
816.579895,1717
816.698486,1717
816.817139,1743
816.935791,1762
817.054504,1725
817.173096,1691
817.291748,1723
817.4104,1739
817.529053,1698
817.647644,1716
817.766235,1674
817.884949,1693
818.00354,1643
818.122192,1694
818.240845,1661
818.359436,1645
818.478088,1615
818.59668,1632
818.715271,1625
818.833923,1575
818.952515,1601
819.071106,1576
819.189758,1556
819.30835,1561
819.426941,1556
819.545532,1605
819.664124,1568
819.782715,1520
819.901306,1543
820.019897,1596
820.138489,1552
820.25708,1569
820.375671,1544
820.494202,1589
820.612732,1552
820.731384,1579
820.849915,1566
820.968506,1543
821.087097,1517
821.205627,1511
821.324158,1538
821.442749,1519
821.561279,1518
821.679871,1493
821.798401,1486
821.916931,1536
822.035461,1519
822.154053,1484
822.272583,1485
822.391174,1539
822.509583,1460
822.628174,1520
822.746704,1494
822.865234,1476
822.983765,1476
823.102295,1445
823.220825,1472
823.339294,1512
823.457825,1464
823.576355,1477
823.694824,1481
823.813354,1482
823.931885,1471
824.050354,1484
824.168884,1482
824.287354,1515
824.405823,1486
824.524353,1521
824.642822,1484
824.761353,1503
824.879822,1559
824.998291,1541
825.116699,1470
825.235291,1493
825.353699,1487
825.472168,1481
825.590637,1499
825.709106,1498
825.827576,1505
825.946045,1497
826.064453,1476
826.182983,1463
826.301392,1462
826.4198,1451
826.53833,1419
826.656738,1425
826.775208,1493
826.893677,1406
827.012024,1500
827.130493,1478
827.248962,1445
827.36731,1475
827.485779,1426
827.604248,1450
827.722595,1435
827.841064,1406
827.959412,1441
828.077942,1414
828.196289,1447
828.314636,1394
828.433105,1433
828.551514,1407
828.669861,1444
828.78833,1408
828.906677,1410
829.025085,1430
829.143433,1414
829.261841,1380
829.38031,1430
829.498657,1386
829.617004,1414
829.735413,1411
829.85376,1412
829.972107,1450
830.090515,1397
830.208862,1411
830.327209,1437
830.445557,1467
830.563904,1454
830.682312,1401
830.800659,1436
830.919006,1435
831.037354,1459
831.155701,1452
831.274048,1511
831.392395,1451
831.51062,1469
831.629028,1457
831.747314,1451
831.865662,1403
831.984009,1454
832.102356,1468
832.220642,1469
832.338928,1484
832.457275,1484
832.575623,1433
832.693909,1489
832.812134,1446
832.930481,1458
833.048828,1460
833.167114,1454
833.2854,1428
833.403687,1487
833.521973,1435
833.640259,1420
833.758545,1448
833.876831,1469
833.995056,1488
834.113281,1453
834.231628,1462
834.349915,1478
834.468201,1449
834.586426,1452
834.704651,1484
834.822998,1450
834.941162,1447
835.059448,1454
835.177673,1476
835.295959,1453
835.414246,1487
835.53241,1469
835.650635,1477
835.768921,1457
835.887146,1488
836.005371,1430
836.123596,1453
836.241821,1456
836.360046,1449
836.478271,1446
836.596497,1506
836.714722,1393
836.832886,1400
836.95105,1430
837.069336,1426
837.1875,1451
837.305725,1427
837.423889,1457
837.542053,1406
837.660339,1419
837.778503,1446
837.896667,1494
838.014832,1436
838.132996,1473
838.25116,1454
838.369385,1508
838.487488,1482
838.605713,1497
838.723877,1474
838.84198,1468
838.960205,1449
839.078308,1452
839.196472,1456
839.314636,1482
839.4328,1509
839.550964,1475
839.669067,1506
839.787231,1490
839.905396,1487
840.023499,1512
840.141602,1541
840.259766,1551
840.377869,1507
840.495972,1537
840.614136,1520
840.732239,1528
840.850342,1483
840.968445,1540
841.086548,1543
841.204651,1546
841.322754,1533
841.440918,1519
841.55896,1534
841.677002,1562
841.795166,1570
841.913208,1567
842.031311,1512
842.149353,1527
842.267456,1603
842.385498,1555
842.503601,1566
842.621643,1545
842.739746,1536
842.857788,1524
842.97583,1544
843.093933,1522
843.211975,1539
843.330017,1544
843.44812,1593
843.566101,1545
843.684204,1597
843.802246,1558
843.920227,1582
844.038269,1537
844.156311,1560
844.274292,1546
844.392395,1528
844.510376,1526
844.628357,1505
844.74646,1541
844.864441,1528
844.982422,1500
845.100403,1540
845.218384,1513
845.336426,1555
845.454468,1499
845.572449,1504
845.69043,1517
845.808411,1498
845.926453,1510
846.044373,1516
846.162354,1449
846.280396,1499
846.398315,1567
846.516296,1552
846.634216,1525
846.752197,1495
846.870178,1539
846.988098,1492
847.106079,1481
847.22406,1529
847.34198,1551
847.4599,1540
847.577881,1523
847.695801,1551
847.813782,1505
847.931641,1536
848.049561,1508
848.167603,1503
848.285461,1563
848.403381,1528
848.521362,1556
848.639221,1528
848.75708,1496
848.875,1540
848.99292,1558
849.110901,1522
849.22876,1561
849.34668,1564
849.464539,1563
849.582458,1531
849.700317,1547
849.818176,1531
849.936096,1604
850.053955,1572
850.171875,1573
850.289673,1518
850.407593,1570
850.525452,1573
850.643311,1549
850.761169,1560
850.878967,1562
850.996887,1573
851.114746,1516
851.232544,1520
851.350403,1516
851.468262,1534
851.58606,1538
851.703979,1510
851.821777,1511
851.939636,1532
852.057434,1558
852.175232,1511
852.293091,1589
852.410889,1582
852.528687,1601
852.646545,1589
852.764343,1610
852.88208,1639
852.999939,1572
853.117676,1570
853.235535,1519
853.353271,1580
853.471069,1500
853.588928,1479
853.706604,1510
853.824402,1551
853.9422,1529
854.059998,1495
854.177734,1557
854.295532,1502
854.413269,1563
854.531006,1540
854.648804,1587
854.766541,1562
854.884277,1555
855.002014,1542
855.119751,1540
855.237549,1555
855.355225,1502
855.473022,1535
855.590698,1508
855.708435,1552
855.826172,1567
855.943848,1543
856.061646,1522
856.179321,1502
856.296997,1546
856.414795,1516
856.53241,1513
856.650085,1564
856.767822,1594
856.885559,1606
857.003174,1573
857.120911,1555
857.238586,1578
857.356201,1558
857.473938,1547
857.591614,1564
857.709351,1567
857.826965,1622
857.944641,1540
858.062317,1543
858.179993,1578
858.297668,1563
858.415283,1551
858.532959,1556
858.650574,1565
858.768188,1652
858.885803,1601
859.003479,1529
859.121094,1558
859.23877,1559
859.356384,1542
859.473999,1519
859.591675,1538
859.709229,1517
859.826843,1523
859.944458,1525
860.062012,1525
860.179626,1480
860.297302,1510
860.414856,1471
860.532471,1502
860.650024,1476
860.767639,1546
860.885193,1515
861.002808,1494
861.120361,1488
861.237976,1529
861.35553,1504
861.473022,1560
861.590698,1485
861.708191,1480
861.825745,1516
861.943298,1469
862.060852,1485
862.178406,1508
862.295959,1474
862.413513,1506
862.531006,1488
862.64856,1504
862.766113,1489
862.883667,1498
863.00116,1460
863.118713,1488
863.236206,1437
863.353699,1516
863.471252,1506
863.588745,1515
863.706177,1493
863.82373,1533
863.941162,1499
864.058716,1548
864.176208,1491
864.29364,1507
864.411194,1500
864.528687,1459
864.646118,1463
864.763611,1472
864.881042,1465
864.998535,1464
865.116028,1444
865.233459,1510
865.350891,1443
865.468384,1492
865.585754,1489
865.703308,1455
865.820679,1476
865.938171,1509
866.055542,1485
866.173035,1427
866.290466,1471
866.407837,1473
866.52533,1497
866.6427,1467
866.760071,1513
866.877563,1486
866.994934,1489
867.112305,1489
867.229736,1492
867.347107,1509
867.464539,1509
867.58197,1520
867.699341,1471
867.81665,1532
867.934082,1501
868.051453,1501
868.168823,1528
868.286194,1475
868.403564,1511
868.520935,1489
868.638306,1450
868.755676,1494
868.872986,1497
868.990295,1490
869.107727,1519
869.225037,1522
869.342346,1519
869.459717,1512
869.577026,1517
869.694336,1560
869.811707,1544
869.929016,1492
870.046326,1560
870.163635,1544
870.280945,1572
870.398254,1590
870.515564,1588
870.632812,1555
870.750183,1587
870.867432,1566
870.984741,1563
871.102051,1581
871.219299,1603
871.336609,1599
871.453918,1647
871.571106,1629
871.688416,1615
871.805664,1604
871.922852,1646
872.040222,1630
872.157471,1652
872.274719,1619
872.391968,1641
872.509155,1664
872.626465,1599
872.743652,1598
872.860962,1600
872.978149,1577
873.095337,1588
873.212646,1584
873.329834,1563
873.44696,1544
873.564209,1522
873.681396,1562
873.798645,1537
873.915894,1611
874.03302,1596
874.150208,1589
874.267456,1626
874.384583,1638
874.501831,1631
874.618958,1645
874.736145,1692
874.853333,1656
874.970459,1663
875.087646,1616
875.204834,1609
875.32196,1622
875.439148,1608
875.556274,1577
875.673401,1618
875.790527,1583
875.907715,1599
876.024841,1580
876.141968,1583
876.259094,1596
876.376282,1593
876.493347,1563
876.610474,1575
876.7276,1573
876.844727,1546
876.961853,1520
877.078918,1558
877.195984,1544
877.313171,1552
877.430237,1545
877.547302,1516
877.664368,1562
877.781433,1549
877.898499,1543
878.015625,1565
878.13269,1530
878.249695,1553
878.366821,1493
878.483887,1447
878.600952,1537
878.717957,1548
878.834961,1591
878.952087,1530
879.069092,1496
879.186157,1538
879.303162,1500
879.420227,1533
879.537231,1495
879.654236,1454
879.77124,1496
879.888306,1475
880.005249,1514
880.122314,1454
880.239319,1472
880.356323,1451
880.473328,1488
880.590271,1450
880.707275,1461
880.824341,1510
880.941284,1439
881.058228,1441
881.175232,1478
881.292236,1454
881.40918,1486
881.526123,1468
881.643066,1482
881.760071,1451
881.877014,1454
881.993958,1498
882.11084,1508
882.227783,1476
882.344727,1506
882.46167,1495
882.578613,1466
882.695618,1444
882.812439,1476
882.929382,1478
883.046326,1491
883.163208,1447
883.280151,1443
883.397034,1487
883.513916,1536
883.630798,1540
883.747742,1482
883.864563,1548
883.981506,1513
884.098389,1479
884.21521,1509
884.332153,1585
884.448975,1563
884.565796,1591
884.682678,1667
884.7995,1671
884.916443,1714
885.033264,1779
885.150085,1795
885.266968,1840
885.383789,1820
885.500671,1803
885.617493,1884
885.734314,1823
885.851196,1851
885.967896,1859
886.084717,1824
886.201599,1827
886.318359,1811
886.435181,1835
886.552002,1786
886.668762,1757
886.785645,1734
886.902344,1747
887.019165,1719
887.135925,1726
887.252747,1663
887.369446,1666
887.486267,1718
887.603027,1616
887.719788,1616
887.836548,1543
887.953247,1586
888.070068,1572
888.186829,1555
888.303528,1524
888.420288,1533
888.536987,1484
888.653687,1496
888.770447,1478
888.887146,1471
889.003967,1485
889.120667,1469
889.237305,1463
889.354065,1488
889.470703,1463
889.587463,1445
889.704163,1459
889.820862,1442
889.937561,1455
890.054199,1477
890.170837,1436
890.287598,1514
890.404236,1478
890.520874,1451
890.637634,1438
890.754211,1472
890.87085,1466
890.987549,1446
891.104187,1497
891.220886,1492
891.337463,1480
891.454102,1471
891.57074,1473
891.687378,1457
891.804077,1533
891.920654,1492
892.037231,1455
892.15387,1492
892.270447,1483
892.387085,1497
892.503723,1519
892.6203,1485
892.736877,1464
892.853516,1447
892.970032,1473
893.08667,1452
893.203186,1502
893.319763,1491
893.43634,1457
893.552917,1437
893.669556,1470
893.786011,1513
893.902588,1464
894.019165,1460
894.135681,1439
894.252197,1481
894.368835,1501
894.485291,1445
894.601868,1509
894.718384,1519
894.8349,1473
894.951355,1458
895.067932,1455
895.184448,1441
895.300964,1486
895.417419,1464
895.533936,1435
895.650452,1452
895.766907,1496
895.883423,1438
895.999878,1462
896.116333,1434
896.232849,1487
896.349304,1491
896.465759,1428
896.582214,1461
896.698669,1481
896.815125,1482
896.931641,1436
897.048035,1490
897.164551,1430
897.280884,1483
897.397339,1472
897.513794,1509
897.630249,1455
897.746582,1479
897.863098,1457
897.979431,1486
898.095886,1501
898.212341,1499
898.328674,1487
898.445129,1534
898.561462,1503
898.677795,1510
898.794312,1484
898.910645,1429
899.026978,1488
899.143433,1505
899.259766,1525
899.37616,1517
899.492493,1466
899.608765,1512
899.725159,1500
899.841553,1497
899.957947,1480
900.07428,1481
900.190552,1482
900.306946,1494
900.423157,1468
900.53949,1494
900.655884,1498
900.772156,1502
900.888489,1498
901.004822,1520
901.121033,1514
901.237366,1482
901.353699,1493
901.46991,1554
901.586304,1512
901.702515,1540
901.818787,1567
901.93512,1568
902.051331,1581
902.167603,1611
902.283875,1661
902.400085,1639
902.516418,1639
902.632629,1659
902.74884,1680
902.865112,1742
902.981384,1715
903.097595,1678
903.213867,1714
903.330017,1690
903.446289,1663
903.5625,1638
903.67865,1616
903.794922,1643
903.911072,1643
904.027344,1618
904.143494,1578
904.259705,1623
904.375916,1574
904.492065,1570
904.608215,1544
904.724426,1574
904.840576,1537
904.956726,1508
905.072876,1562
905.189087,1538
905.305176,1535
905.421387,1523
905.537537,1474
905.653687,1546
905.769775,1505
905.885925,1509
906.002014,1538
906.118164,1447
906.234314,1502
906.350403,1507
906.466492,1473
906.582642,1494
906.69873,1476
906.814758,1521
906.930908,1497
907.046936,1455
907.163086,1518
907.279175,1482
907.395264,1510
907.511353,1471
907.62738,1489
907.743408,1471
907.859497,1500
907.975525,1457
908.091553,1482
908.207703,1497
908.32373,1485
908.439758,1482
908.555786,1490
908.671814,1480
908.787842,1422
908.90387,1472
909.019775,1525
909.135864,1455
909.251892,1508
909.367859,1466
909.483826,1530
909.599854,1489
909.715881,1486
909.831848,1566
909.947815,1505
910.063782,1516
910.179749,1518
910.295776,1458
910.411743,1524
910.527649,1528
910.643616,1505
910.759583,1485
910.875488,1530
910.991455,1506
911.107361,1517
911.223267,1474
911.339294,1524
911.4552,1459
911.571106,1501
911.687073,1543
911.802979,1493
911.918823,1481
912.034729,1478
912.150635,1481
912.266602,1468
912.382446,1488
912.498352,1480
912.614197,1459
912.730103,1475
912.846008,1488
