792.44574,2325
792.56488,2303
792.68396,2325
792.80304,2262
792.92218,2201
793.041199,2214
793.160339,2156
793.279419,2176
793.398499,2162
793.517578,2122
793.636658,2125
793.755737,2151
793.874817,2126
793.993896,2107
794.112976,2083
794.232056,2035
794.351074,2097
794.470215,2099
794.589233,2086
794.708313,2049
794.827393,2025
794.946411,2016
795.065552,1986
795.18457,2005
795.303589,2026
795.422668,1963
795.541687,2039
795.660767,2003
795.779846,1960
795.898865,1953
796.017883,1945
796.136963,1927
796.255981,1936
796.375061,1945
796.49408,1985
796.613037,1929
796.732117,1936
796.851135,1949
796.970154,1910
797.089233,1911
797.208191,1882
797.327271,1891
797.446228,1941
797.565186,1874
797.684265,1934
797.803223,1873
797.922241,1907
798.04126,1887
798.160278,1861
798.279297,1888
798.398315,1837
798.517273,1938
798.636292,1871
798.75531,1851
798.874268,1895
798.993286,1950
799.112244,1917
799.231323,1913
799.350281,1913
799.469238,1911
799.588257,1866
799.707153,1884
799.826111,1875
799.945129,1880
800.064087,1892
800.183044,1874
800.302063,1842
800.421021,1868
800.539978,1885
800.658936,1832
800.777893,1882
800.896912,1882
801.015747,1902
801.134705,1862
801.253723,1949
801.37262,1902
801.491638,1901
801.610535,1948
801.729492,1907
801.84845,1943
801.967407,1916
802.086243,1904
802.205261,1934
802.324158,1934
802.443115,1965
802.562073,1930
802.680969,1929
802.799927,1863
802.918762,1945
803.037659,1919
803.156677,1913
803.275574,1925
803.39447,1956
803.513428,1932
803.632263,1976
803.751221,1926
803.870117,1945
803.989014,1931
804.107971,1942
804.226746,1895
804.345642,1986
804.4646,1904
804.583496,1971
804.702393,1937
804.821228,1991
804.940125,1982
805.059021,1960
805.177917,2000
805.296814,1940
805.415649,1996
805.534546,1983
805.653442,1976
805.772278,1964
805.891113,1985
806.01001,2082
806.128906,1996
806.247742,2034
806.366577,1977
806.485413,2039
806.604309,2030
806.723145,2055
806.84198,2005
806.960876,2033
807.079712,2057
807.198486,2003
807.317383,2024
807.436218,2022
807.554993,1928
807.673889,2035
807.792725,2031
807.91156,2029
808.030396,2038
808.14917,2045
808.268005,2025
808.386841,2052
808.505676,2064
808.624451,2049
808.743286,2040
808.862122,2076
808.980896,2008
809.099731,2030
809.218506,2077
809.337341,2067
809.456116,2037
809.57489,2115
809.693726,2068
809.8125,2056
809.931274,2062
810.050049,2092
810.168884,2037
810.287659,2071
810.406372,2109
810.525269,2056
810.643982,2055
810.762756,2130
810.881531,2058
811.000305,2037
811.11908,2045
811.237854,2002
811.356567,2087
811.475403,2101
811.594116,2063
811.71283,2089
811.831604,2077
811.950378,2035
812.069153,2052
812.187927,2084
812.30658,2106
812.425415,2086
812.544128,2074
812.662781,2114
812.781616,2097
812.900269,2041
813.019043,2104
813.137756,2071
813.256531,2083
813.375244,2096
813.493896,2091
813.612671,2095
813.731384,2074
813.850037,2075
813.96875,2108
814.087524,2031
814.206238,2134
814.324951,2054
814.443604,2078
814.562256,2059
814.68103,2067
814.799683,2102
814.918335,1983
815.037109,2078
815.155762,2037
815.274475,2029
815.393188,1971
815.511841,2020
815.630554,1970
815.749146,1992
815.867859,1964
815.986572,1977
816.105164,1956
816.223877,1969
816.342529,1975
816.461182,1986
816.579895,1966
816.698486,1981
816.817139,2047
816.935791,2046
817.054504,2018
817.173096,1995
817.291748,1969
817.4104,1949
817.529053,1924
817.647644,1959
817.766235,1866
817.884949,1852
818.00354,1828
818.122192,1771
818.240845,1759
818.359436,1736
818.478088,1714
818.59668,1673
818.715271,1627
818.833923,1657
818.952515,1602
819.071106,1665
819.189758,1572
819.30835,1554
819.426941,1550
819.545532,1548
819.664124,1500
819.782715,1564
819.901306,1546
820.019897,1511
820.138489,1507
820.25708,1518
820.375671,1524
820.494202,1487
820.612732,1450
820.731384,1518
820.849915,1510
820.968506,1452
821.087097,1482
821.205627,1469
821.324158,1464
821.442749,1442
821.561279,1470
821.679871,1417
821.798401,1442
821.916931,1453
822.035461,1420
822.154053,1435
822.272583,1458
822.391174,1494
822.509583,1440
822.628174,1456
822.746704,1458
822.865234,1455
822.983765,1467
823.102295,1457
823.220825,1438
823.339294,1447
823.457825,1437
823.576355,1442
823.694824,1476
823.813354,1464
823.931885,1436
824.050354,1458
824.168884,1449
824.287354,1481
824.405823,1477
824.524353,1468
824.642822,1484
824.761353,1469
824.879822,1443
824.998291,1465
825.116699,1450
825.235291,1468
825.353699,1420
825.472168,1438
825.590637,1449
825.709106,1412
825.827576,1415
825.946045,1425
826.064453,1419
826.182983,1411
826.301392,1381
826.4198,1406
826.53833,1349
826.656738,1420
826.775208,1381
826.893677,1375
827.012024,1352
827.130493,1337
827.248962,1350
827.36731,1375
827.485779,1393
827.604248,1353
827.722595,1378
827.841064,1334
827.959412,1335
828.077942,1361
828.196289,1345
828.314636,1340
828.433105,1342
828.551514,1332
828.669861,1362
828.78833,1326
828.906677,1344
829.025085,1366
829.143433,1359
829.261841,1328
829.38031,1341
829.498657,1291
829.617004,1358
829.735413,1397
829.85376,1352
829.972107,1353
830.090515,1347
830.208862,1340
830.327209,1335
830.445557,1329
830.563904,1326
830.682312,1327
830.800659,1358
830.919006,1354
831.037354,1341
831.155701,1338
831.274048,1324
831.392395,1341
831.51062,1333
831.629028,1357
831.747314,1355
831.865662,1342
831.984009,1321
832.102356,1337
832.220642,1364
832.338928,1299
832.457275,1337
832.575623,1313
832.693909,1318
832.812134,1364
832.930481,1294
833.048828,1340
833.167114,1323
833.2854,1343
833.403687,1333
833.521973,1330
833.640259,1310
833.758545,1357
833.876831,1357
833.995056,1363
834.113281,1362
834.231628,1347
834.349915,1334
834.468201,1354
834.586426,1337
834.704651,1348
834.822998,1349
834.941162,1330
835.059448,1366
835.177673,1329
835.295959,1345
835.414246,1329
835.53241,1293
835.650635,1342
835.768921,1354
835.887146,1333
836.005371,1361
836.123596,1369
836.241821,1382
836.360046,1376
836.478271,1374
836.596497,1379
836.714722,1355
836.832886,1387
836.95105,1407
837.069336,1392
837.1875,1360
837.305725,1432
837.423889,1402
837.542053,1446
837.660339,1423
837.778503,1426
837.896667,1419
838.014832,1434
838.132996,1444
838.25116,1441
838.369385,1426
838.487488,1393
838.605713,1442
838.723877,1419
838.84198,1399
838.960205,1436
839.078308,1394
839.196472,1366
839.314636,1410
839.4328,1433
839.550964,1384
839.669067,1422
839.787231,1363
839.905396,1393
840.023499,1418
840.141602,1370
840.259766,1410
840.377869,1359
840.495972,1433
840.614136,1387
840.732239,1379
840.850342,1368
840.968445,1398
841.086548,1359
841.204651,1390
841.322754,1391
841.440918,1373
841.55896,1338
841.677002,1367
841.795166,1313
841.913208,1315
842.031311,1414
842.149353,1375
842.267456,1298
842.385498,1366
842.503601,1322
842.621643,1327
842.739746,1363
842.857788,1350
842.97583,1315
843.093933,1322
843.211975,1312
843.330017,1285
843.44812,1364
843.566101,1328
843.684204,1318
843.802246,1317
843.920227,1304
844.038269,1315
844.156311,1352
844.274292,1322
844.392395,1336
844.510376,1333
844.628357,1332
844.74646,1291
844.864441,1337
844.982422,1349
845.100403,1300
845.218384,1318
845.336426,1317
845.454468,1286
845.572449,1312
845.69043,1344
845.808411,1270
845.926453,1298
846.044373,1310
846.162354,1302
846.280396,1265
846.398315,1327
846.516296,1339
846.634216,1305
846.752197,1306
846.870178,1324
846.988098,1340
847.106079,1319
847.22406,1317
847.34198,1329
847.4599,1334
847.577881,1305
847.695801,1286
847.813782,1321
847.931641,1331
848.049561,1313
848.167603,1307
848.285461,1302
848.403381,1308
848.521362,1253
848.639221,1309
848.75708,1343
848.875,1289
848.99292,1282
849.110901,1287
849.22876,1327
849.34668,1260
849.464539,1333
849.582458,1304
849.700317,1281
849.818176,1319
849.936096,1279
850.053955,1323
850.171875,1283
850.289673,1283
850.407593,1282
850.525452,1318
850.643311,1309
850.761169,1279
850.878967,1321
850.996887,1352
851.114746,1311
851.232544,1300
851.350403,1294
851.468262,1309
851.58606,1346
851.703979,1330
851.821777,1329
851.939636,1322
852.057434,1317
852.175232,1331
852.293091,1322
852.410889,1356
852.528687,1294
852.646545,1331
852.764343,1326
852.88208,1356
852.999939,1296
853.117676,1334
853.235535,1313
853.353271,1366
853.471069,1372
853.588928,1347
853.706604,1331
853.824402,1341
853.9422,1318
854.059998,1337
854.177734,1360
854.295532,1317
854.413269,1369
854.531006,1305
854.648804,1366
854.766541,1347
854.884277,1379
855.002014,1325
855.119751,1376
855.237549,1306
855.355225,1350
855.473022,1341
855.590698,1383
855.708435,1332
855.826172,1322
855.943848,1343
856.061646,1349
856.179321,1334
856.296997,1356
856.414795,1315
856.53241,1317
856.650085,1353
856.767822,1349
856.885559,1324
857.003174,1378
857.120911,1382
857.238586,1351
857.356201,1345
857.473938,1361
857.591614,1357
857.709351,1359
857.826965,1360
857.944641,1369
858.062317,1435
858.179993,1348
858.297668,1358
858.415283,1366
858.532959,1325
858.650574,1413
858.768188,1362
858.885803,1361
859.003479,1355
859.121094,1347
859.23877,1330
859.356384,1388
859.473999,1333
859.591675,1311
859.709229,1340
859.826843,1323
859.944458,1356
860.062012,1330
860.179626,1348
860.297302,1299
860.414856,1329
860.532471,1329
860.650024,1337
860.767639,1300
860.885193,1374
861.002808,1314
861.120361,1299
861.237976,1336
861.35553,1357
861.473022,1371
861.590698,1329
861.708191,1299
861.825745,1350
861.943298,1332
862.060852,1326
862.178406,1357
862.295959,1324
862.413513,1334
862.531006,1333
862.64856,1336
862.766113,1341
862.883667,1304
863.00116,1340
863.118713,1329
863.236206,1321
863.353699,1328
863.471252,1341
863.588745,1304
863.706177,1329
863.82373,1348
863.941162,1335
864.058716,1324
864.176208,1345
864.29364,1308
864.411194,1363
864.528687,1289
864.646118,1383
864.763611,1324
864.881042,1346
864.998535,1327
865.116028,1342
865.233459,1285
865.350891,1341
865.468384,1336
865.585754,1397
865.703308,1297
865.820679,1329
865.938171,1328
866.055542,1348
866.173035,1364
866.290466,1330
866.407837,1352
866.52533,1329
866.6427,1309
866.760071,1376
866.877563,1333
866.994934,1334
867.112305,1366
867.229736,1353
867.347107,1349
867.464539,1371
867.58197,1381
867.699341,1373
867.81665,1352
867.934082,1367
868.051453,1339
868.168823,1355
868.286194,1374
868.403564,1332
868.520935,1379
868.638306,1340
868.755676,1365
868.872986,1346
868.990295,1316
869.107727,1361
869.225037,1329
869.342346,1378
869.459717,1322
869.577026,1371
869.694336,1396
869.811707,1312
869.929016,1397
870.046326,1364
870.163635,1359
870.280945,1392
870.398254,1335
870.515564,1354
870.632812,1360
870.750183,1335
870.867432,1347
870.984741,1372
871.102051,1328
871.219299,1393
871.336609,1336
871.453918,1391
871.571106,1366
871.688416,1405
871.805664,1377
871.922852,1375
872.040222,1352
872.157471,1376
872.274719,1356
872.391968,1342
872.509155,1389
872.626465,1317
872.743652,1383
872.860962,1330
872.978149,1366
873.095337,1340
873.212646,1343
873.329834,1322
873.44696,1350
873.564209,1373
873.681396,1369
873.798645,1361
873.915894,1340
874.03302,1339
874.150208,1331
874.267456,1367
874.384583,1395
874.501831,1361
874.618958,1375
874.736145,1363
874.853333,1369
874.970459,1349
875.087646,1340
875.204834,1362
875.32196,1393
875.439148,1388
875.556274,1391
875.673401,1379
875.790527,1324
875.907715,1367
876.024841,1345
876.141968,1367
876.259094,1360
876.376282,1323
876.493347,1383
876.610474,1359
876.7276,1348
876.844727,1394
876.961853,1343
877.078918,1396
877.195984,1361
877.313171,1365
877.430237,1345
877.547302,1350
877.664368,1403
877.781433,1359
877.898499,1360
878.015625,1351
878.13269,1357
878.249695,1391
878.366821,1353
878.483887,1377
878.600952,1343
878.717957,1360
878.834961,1346
878.952087,1386
879.069092,1366
879.186157,1342
879.303162,1291
879.420227,1363
879.537231,1325
879.654236,1324
879.77124,1326
879.888306,1359
880.005249,1307
880.122314,1344
880.239319,1360
880.356323,1357
880.473328,1347
880.590271,1376
880.707275,1386
880.824341,1332
880.941284,1361
881.058228,1381
881.175232,1348
881.292236,1388
881.40918,1323
881.526123,1355
881.643066,1384
881.760071,1366
881.877014,1357
881.993958,1388
882.11084,1350
882.227783,1355
882.344727,1363
882.46167,1341
882.578613,1347
882.695618,1358
882.812439,1350
882.929382,1339
883.046326,1338
883.163208,1366
883.280151,1384
883.397034,1360
883.513916,1345
883.630798,1373
883.747742,1359
883.864563,1373
883.981506,1371
884.098389,1344
884.21521,1372
884.332153,1373
884.448975,1332
884.565796,1396
884.682678,1355
884.7995,1385
884.916443,1386
885.033264,1406
885.150085,1416
885.266968,1420
885.383789,1437
885.500671,1416
885.617493,1482
885.734314,1403
885.851196,1400
885.967896,1423
886.084717,1364
886.201599,1465
886.318359,1426
886.435181,1424
886.552002,1402
886.668762,1415
886.785645,1439
886.902344,1394
887.019165,1376
887.135925,1386
887.252747,1390
887.369446,1396
887.486267,1403
887.603027,1351
887.719788,1363
887.836548,1401
887.953247,1375
888.070068,1389
888.186829,1430
888.303528,1363
888.420288,1414
888.536987,1366
888.653687,1387
888.770447,1362
888.887146,1381
889.003967,1356
889.120667,1411
889.237305,1416
889.354065,1397
889.470703,1403
889.587463,1359
889.704163,1416
889.820862,1352
889.937561,1358
890.054199,1389
890.170837,1368
890.287598,1381
890.404236,1393
890.520874,1418
890.637634,1390
890.754211,1394
890.87085,1368
890.987549,1414
891.104187,1409
891.220886,1375
891.337463,1402
891.454102,1392
891.57074,1375
891.687378,1424
891.804077,1398
891.920654,1392
892.037231,1405
892.15387,1385
892.270447,1419
892.387085,1416
892.503723,1431
892.6203,1355
892.736877,1414
892.853516,1384
892.970032,1411
893.08667,1425
893.203186,1407
893.319763,1383
893.43634,1430
893.552917,1392
893.669556,1431
893.786011,1400
893.902588,1386
894.019165,1393
894.135681,1393
894.252197,1343
894.368835,1400
894.485291,1397
894.601868,1402
894.718384,1401
894.8349,1417
894.951355,1408
895.067932,1425
895.184448,1420
895.300964,1426
895.417419,1405
895.533936,1421
895.650452,1449
895.766907,1414
895.883423,1454
895.999878,1420
896.116333,1426
896.232849,1460
896.349304,1391
896.465759,1418
896.582214,1399
896.698669,1442
896.815125,1440
896.931641,1438
897.048035,1413
897.164551,1391
897.280884,1414
897.397339,1405
897.513794,1382
897.630249,1401
897.746582,1410
897.863098,1401
897.979431,1428
898.095886,1426
898.212341,1446
898.328674,1405
898.445129,1448
898.561462,1474
898.677795,1432
898.794312,1377
898.910645,1421
899.026978,1408
899.143433,1471
899.259766,1421
899.37616,1424
899.492493,1425
899.608765,1423
899.725159,1425
899.841553,1370
899.957947,1459
900.07428,1397
900.190552,1436
900.306946,1401
900.423157,1431
900.53949,1443
900.655884,1462
900.772156,1456
900.888489,1427
901.004822,1450
901.121033,1459
901.237366,1460
901.353699,1443
901.46991,1467
901.586304,1442
901.702515,1443
901.818787,1443
901.93512,1428
902.051331,1455
902.167603,1447
902.283875,1452
902.400085,1443
902.516418,1453
902.632629,1490
902.74884,1470
902.865112,1493
902.981384,1444
903.097595,1458
903.213867,1477
903.330017,1447
903.446289,1470
903.5625,1456
903.67865,1410
903.794922,1465
903.911072,1460
904.027344,1416
904.143494,1486
904.259705,1423
904.375916,1445
904.492065,1411
904.608215,1446
904.724426,1392
904.840576,1479
904.956726,1462
905.072876,1420
905.189087,1457
905.305176,1435
905.421387,1423
905.537537,1439
905.653687,1460
905.769775,1465
905.885925,1415
906.002014,1437
906.118164,1426
906.234314,1482
906.350403,1418
906.466492,1450
906.582642,1445
906.69873,1469
906.814758,1451
906.930908,1438
907.046936,1428
907.163086,1472
907.279175,1471
907.395264,1417
907.511353,1466
907.62738,1447
907.743408,1445
907.859497,1415
907.975525,1467
908.091553,1410
908.207703,1474
908.32373,1434
908.439758,1415
908.555786,1493
908.671814,1464
908.787842,1412
908.90387,1448
909.019775,1442
909.135864,1428
909.251892,1430
909.367859,1456
909.483826,1479
909.599854,1450
909.715881,1496
909.831848,1444
909.947815,1468
910.063782,1418
910.179749,1414
910.295776,1469
910.411743,1447
910.527649,1475
910.643616,1484
910.759583,1440
910.875488,1452
910.991455,1464
911.107361,1426
911.223267,1456
911.339294,1427
911.4552,1475
911.571106,1404
911.687073,1437
911.802979,1447
911.918823,1414
912.034729,1458
912.150635,1476
912.266602,1462
912.382446,1447
912.498352,1435
912.614197,1434
912.730103,1446
912.846008,1460
792.44574,2343
792.56488,2385
792.68396,2343
792.80304,2278
792.92218,2186
793.041199,2262
793.160339,2213
793.279419,2192
793.398499,2203
793.517578,2127
793.636658,2162
793.755737,2136
793.874817,2204
793.993896,2150
794.112976,2130
794.232056,2109
794.351074,2067
794.470215,2082
794.589233,2107
794.708313,2048
794.827393,2081
794.946411,2054
795.065552,2105
795.18457,2031
795.303589,2048
795.422668,2021
795.541687,2020
795.660767,2058
795.779846,2026
795.898865,2023
796.017883,1991
796.136963,2000
796.255981,1972
796.375061,2020
796.49408,1982
796.613037,1910
796.732117,1964
796.851135,1920
796.970154,1980
797.089233,1991
797.208191,1890
797.327271,1906
797.446228,2019
797.565186,1973
797.684265,1980
797.803223,1949
797.922241,1850
798.04126,1898
798.160278,1945
798.279297,1953
798.398315,1892
798.517273,1958
798.636292,1926
798.75531,1910
798.874268,1926
798.993286,1893
799.112244,1926
799.231323,1960
799.350281,1897
799.469238,1963
799.588257,1955
799.707153,1928
799.826111,1929
799.945129,1965
800.064087,1920
800.183044,1933
800.302063,1961
800.421021,1923
800.539978,1955
800.658936,1931
800.777893,1914
800.896912,1905
801.015747,1909
801.134705,1962
801.253723,1918
801.37262,1913
801.491638,1941
801.610535,1925
801.729492,1938
801.84845,1961
801.967407,1948
802.086243,1971
802.205261,1986
802.324158,1935
802.443115,1959
802.562073,1928
802.680969,1947
802.799927,1947
802.918762,1964
803.037659,1981
803.156677,1943
803.275574,1980
803.39447,1926
803.513428,1965
803.632263,1986
803.751221,1998
803.870117,2002
803.989014,1999
804.107971,2000
804.226746,1956
804.345642,1996
804.4646,1995
804.583496,1963
804.702393,1991
804.821228,1984
804.940125,2014
805.059021,1999
805.177917,1994
805.296814,1999
805.415649,2021
805.534546,2022
805.653442,1991
805.772278,1999
805.891113,2064
806.01001,2026
806.128906,2046
806.247742,2000
806.366577,2039
806.485413,2022
806.604309,2032
806.723145,2061
806.84198,2056
806.960876,1988
807.079712,2021
807.198486,2044
807.317383,1999
807.436218,2060
807.554993,2088
807.673889,2076
807.792725,2067
807.91156,2060
808.030396,2064
808.14917,2045
808.268005,2060
808.386841,2042
808.505676,2104
808.624451,2019
808.743286,2052
808.862122,2047
808.980896,2098
809.099731,2081
809.218506,2065
809.337341,2066
809.456116,2136
809.57489,2137
809.693726,2132
809.8125,2111
809.931274,2152
810.050049,2126
810.168884,2087
810.287659,2083
810.406372,2098
810.525269,2137
810.643982,2112
810.762756,2099
810.881531,2105
811.000305,2132
811.11908,2045
811.237854,2121
811.356567,2084
811.475403,2095
811.594116,2111
811.71283,2162
811.831604,2123
811.950378,2164
812.069153,2096
812.187927,2155
812.30658,2129
812.425415,2104
812.544128,2125
812.662781,2111
812.781616,2115
812.900269,2104
813.019043,2097
813.137756,2140
813.256531,2132
813.375244,2128
813.493896,2095
813.612671,2139
813.731384,2119
813.850037,2121
813.96875,2115
814.087524,2044
814.206238,2077
814.324951,2087
814.443604,2091
814.562256,2086
814.68103,2114
814.799683,2068
814.918335,2017
815.037109,2061
815.155762,2031
815.274475,2069
815.393188,2079
815.511841,2080
815.630554,2044
815.749146,2009
815.867859,1994
815.986572,1992
816.105164,1989
816.223877,2018
816.342529,2017
816.461182,2048
816.579895,2077
816.698486,2054
816.817139,2064
816.935791,2065
817.054504,2016
817.173096,2037
817.291748,1993
817.4104,2046
817.529053,1940
817.647644,1962
817.766235,1861
817.884949,1876
818.00354,1840
818.122192,1790
818.240845,1801
818.359436,1794
818.478088,1779
818.59668,1764
818.715271,1685
818.833923,1673
818.952515,1645
819.071106,1628
819.189758,1604
819.30835,1578
819.426941,1595
819.545532,1558
819.664124,1578
819.782715,1607
819.901306,1608
820.019897,1571
820.138489,1571
820.25708,1577
820.375671,1505
820.494202,1550
820.612732,1534
820.731384,1511
820.849915,1506
820.968506,1534
821.087097,1461
821.205627,1488
821.324158,1494
821.442749,1514
821.561279,1503
821.679871,1515
821.798401,1450
821.916931,1506
822.035461,1485
822.154053,1474
822.272583,1454
822.391174,1458
822.509583,1465
822.628174,1446
822.746704,1495
822.865234,1417
822.983765,1439
823.102295,1462
823.220825,1474
823.339294,1435
823.457825,1477
823.576355,1471
823.694824,1461
823.813354,1449
823.931885,1471
824.050354,1471
824.168884,1493
824.287354,1480
824.405823,1517
824.524353,1489
824.642822,1484
824.761353,1534
824.879822,1490
824.998291,1492
825.116699,1445
825.235291,1463
825.353699,1480
825.472168,1463
825.590637,1487
825.709106,1450
825.827576,1419
825.946045,1457
826.064453,1438
826.182983,1422
826.301392,1412
826.4198,1398
826.53833,1387
826.656738,1406
826.775208,1384
826.893677,1401
827.012024,1397
827.130493,1422
827.248962,1407
827.36731,1382
827.485779,1403
827.604248,1400
827.722595,1389
827.841064,1349
827.959412,1375
828.077942,1369
828.196289,1400
828.314636,1359
828.433105,1355
828.551514,1381
828.669861,1392
828.78833,1375
828.906677,1359
829.025085,1387
829.143433,1353
829.261841,1353
829.38031,1342
829.498657,1358
829.617004,1343
829.735413,1395
829.85376,1356
829.972107,1345
830.090515,1342
830.208862,1396
830.327209,1356
830.445557,1378
830.563904,1384
830.682312,1421
830.800659,1343
830.919006,1369
831.037354,1292
831.155701,1371
831.274048,1381
831.392395,1367
831.51062,1357
831.629028,1356
831.747314,1380
831.865662,1381
831.984009,1342
832.102356,1411
832.220642,1346
832.338928,1345
832.457275,1414
832.575623,1360
832.693909,1346
832.812134,1360
832.930481,1356
833.048828,1348
833.167114,1347
833.2854,1334
833.403687,1410
833.521973,1370
833.640259,1381
833.758545,1368
833.876831,1387
833.995056,1342
834.113281,1363
834.231628,1327
834.349915,1344
834.468201,1383
834.586426,1347
834.704651,1359
834.822998,1343
834.941162,1376
835.059448,1371
835.177673,1367
835.295959,1372
835.414246,1391
835.53241,1325
835.650635,1373
835.768921,1376
835.887146,1401
836.005371,1397
836.123596,1379
836.241821,1366
836.360046,1470
836.478271,1406
836.596497,1405
836.714722,1392
836.832886,1421
836.95105,1455
837.069336,1427
837.1875,1443
837.305725,1424
837.423889,1448
837.542053,1440
837.660339,1452
837.778503,1441
837.896667,1416
838.014832,1455
838.132996,1462
838.25116,1443
838.369385,1406
838.487488,1463
838.605713,1411
838.723877,1397
838.84198,1406
838.960205,1427
839.078308,1440
839.196472,1435
839.314636,1412
839.4328,1389
839.550964,1399
839.669067,1436
839.787231,1435
839.905396,1437
840.023499,1393
840.141602,1443
840.259766,1428
840.377869,1389
840.495972,1408
840.614136,1403
840.732239,1405
840.850342,1389
840.968445,1415
841.086548,1395
841.204651,1367
841.322754,1414
841.440918,1392
841.55896,1388
841.677002,1395
841.795166,1406
841.913208,1392
842.031311,1363
842.149353,1371
842.267456,1380
842.385498,1406
842.503601,1351
842.621643,1353
842.739746,1349
842.857788,1361
842.97583,1338
843.093933,1338
843.211975,1345
843.330017,1370
843.44812,1350
843.566101,1335
843.684204,1369
843.802246,1354
843.920227,1374
844.038269,1348
844.156311,1334
844.274292,1343
844.392395,1305
844.510376,1354
844.628357,1348
844.74646,1343
844.864441,1352
844.982422,1312
845.100403,1332
845.218384,1324
845.336426,1327
845.454468,1306
845.572449,1340
845.69043,1326
845.808411,1321
845.926453,1353
846.044373,1374
846.162354,1346
846.280396,1327
846.398315,1327
846.516296,1322
846.634216,1333
846.752197,1301
846.870178,1375
846.988098,1355
847.106079,1319
847.22406,1332
847.34198,1347
847.4599,1348
847.577881,1374
847.695801,1320
847.813782,1354
847.931641,1319
848.049561,1355
848.167603,1295
848.285461,1345
848.403381,1338
848.521362,1343
848.639221,1341
848.75708,1345
848.875,1294
848.99292,1327
849.110901,1326
849.22876,1368
849.34668,1329
849.464539,1329
849.582458,1309
849.700317,1320
849.818176,1358
849.936096,1333
850.053955,1360
850.171875,1343
850.289673,1330
850.407593,1306
850.525452,1359
850.643311,1377
850.761169,1332
850.878967,1336
850.996887,1374
851.114746,1351
851.232544,1362
851.350403,1360
851.468262,1330
851.58606,1317
851.703979,1351
851.821777,1321
851.939636,1353
852.057434,1304
852.175232,1333
852.293091,1367
852.410889,1358
852.528687,1360
852.646545,1321
852.764343,1383
852.88208,1326
852.999939,1363
853.117676,1367
853.235535,1348
853.353271,1341
853.471069,1312
853.588928,1378
853.706604,1326
853.824402,1328
853.9422,1370
854.059998,1368
854.177734,1377
854.295532,1381
854.413269,1382
854.531006,1370
854.648804,1382
854.766541,1396
854.884277,1374
855.002014,1373
855.119751,1342
855.237549,1397
855.355225,1391
855.473022,1410
855.590698,1362
855.708435,1334
855.826172,1403
855.943848,1368
856.061646,1378
856.179321,1386
856.296997,1355
856.414795,1390
856.53241,1409
856.650085,1369
856.767822,1378
856.885559,1388
857.003174,1388
857.120911,1406
857.238586,1389
857.356201,1381
857.473938,1383
857.591614,1364
857.709351,1380
857.826965,1368
857.944641,1357
858.062317,1396
858.179993,1408
858.297668,1410
858.415283,1379
858.532959,1371
858.650574,1355
858.768188,1396
858.885803,1361
859.003479,1370
859.121094,1380
859.23877,1335
859.356384,1403
859.473999,1349
859.591675,1355
859.709229,1389
859.826843,1390
859.944458,1371
860.062012,1368
860.179626,1367
860.297302,1353
860.414856,1386
860.532471,1324
860.650024,1365
860.767639,1372
860.885193,1321
861.002808,1334
861.120361,1348
861.237976,1342
861.35553,1333
861.473022,1381
861.590698,1329
861.708191,1355
861.825745,1309
861.943298,1355
862.060852,1381
862.178406,1348
862.295959,1374
862.413513,1364
862.531006,1354
862.64856,1396
862.766113,1333
862.883667,1371
863.00116,1355
863.118713,1378
863.236206,1342
863.353699,1357
863.471252,1377
863.588745,1352
863.706177,1353
863.82373,1363
863.941162,1362
864.058716,1310
864.176208,1365
864.29364,1342
864.411194,1359
864.528687,1319
864.646118,1356
864.763611,1341
864.881042,1387
864.998535,1436
865.116028,1353
865.233459,1381
865.350891,1341
865.468384,1389
865.585754,1364
865.703308,1393
865.820679,1383
865.938171,1362
866.055542,1351
866.173035,1368
866.290466,1351
866.407837,1364
866.52533,1381
866.6427,1346
866.760071,1357
866.877563,1375
866.994934,1327
867.112305,1405
867.229736,1361
867.347107,1376
867.464539,1345
867.58197,1366
867.699341,1379
867.81665,1406
867.934082,1380
868.051453,1384
868.168823,1362
868.286194,1358
868.403564,1397
868.520935,1403
868.638306,1381
868.755676,1363
868.872986,1398
868.990295,1377
869.107727,1431
869.225037,1359
869.342346,1386
869.459717,1392
869.577026,1443
869.694336,1392
869.811707,1395
869.929016,1434
870.046326,1380
870.163635,1386
870.280945,1383
870.398254,1375
870.515564,1386
870.632812,1343
870.750183,1419
870.867432,1349
870.984741,1396
871.102051,1421
871.219299,1354
871.336609,1420
871.453918,1368
871.571106,1381
871.688416,1390
871.805664,1410
871.922852,1423
872.040222,1367
872.157471,1356
872.274719,1407
872.391968,1403
872.509155,1388
872.626465,1365
872.743652,1397
872.860962,1405
872.978149,1379
873.095337,1380
873.212646,1383
873.329834,1352
873.44696,1403
873.564209,1371
873.681396,1390
873.798645,1384
873.915894,1409
874.03302,1401
874.150208,1372
874.267456,1438
874.384583,1356
874.501831,1402
874.618958,1371
874.736145,1373
874.853333,1367
874.970459,1405
875.087646,1393
875.204834,1338
875.32196,1367
875.439148,1414
875.556274,1395
875.673401,1404
875.790527,1360
875.907715,1374
876.024841,1383
876.141968,1401
876.259094,1377
876.376282,1409
876.493347,1340
876.610474,1418
876.7276,1400
876.844727,1425
876.961853,1383
877.078918,1407
877.195984,1370
877.313171,1408
877.430237,1409
877.547302,1397
877.664368,1374
877.781433,1393
877.898499,1402
878.015625,1406
878.13269,1390
878.249695,1413
878.366821,1421
878.483887,1353
878.600952,1361
878.717957,1411
878.834961,1414
878.952087,1376
879.069092,1382
879.186157,1378
879.303162,1406
879.420227,1388
879.537231,1324
879.654236,1434
879.77124,1343
879.888306,1329
880.005249,1418
880.122314,1371
880.239319,1402
880.356323,1414
880.473328,1408
880.590271,1362
880.707275,1346
880.824341,1422
880.941284,1359
881.058228,1398
881.175232,1398
881.292236,1372
881.40918,1398
881.526123,1375
881.643066,1366
881.760071,1379
881.877014,1378
881.993958,1388
882.11084,1384
882.227783,1370
882.344727,1393
882.46167,1363
882.578613,1398
882.695618,1384
882.812439,1386
882.929382,1443
883.046326,1368
883.163208,1394
883.280151,1358
883.397034,1371
883.513916,1361
883.630798,1371
883.747742,1389
883.864563,1436
883.981506,1409
884.098389,1397
884.21521,1396
884.332153,1434
884.448975,1403
884.565796,1398
884.682678,1430
884.7995,1393
884.916443,1438
885.033264,1408
885.150085,1450
885.266968,1419
885.383789,1456
885.500671,1434
885.617493,1453
885.734314,1452
885.851196,1466
885.967896,1423
886.084717,1495
886.201599,1470
886.318359,1462
886.435181,1441
886.552002,1448
886.668762,1464
886.785645,1414
886.902344,1435
887.019165,1406
887.135925,1436
887.252747,1456
887.369446,1482
887.486267,1408
887.603027,1418
887.719788,1419
887.836548,1425
887.953247,1433
888.070068,1418
888.186829,1432
888.303528,1408
888.420288,1395
888.536987,1420
888.653687,1420
888.770447,1427
888.887146,1441
889.003967,1451
889.120667,1413
889.237305,1409
889.354065,1404
889.470703,1406
889.587463,1405
889.704163,1402
889.820862,1367
889.937561,1398
890.054199,1420
890.170837,1459
890.287598,1435
890.404236,1430
890.520874,1423
890.637634,1405
890.754211,1468
890.87085,1435
890.987549,1433
891.104187,1428
891.220886,1404
891.337463,1456
891.454102,1393
891.57074,1493
891.687378,1441
891.804077,1439
891.920654,1390
892.037231,1392
892.15387,1456
892.270447,1409
892.387085,1414
892.503723,1420
892.6203,1441
892.736877,1420
892.853516,1401
892.970032,1417
893.08667,1413
893.203186,1472
893.319763,1428
893.43634,1405
893.552917,1394
893.669556,1427
893.786011,1448
893.902588,1431
894.019165,1445
894.135681,1460
894.252197,1409
894.368835,1458
894.485291,1433
894.601868,1463
894.718384,1429
894.8349,1430
894.951355,1446
895.067932,1419
895.184448,1475
895.300964,1466
895.417419,1448
895.533936,1434
895.650452,1440
895.766907,1449
895.883423,1438
895.999878,1466
896.116333,1430
896.232849,1432
896.349304,1465
896.465759,1409
896.582214,1443
896.698669,1462
896.815125,1420
896.931641,1458
897.048035,1434
897.164551,1473
897.280884,1417
897.397339,1479
897.513794,1466
897.630249,1445
897.746582,1460
897.863098,1400
897.979431,1490
898.095886,1422
898.212341,1468
898.328674,1442
898.445129,1432
898.561462,1448
898.677795,1483
898.794312,1468
898.910645,1420
899.026978,1443
899.143433,1429
899.259766,1473
899.37616,1436
899.492493,1493
899.608765,1456
899.725159,1407
899.841553,1496
899.957947,1458
900.07428,1453
900.190552,1453
900.306946,1454
900.423157,1432
900.53949,1473
900.655884,1454
900.772156,1462
900.888489,1470
901.004822,1466
901.121033,1441
901.237366,1459
901.353699,1431
901.46991,1440
901.586304,1454
901.702515,1456
901.818787,1506
901.93512,1508
902.051331,1455
902.167603,1473
902.283875,1501
902.400085,1437
902.516418,1489
902.632629,1518
902.74884,1492
902.865112,1557
902.981384,1472
903.097595,1486
903.213867,1551
903.330017,1512
903.446289,1563
903.5625,1487
903.67865,1524
903.794922,1481
903.911072,1473
904.027344,1474
904.143494,1478
904.259705,1529
904.375916,1473
904.492065,1510
904.608215,1449
904.724426,1487
904.840576,1473
904.956726,1476
905.072876,1469
905.189087,1465
905.305176,1514
905.421387,1426
905.537537,1508
905.653687,1483
905.769775,1478
905.885925,1493
906.002014,1467
906.118164,1455
906.234314,1522
906.350403,1485
906.466492,1460
906.582642,1468
906.69873,1457
906.814758,1439
906.930908,1468
907.046936,1436
907.163086,1429
907.279175,1456
907.395264,1482
907.511353,1510
907.62738,1462
907.743408,1511
907.859497,1513
907.975525,1516
908.091553,1484
908.207703,1490
908.32373,1474
908.439758,1525
908.555786,1474
908.671814,1477
908.787842,1496
908.90387,1472
909.019775,1456
909.135864,1463
909.251892,1451
909.367859,1475
909.483826,1502
909.599854,1438
909.715881,1454
909.831848,1477
909.947815,1484
910.063782,1525
910.179749,1528
910.295776,1484
910.411743,1477
910.527649,1466
910.643616,1469
910.759583,1492
910.875488,1509
910.991455,1490
911.107361,1441
911.223267,1508
911.339294,1496
911.4552,1478
911.571106,1459
911.687073,1460
911.802979,1460
911.918823,1477
912.034729,1487
912.150635,1508
912.266602,1508
912.382446,1472
912.498352,1483
912.614197,1466
912.730103,1489
912.846008,1437
792.44574,2413
792.56488,2331
792.68396,2385
792.80304,2365
792.92218,2257
793.041199,2275
793.160339,2215
793.279419,2213
793.398499,2260
793.517578,2239
793.636658,2220
793.755737,2260
793.874817,2208
793.993896,2182
794.112976,2207
794.232056,2160
794.351074,2105
794.470215,2117
794.589233,2079
794.708313,2094
794.827393,2031
794.946411,2031
795.065552,2085
795.18457,2051
795.303589,2122
795.422668,2056
795.541687,2051
795.660767,1998
795.779846,2052
795.898865,2001
796.017883,2001
796.136963,1998
796.255981,2010
796.375061,2013
796.49408,2032
796.613037,2017
796.732117,1975
796.851135,2013
796.970154,1967
797.089233,1936
797.208191,1940
797.327271,1989
797.446228,2000
797.565186,1956
797.684265,1980
797.803223,1913
797.922241,1926
798.04126,1993
798.160278,1941
798.279297,1922
798.398315,1958
798.517273,1985
798.636292,1971
798.75531,1909
798.874268,1972
798.993286,1979
799.112244,1920
799.231323,1943
799.350281,1946
799.469238,1971
799.588257,1910
799.707153,1982
799.826111,1930
799.945129,1984
800.064087,1959
800.183044,1917
800.302063,1914
800.421021,1979
800.539978,1935
800.658936,1970
800.777893,1864
800.896912,1934
801.015747,1937
801.134705,1927
801.253723,1940
801.37262,1981
801.491638,1932
801.610535,1970
801.729492,1879
801.84845,1956
801.967407,1960
802.086243,1998
802.205261,1961
802.324158,1991
802.443115,2010
802.562073,2018
802.680969,2002
802.799927,1991
802.918762,1976
803.037659,1930
803.156677,1988
803.275574,1959
803.39447,2023
803.513428,1983
803.632263,1994
803.751221,2011
803.870117,2008
803.989014,2016
804.107971,2007
804.226746,1973
804.345642,2053
804.4646,2001
804.583496,2037
804.702393,1991
804.821228,1984
804.940125,2014
805.059021,2012
805.177917,2037
805.296814,2034
805.415649,2042
805.534546,2039
805.653442,2045
805.772278,1989
805.891113,2066
806.01001,2073
806.128906,2059
806.247742,2032
806.366577,2038
806.485413,2062
806.604309,2098
806.723145,2093
806.84198,2071
806.960876,2034
807.079712,2051
807.198486,2059
807.317383,2099
807.436218,2050
807.554993,2040
807.673889,2073
807.792725,2110
807.91156,2059
808.030396,2101
808.14917,2095
808.268005,2064
808.386841,2070
808.505676,2074
808.624451,1999
808.743286,2075
808.862122,2099
808.980896,2103
809.099731,2105
809.218506,2106
809.337341,2115
809.456116,2082
809.57489,2104
809.693726,2085
809.8125,2104
809.931274,2073
810.050049,2105
810.168884,2126
810.287659,2103
810.406372,2118
810.525269,2118
810.643982,2141
810.762756,2131
810.881531,2115
811.000305,2150
811.11908,2144
811.237854,2148
811.356567,2112
811.475403,2099
811.594116,2118
811.71283,2121
811.831604,2092
811.950378,2101
812.069153,2162
812.187927,2158
812.30658,2157
812.425415,2085
812.544128,2122
812.662781,2120
812.781616,2134
812.900269,2104
813.019043,2118
813.137756,2088
813.256531,2131
813.375244,2131
813.493896,2140
813.612671,2121
813.731384,2079
813.850037,2133
813.96875,2112
814.087524,2119
814.206238,2103
814.324951,2082
814.443604,2119
814.562256,2093
814.68103,2096
814.799683,2123
814.918335,2080
815.037109,2055
815.155762,2041
815.274475,2066
815.393188,2089
815.511841,2015
815.630554,2071
815.749146,2059
815.867859,2025
815.986572,2033
816.105164,2007
816.223877,2023
816.342529,2040
816.461182,2079
816.579895,2015
816.698486,2058
816.817139,2021
816.935791,2063
817.054504,2066
817.173096,2072
817.291748,1974
817.4104,2033
817.529053,1970
817.647644,1946
817.766235,1899
817.884949,1900
818.00354,1859
818.122192,1895
818.240845,1828
818.359436,1731
818.478088,1745
818.59668,1734
818.715271,1676
818.833923,1687
818.952515,1657
819.071106,1627
819.189758,1620
819.30835,1543
819.426941,1595
819.545532,1591
819.664124,1578
819.782715,1536
819.901306,1580
820.019897,1534
820.138489,1586
820.25708,1559
820.375671,1544
820.494202,1552
820.612732,1519
820.731384,1495
820.849915,1554
820.968506,1525
821.087097,1572
821.205627,1543
821.324158,1485
821.442749,1518
821.561279,1482
821.679871,1491
821.798401,1494
821.916931,1458
822.035461,1479
822.154053,1455
822.272583,1520
822.391174,1475
822.509583,1499
822.628174,1444
822.746704,1482
822.865234,1499
822.983765,1449
823.102295,1461
823.220825,1521
823.339294,1444
823.457825,1471
823.576355,1457
823.694824,1497
823.813354,1467
823.931885,1520
824.050354,1486
824.168884,1503
824.287354,1466
824.405823,1492
824.524353,1469
824.642822,1503
824.761353,1543
824.879822,1533
824.998291,1513
825.116699,1453
825.235291,1475
825.353699,1480
825.472168,1503
825.590637,1446
825.709106,1448
825.827576,1426
825.946045,1420
826.064453,1449
826.182983,1417
826.301392,1418
826.4198,1437
826.53833,1462
826.656738,1399
826.775208,1431
826.893677,1425
827.012024,1378
827.130493,1439
827.248962,1407
827.36731,1416
827.485779,1408
827.604248,1384
827.722595,1403
827.841064,1409
827.959412,1405
828.077942,1394
828.196289,1395
828.314636,1429
828.433105,1384
828.551514,1395
828.669861,1383
828.78833,1397
828.906677,1365
829.025085,1424
829.143433,1397
829.261841,1378
829.38031,1382
829.498657,1368
829.617004,1376
829.735413,1363
829.85376,1405
829.972107,1384
830.090515,1365
830.208862,1374
830.327209,1370
830.445557,1375
830.563904,1399
830.682312,1402
830.800659,1413
830.919006,1368
831.037354,1383
831.155701,1367
831.274048,1401
831.392395,1418
831.51062,1346
831.629028,1377
831.747314,1351
831.865662,1396
831.984009,1333
832.102356,1433
832.220642,1348
832.338928,1425
832.457275,1331
832.575623,1372
832.693909,1375
832.812134,1432
832.930481,1362
833.048828,1359
833.167114,1386
833.2854,1359
833.403687,1385
833.521973,1429
833.640259,1379
833.758545,1369
833.876831,1355
833.995056,1364
834.113281,1354
834.231628,1419
834.349915,1386
834.468201,1343
834.586426,1354
834.704651,1386
834.822998,1371
834.941162,1388
835.059448,1372
835.177673,1384
835.295959,1376
835.414246,1400
835.53241,1344
835.650635,1406
835.768921,1368
835.887146,1400
836.005371,1375
836.123596,1377
836.241821,1389
836.360046,1425
836.478271,1426
836.596497,1415
836.714722,1417
836.832886,1380
836.95105,1415
837.069336,1457
837.1875,1442
837.305725,1424
837.423889,1417
837.542053,1507
837.660339,1441
837.778503,1466
837.896667,1429
838.014832,1386
838.132996,1469
838.25116,1427
838.369385,1425
838.487488,1450
838.605713,1418
838.723877,1481
838.84198,1414
838.960205,1454
839.078308,1431
839.196472,1447
839.314636,1439
839.4328,1419
839.550964,1453
839.669067,1414
839.787231,1418
839.905396,1426
840.023499,1490
840.141602,1391
840.259766,1449
840.377869,1417
840.495972,1440
840.614136,1395
840.732239,1429
840.850342,1395
840.968445,1426
841.086548,1423
841.204651,1394
841.322754,1446
841.440918,1394
841.55896,1383
841.677002,1369
841.795166,1369
841.913208,1427
842.031311,1403
842.149353,1430
842.267456,1366
842.385498,1392
842.503601,1354
842.621643,1400
842.739746,1372
842.857788,1404
842.97583,1346
843.093933,1343
843.211975,1385
843.330017,1329
843.44812,1371
843.566101,1334
843.684204,1366
843.802246,1349
843.920227,1372
844.038269,1383
844.156311,1367
844.274292,1359
844.392395,1334
844.510376,1326
844.628357,1377
844.74646,1351
844.864441,1338
844.982422,1359
845.100403,1384
845.218384,1341
845.336426,1324
845.454468,1361
845.572449,1361
845.69043,1359
845.808411,1321
845.926453,1373
846.044373,1342
846.162354,1353
846.280396,1359
846.398315,1349
846.516296,1343
846.634216,1367
846.752197,1329
846.870178,1343
846.988098,1318
847.106079,1336
847.22406,1339
847.34198,1323
847.4599,1343
847.577881,1344
847.695801,1336
847.813782,1359
847.931641,1370
848.049561,1320
848.167603,1329
848.285461,1377
848.403381,1294
848.521362,1342
848.639221,1321
848.75708,1310
848.875,1332
848.99292,1360
849.110901,1336
849.22876,1314
849.34668,1348
849.464539,1304
849.582458,1336
849.700317,1357
849.818176,1357
849.936096,1311
850.053955,1356
850.171875,1336
850.289673,1339
850.407593,1363
850.525452,1335
850.643311,1367
850.761169,1356
850.878967,1354
850.996887,1298
851.114746,1350
851.232544,1334
851.350403,1317
851.468262,1371
851.58606,1357
851.703979,1339
851.821777,1359
851.939636,1337
852.057434,1341
852.175232,1347
852.293091,1361
852.410889,1335
852.528687,1373
852.646545,1380
852.764343,1378
852.88208,1358
852.999939,1406
853.117676,1355
853.235535,1415
853.353271,1397
853.471069,1393
853.588928,1384
853.706604,1410
853.824402,1336
853.9422,1365
854.059998,1357
854.177734,1349
854.295532,1351
854.413269,1367
854.531006,1331
854.648804,1370
854.766541,1389
854.884277,1363
855.002014,1397
855.119751,1375
855.237549,1388
855.355225,1367
855.473022,1388
855.590698,1390
855.708435,1383
855.826172,1359
855.943848,1404
856.061646,1381
856.179321,1432
856.296997,1379
856.414795,1423
856.53241,1405
856.650085,1385
856.767822,1382
856.885559,1364
857.003174,1401
857.120911,1420
857.238586,1440
857.356201,1398
857.473938,1412
857.591614,1420
857.709351,1398
857.826965,1377
857.944641,1352
858.062317,1409
858.179993,1399
858.297668,1375
858.415283,1408
858.532959,1370
858.650574,1405
858.768188,1380
858.885803,1458
859.003479,1339
859.121094,1393
859.23877,1353
859.356384,1391
859.473999,1370
859.591675,1380
859.709229,1425
859.826843,1355
859.944458,1370
860.062012,1388
860.179626,1359
860.297302,1361
860.414856,1388
860.532471,1381
860.650024,1362
860.767639,1364
860.885193,1422
861.002808,1343
861.120361,1381
861.237976,1371
861.35553,1332
861.473022,1381
861.590698,1394
861.708191,1383
861.825745,1378
861.943298,1371
862.060852,1374
862.178406,1371
862.295959,1373
862.413513,1384
862.531006,1327
862.64856,1367
862.766113,1361
862.883667,1361
863.00116,1385
863.118713,1372
863.236206,1405
863.353699,1378
863.471252,1351
863.588745,1408
863.706177,1389
863.82373,1341
863.941162,1373
864.058716,1403
864.176208,1331
864.29364,1409
864.411194,1395
864.528687,1379
864.646118,1415
864.763611,1355
864.881042,1434
864.998535,1374
865.116028,1371
865.233459,1374
865.350891,1378
865.468384,1385
865.585754,1343
865.703308,1377
865.820679,1357
865.938171,1418
866.055542,1415
866.173035,1381
866.290466,1406
866.407837,1361
866.52533,1392
866.6427,1371
866.760071,1392
866.877563,1370
866.994934,1419
867.112305,1398
867.229736,1419
867.347107,1365
867.464539,1404
867.58197,1377
867.699341,1421
867.81665,1431
867.934082,1376
868.051453,1388
868.168823,1367
868.286194,1416
868.403564,1367
868.520935,1446
868.638306,1415
868.755676,1343
868.872986,1397
868.990295,1363
869.107727,1408
869.225037,1411
869.342346,1384
869.459717,1405
869.577026,1420
869.694336,1373
869.811707,1428
869.929016,1382
870.046326,1417
870.163635,1403
870.280945,1389
870.398254,1417
870.515564,1455
870.632812,1405
870.750183,1393
870.867432,1423
870.984741,1370
871.102051,1392
871.219299,1415
871.336609,1389
871.453918,1423
871.571106,1447
871.688416,1423
871.805664,1409
871.922852,1362
872.040222,1451
872.157471,1411
872.274719,1414
872.391968,1444
872.509155,1378
872.626465,1388
872.743652,1393
872.860962,1406
872.978149,1393
873.095337,1427
873.212646,1398
873.329834,1426
873.44696,1357
873.564209,1397
873.681396,1410
873.798645,1389
873.915894,1376
874.03302,1404
874.150208,1412
874.267456,1370
874.384583,1358
874.501831,1392
874.618958,1427
874.736145,1400
874.853333,1471
874.970459,1414
875.087646,1418
875.204834,1382
875.32196,1416
875.439148,1435
875.556274,1396
875.673401,1437
875.790527,1385
875.907715,1391
876.024841,1370
876.141968,1404
876.259094,1373
876.376282,1396
876.493347,1408
876.610474,1372
876.7276,1379
876.844727,1349
876.961853,1417
877.078918,1372
877.195984,1395
877.313171,1384
877.430237,1404
877.547302,1406
877.664368,1408
877.781433,1416
877.898499,1384
878.015625,1386
878.13269,1386
878.249695,1423
878.366821,1415
878.483887,1396
878.600952,1375
878.717957,1352
878.834961,1379
878.952087,1412
879.069092,1401
879.186157,1416
879.303162,1373
879.420227,1395
879.537231,1413
879.654236,1407
879.77124,1366
879.888306,1367
880.005249,1393
880.122314,1419
880.239319,1382
880.356323,1406
880.473328,1370
880.590271,1375
880.707275,1440
880.824341,1369
880.941284,1363
881.058228,1376
881.175232,1396
881.292236,1387
881.40918,1389
881.526123,1382
881.643066,1394
881.760071,1391
881.877014,1393
881.993958,1411
882.11084,1388
882.227783,1402
882.344727,1401
882.46167,1376
882.578613,1395
882.695618,1392
882.812439,1395
882.929382,1390
883.046326,1404
883.163208,1432
883.280151,1411
883.397034,1433
883.513916,1379
883.630798,1408
883.747742,1402
883.864563,1431
883.981506,1448
884.098389,1399
884.21521,1426
884.332153,1453
884.448975,1455
884.565796,1399
884.682678,1443
884.7995,1470
884.916443,1444
885.033264,1439
885.150085,1484
885.266968,1478
885.383789,1458
885.500671,1468
885.617493,1473
885.734314,1450
885.851196,1470
885.967896,1444
886.084717,1456
886.201599,1445
886.318359,1457
886.435181,1475
886.552002,1480
886.668762,1428
886.785645,1484
886.902344,1451
887.019165,1488
887.135925,1421
887.252747,1454
887.369446,1435
887.486267,1453
887.603027,1434
887.719788,1426
887.836548,1476
887.953247,1442
888.070068,1455
888.186829,1450
888.303528,1431
888.420288,1379
888.536987,1420
888.653687,1411
888.770447,1456
888.887146,1447
889.003967,1412
889.120667,1420
889.237305,1408
889.354065,1402
889.470703,1404
889.587463,1405
889.704163,1451
889.820862,1437
889.937561,1457
890.054199,1420
890.170837,1422
890.287598,1459
890.404236,1450
890.520874,1428
890.637634,1474
890.754211,1439
890.87085,1463
890.987549,1425
891.104187,1450
891.220886,1439
891.337463,1440
891.454102,1434
891.57074,1410
891.687378,1435
891.804077,1459
891.920654,1444
892.037231,1456
892.15387,1440
892.270447,1393
892.387085,1438
892.503723,1449
892.6203,1428
892.736877,1454
892.853516,1441
892.970032,1437
893.08667,1432
893.203186,1448
893.319763,1464
893.43634,1444
893.552917,1418
893.669556,1487
893.786011,1459
893.902588,1445
894.019165,1414
894.135681,1438
894.252197,1475
894.368835,1491
894.485291,1426
894.601868,1436
894.718384,1459
894.8349,1450
894.951355,1430
895.067932,1437
895.184448,1450
895.300964,1463
895.417419,1437
895.533936,1441
895.650452,1479
895.766907,1459
895.883423,1461
895.999878,1465
896.116333,1441
896.232849,1431
896.349304,1461
896.465759,1464
896.582214,1467
896.698669,1458
896.815125,1457
896.931641,1465
897.048035,1439
897.164551,1464
897.280884,1438
897.397339,1474
897.513794,1449
897.630249,1418
897.746582,1482
897.863098,1399
897.979431,1437
898.095886,1455
898.212341,1404
898.328674,1462
898.445129,1466
898.561462,1462
898.677795,1486
898.794312,1468
898.910645,1474
899.026978,1472
899.143433,1437
899.259766,1410
899.37616,1434
899.492493,1470
899.608765,1460
899.725159,1460
899.841553,1477
899.957947,1494
900.07428,1508
900.190552,1499
900.306946,1474
900.423157,1471
900.53949,1474
900.655884,1467
900.772156,1484
900.888489,1450
901.004822,1482
901.121033,1450
901.237366,1482
901.353699,1461
901.46991,1507
901.586304,1440
901.702515,1439
901.818787,1425
901.93512,1508
902.051331,1464
902.167603,1489
902.283875,1511
902.400085,1480
902.516418,1489
902.632629,1532
902.74884,1494
902.865112,1492
902.981384,1506
903.097595,1497
903.213867,1469
903.330017,1556
903.446289,1545
903.5625,1524
903.67865,1501
903.794922,1532
903.911072,1530
904.027344,1513
904.143494,1479
904.259705,1527
904.375916,1465
904.492065,1477
904.608215,1488
904.724426,1516
904.840576,1504
904.956726,1492
905.072876,1448
905.189087,1470
905.305176,1514
905.421387,1461
905.537537,1497
905.653687,1525
905.769775,1498
905.885925,1530
906.002014,1490
906.118164,1460
906.234314,1472
906.350403,1495
906.466492,1478
906.582642,1501
906.69873,1470
906.814758,1487
906.930908,1519
907.046936,1486
907.163086,1487
907.279175,1532
907.395264,1474
907.511353,1467
907.62738,1471
907.743408,1486
907.859497,1476
907.975525,1502
908.091553,1525
908.207703,1501
908.32373,1516
908.439758,1464
908.555786,1492
908.671814,1487
908.787842,1525
908.90387,1499
909.019775,1524
909.135864,1461
909.251892,1496
909.367859,1488
909.483826,1479
909.599854,1554
909.715881,1488
909.831848,1508
909.947815,1473
910.063782,1518
910.179749,1521
910.295776,1502
910.411743,1522
910.527649,1472
910.643616,1522
910.759583,1488
910.875488,1467
910.991455,1508
911.107361,1512
911.223267,1526
911.339294,1484
911.4552,1492
911.571106,1516
911.687073,1538
911.802979,1503
911.918823,1496
912.034729,1521
912.150635,1522
912.266602,1506
912.382446,1464
912.498352,1489
912.614197,1526
912.730103,1516
912.846008,1501
