792.44574,1891
792.56488,1841
792.68396,1844
792.80304,1785
792.92218,1777
793.041199,1743
793.160339,1686
793.279419,1732
793.398499,1752
793.517578,1732
793.636658,1654
793.755737,1668
793.874817,1665
793.993896,1679
794.112976,1670
794.232056,1649
794.351074,1677
794.470215,1650
794.589233,1633
794.708313,1618
794.827393,1603
794.946411,1639
795.065552,1609
795.18457,1572
795.303589,1597
795.422668,1620
795.541687,1594
795.660767,1592
795.779846,1566
795.898865,1560
796.017883,1557
796.136963,1557
796.255981,1560
796.375061,1546
796.49408,1531
796.613037,1573
796.732117,1557
796.851135,1551
796.970154,1503
797.089233,1552
797.208191,1522
797.327271,1547
797.446228,1526
797.565186,1541
797.684265,1562
797.803223,1484
797.922241,1528
798.04126,1551
798.160278,1489
798.279297,1537
798.398315,1482
798.517273,1517
798.636292,1496
798.75531,1545
798.874268,1513
798.993286,1520
799.112244,1460
799.231323,1496
799.350281,1489
799.469238,1560
799.588257,1484
799.707153,1521
799.826111,1492
799.945129,1534
800.064087,1519
800.183044,1463
800.302063,1507
800.421021,1520
800.539978,1460
800.658936,1465
800.777893,1495
800.896912,1489
801.015747,1483
801.134705,1507
801.253723,1500
801.37262,1488
801.491638,1494
801.610535,1506
801.729492,1498
801.84845,1464
801.967407,1548
802.086243,1475
802.205261,1494
802.324158,1455
802.443115,1464
802.562073,1473
802.680969,1449
802.799927,1488
802.918762,1454
803.037659,1497
803.156677,1508
803.275574,1454
803.39447,1495
803.513428,1450
803.632263,1470
803.751221,1513
803.870117,1472
803.989014,1447
804.107971,1485
804.226746,1486
804.345642,1495
804.4646,1484
804.583496,1477
804.702393,1481
804.821228,1480
804.940125,1472
805.059021,1472
805.177917,1449
805.296814,1495
805.415649,1473
805.534546,1497
805.653442,1463
805.772278,1451
805.891113,1477
806.01001,1507
806.128906,1433
806.247742,1476
806.366577,1500
806.485413,1455
806.604309,1484
806.723145,1464
806.84198,1467
806.960876,1433
807.079712,1461
807.198486,1491
807.317383,1450
807.436218,1477
807.554993,1493
807.673889,1488
807.792725,1480
807.91156,1480
808.030396,1444
808.14917,1473
808.268005,1460
808.386841,1474
808.505676,1449
808.624451,1447
808.743286,1468
808.862122,1477
808.980896,1449
809.099731,1465
809.218506,1461
809.337341,1514
809.456116,1442
809.57489,1450
809.693726,1464
809.8125,1489
809.931274,1452
810.050049,1497
810.168884,1400
810.287659,1462
810.406372,1482
810.525269,1462
810.643982,1455
810.762756,1451
810.881531,1493
811.000305,1479
811.11908,1471
811.237854,1415
811.356567,1486
811.475403,1449
811.594116,1437
811.71283,1464
811.831604,1469
811.950378,1464
812.069153,1521
812.187927,1451
812.30658,1504
812.425415,1441
812.544128,1465
812.662781,1452
812.781616,1472
812.900269,1419
813.019043,1418
813.137756,1455
813.256531,1465
813.375244,1475
813.493896,1417
813.612671,1431
813.731384,1448
813.850037,1445
813.96875,1444
814.087524,1438
814.206238,1460
814.324951,1421
814.443604,1430
814.562256,1443
814.68103,1439
814.799683,1416
814.918335,1410
815.037109,1450
815.155762,1439
815.274475,1422
815.393188,1426
815.511841,1450
815.630554,1419
815.749146,1466
815.867859,1393
815.986572,1453
816.105164,1413
816.223877,1422
816.342529,1430
816.461182,1436
816.579895,1410
816.698486,1378
816.817139,1440
816.935791,1436
817.054504,1452
817.173096,1450
817.291748,1394
817.4104,1435
817.529053,1401
817.647644,1437
817.766235,1381
817.884949,1390
818.00354,1368
818.122192,1356
818.240845,1390
818.359436,1397
818.478088,1376
818.59668,1425
818.715271,1366
818.833923,1370
818.952515,1354
819.071106,1390
819.189758,1341
819.30835,1392
819.426941,1380
819.545532,1311
819.664124,1348
819.782715,1370
819.901306,1340
820.019897,1339
820.138489,1392
820.25708,1366
820.375671,1358
820.494202,1355
820.612732,1330
820.731384,1364
820.849915,1338
820.968506,1340
821.087097,1356
821.205627,1369
821.324158,1386
821.442749,1383
821.561279,1324
821.679871,1358
821.798401,1311
821.916931,1351
822.035461,1338
822.154053,1308
822.272583,1343
822.391174,1298
822.509583,1328
822.628174,1347
822.746704,1362
822.865234,1283
822.983765,1374
823.102295,1317
823.220825,1322
823.339294,1331
823.457825,1332
823.576355,1311
823.694824,1309
823.813354,1305
823.931885,1331
824.050354,1282
824.168884,1329
824.287354,1293
824.405823,1368
824.524353,1336
824.642822,1314
824.761353,1342
824.879822,1331
824.998291,1336
825.116699,1333
825.235291,1283
825.353699,1336
825.472168,1316
825.590637,1329
825.709106,1309
825.827576,1287
825.946045,1279
826.064453,1296
826.182983,1321
826.301392,1310
826.4198,1287
826.53833,1305
826.656738,1307
826.775208,1341
826.893677,1335
827.012024,1280
827.130493,1301
827.248962,1306
827.36731,1315
827.485779,1305
827.604248,1326
827.722595,1264
827.841064,1301
827.959412,1305
828.077942,1301
828.196289,1296
828.314636,1327
828.433105,1290
828.551514,1279
828.669861,1292
828.78833,1270
828.906677,1306
829.025085,1301
829.143433,1312
829.261841,1272
829.38031,1287
829.498657,1335
829.617004,1277
829.735413,1243
829.85376,1273
829.972107,1300
830.090515,1283
830.208862,1290
830.327209,1301
830.445557,1288
830.563904,1279
830.682312,1317
830.800659,1290
830.919006,1331
831.037354,1281
831.155701,1314
831.274048,1280
831.392395,1271
831.51062,1308
831.629028,1276
831.747314,1275
831.865662,1292
831.984009,1275
832.102356,1281
832.220642,1267
832.338928,1322
832.457275,1265
832.575623,1309
832.693909,1290
832.812134,1302
832.930481,1308
833.048828,1286
833.167114,1281
833.2854,1274
833.403687,1333
833.521973,1284
833.640259,1322
833.758545,1246
833.876831,1266
833.995056,1251
834.113281,1272
834.231628,1256
834.349915,1286
834.468201,1321
834.586426,1323
834.704651,1305
834.822998,1306
834.941162,1268
835.059448,1278
835.177673,1308
835.295959,1286
835.414246,1292
835.53241,1276
835.650635,1268
835.768921,1282
835.887146,1276
836.005371,1292
836.123596,1295
836.241821,1261
836.360046,1283
836.478271,1310
836.596497,1293
836.714722,1274
836.832886,1282
836.95105,1296
837.069336,1317
837.1875,1318
837.305725,1272
837.423889,1309
837.542053,1347
837.660339,1278
837.778503,1311
837.896667,1279
838.014832,1269
838.132996,1338
838.25116,1290
838.369385,1305
838.487488,1268
838.605713,1256
838.723877,1276
838.84198,1289
838.960205,1287
839.078308,1277
839.196472,1327
839.314636,1321
839.4328,1302
839.550964,1285
839.669067,1296
839.787231,1274
839.905396,1275
840.023499,1260
840.141602,1295
840.259766,1302
840.377869,1280
840.495972,1266
840.614136,1298
840.732239,1278
840.850342,1309
840.968445,1242
841.086548,1269
841.204651,1311
841.322754,1329
841.440918,1298
841.55896,1290
841.677002,1283
841.795166,1326
841.913208,1303
842.031311,1336
842.149353,1327
842.267456,1239
842.385498,1294
842.503601,1289
842.621643,1307
842.739746,1308
842.857788,1300
842.97583,1270
843.093933,1292
843.211975,1318
843.330017,1295
843.44812,1325
843.566101,1276
843.684204,1260
843.802246,1274
843.920227,1313
844.038269,1294
844.156311,1271
844.274292,1292
844.392395,1321
844.510376,1257
844.628357,1282
844.74646,1279
844.864441,1286
844.982422,1304
845.100403,1300
845.218384,1292
845.336426,1252
845.454468,1293
845.572449,1270
845.69043,1282
845.808411,1258
845.926453,1283
846.044373,1274
846.162354,1270
846.280396,1267
846.398315,1301
846.516296,1277
846.634216,1279
846.752197,1310
846.870178,1311
846.988098,1259
847.106079,1262
847.22406,1223
847.34198,1265
847.4599,1273
847.577881,1268
847.695801,1310
847.813782,1290
847.931641,1270
848.049561,1267
848.167603,1282
848.285461,1279
848.403381,1263
848.521362,1288
848.639221,1315
848.75708,1241
848.875,1317
848.99292,1300
849.110901,1294
849.22876,1273
849.34668,1269
849.464539,1282
849.582458,1318
849.700317,1267
849.818176,1269
849.936096,1287
850.053955,1290
850.171875,1287
850.289673,1261
850.407593,1288
850.525452,1289
850.643311,1311
850.761169,1300
850.878967,1260
850.996887,1285
851.114746,1280
851.232544,1262
851.350403,1257
851.468262,1274
851.58606,1252
851.703979,1262
851.821777,1326
851.939636,1323
852.057434,1327
852.175232,1333
852.293091,1291
852.410889,1271
852.528687,1313
852.646545,1299
852.764343,1323
852.88208,1319
852.999939,1301
853.117676,1296
853.235535,1286
853.353271,1307
853.471069,1280
853.588928,1299
853.706604,1288
853.824402,1261
853.9422,1311
854.059998,1295
854.177734,1266
854.295532,1267
854.413269,1262
854.531006,1305
854.648804,1284
854.766541,1316
854.884277,1294
855.002014,1357
855.119751,1319
855.237549,1303
855.355225,1325
855.473022,1299
855.590698,1243
855.708435,1306
855.826172,1303
855.943848,1312
856.061646,1313
856.179321,1267
856.296997,1312
856.414795,1327
856.53241,1273
856.650085,1315
856.767822,1262
856.885559,1290
857.003174,1313
857.120911,1301
857.238586,1300
857.356201,1315
857.473938,1330
857.591614,1233
857.709351,1304
857.826965,1327
857.944641,1323
858.062317,1311
858.179993,1287
858.297668,1289
858.415283,1288
858.532959,1289
858.650574,1317
858.768188,1299
858.885803,1287
859.003479,1340
859.121094,1282
859.23877,1302
859.356384,1279
859.473999,1301
859.591675,1286
859.709229,1325
859.826843,1300
859.944458,1245
860.062012,1330
860.179626,1258
860.297302,1275
860.414856,1245
860.532471,1309
860.650024,1302
860.767639,1287
860.885193,1317
861.002808,1308
861.120361,1273
861.237976,1331
861.35553,1329
861.473022,1300
861.590698,1299
861.708191,1277
861.825745,1321
861.943298,1321
862.060852,1282
862.178406,1296
862.295959,1294
862.413513,1307
862.531006,1258
862.64856,1270
862.766113,1290
862.883667,1256
863.00116,1249
863.118713,1302
863.236206,1319
863.353699,1278
863.471252,1305
863.588745,1275
863.706177,1285
863.82373,1322
863.941162,1302
864.058716,1278
864.176208,1282
864.29364,1280
864.411194,1255
864.528687,1253
864.646118,1259
864.763611,1278
864.881042,1292
864.998535,1322
865.116028,1251
865.233459,1280
865.350891,1292
865.468384,1282
865.585754,1310
865.703308,1303
865.820679,1329
865.938171,1328
866.055542,1342
866.173035,1291
866.290466,1282
866.407837,1283
866.52533,1268
866.6427,1321
866.760071,1295
866.877563,1309
866.994934,1281
867.112305,1296
867.229736,1336
867.347107,1270
867.464539,1310
867.58197,1301
867.699341,1298
867.81665,1277
867.934082,1283
868.051453,1305
868.168823,1352
868.286194,1295
868.403564,1325
868.520935,1296
868.638306,1314
868.755676,1279
868.872986,1299
868.990295,1331
869.107727,1329
869.225037,1304
869.342346,1297
869.459717,1347
869.577026,1337
869.694336,1357
869.811707,1293
869.929016,1347
870.046326,1332
870.163635,1342
870.280945,1298
870.398254,1366
870.515564,1342
870.632812,1309
870.750183,1334
870.867432,1345
870.984741,1328
871.102051,1314
871.219299,1309
871.336609,1294
871.453918,1382
871.571106,1284
871.688416,1345
871.805664,1360
871.922852,1322
872.040222,1305
872.157471,1312
872.274719,1307
872.391968,1299
872.509155,1283
872.626465,1353
872.743652,1322
872.860962,1322
872.978149,1302
873.095337,1331
873.212646,1333
873.329834,1314
873.44696,1301
873.564209,1295
873.681396,1306
873.798645,1325
873.915894,1297
874.03302,1317
874.150208,1377
874.267456,1342
874.384583,1360
874.501831,1324
874.618958,1307
874.736145,1343
874.853333,1306
874.970459,1339
875.087646,1338
875.204834,1327
875.32196,1320
875.439148,1319
875.556274,1336
875.673401,1339
875.790527,1312
875.907715,1404
876.024841,1298
876.141968,1333
876.259094,1329
876.376282,1302
876.493347,1323
876.610474,1336
876.7276,1357
876.844727,1307
876.961853,1315
877.078918,1277
877.195984,1302
877.313171,1366
877.430237,1318
877.547302,1318
877.664368,1303
877.781433,1346
877.898499,1304
878.015625,1293
878.13269,1301
878.249695,1309
878.366821,1317
878.483887,1295
878.600952,1300
878.717957,1323
878.834961,1344
878.952087,1323
879.069092,1311
879.186157,1320
879.303162,1332
879.420227,1317
879.537231,1308
879.654236,1324
879.77124,1333
879.888306,1335
880.005249,1334
880.122314,1321
880.239319,1275
880.356323,1353
880.473328,1342
880.590271,1300
880.707275,1346
880.824341,1326
880.941284,1320
881.058228,1338
881.175232,1277
881.292236,1339
881.40918,1301
881.526123,1311
881.643066,1320
881.760071,1300
881.877014,1294
881.993958,1353
882.11084,1337
882.227783,1287
882.344727,1334
882.46167,1345
882.578613,1288
882.695618,1366
882.812439,1330
882.929382,1299
883.046326,1336
883.163208,1347
883.280151,1347
883.397034,1290
883.513916,1320
883.630798,1350
883.747742,1330
883.864563,1325
883.981506,1302
884.098389,1350
884.21521,1326
884.332153,1305
884.448975,1356
884.565796,1318
884.682678,1356
884.7995,1402
884.916443,1372
885.033264,1362
885.150085,1394
885.266968,1400
885.383789,1355
885.500671,1388
885.617493,1381
885.734314,1432
885.851196,1366
885.967896,1382
886.084717,1395
886.201599,1410
886.318359,1370
886.435181,1368
886.552002,1408
886.668762,1344
886.785645,1344
886.902344,1392
887.019165,1308
887.135925,1363
887.252747,1340
887.369446,1365
887.486267,1315
887.603027,1349
887.719788,1334
887.836548,1345
887.953247,1341
888.070068,1359
888.186829,1316
888.303528,1333
888.420288,1344
888.536987,1335
888.653687,1331
888.770447,1334
888.887146,1304
889.003967,1360
889.120667,1341
889.237305,1332
889.354065,1313
889.470703,1319
889.587463,1361
889.704163,1384
889.820862,1317
889.937561,1335
890.054199,1345
890.170837,1377
890.287598,1327
890.404236,1332
890.520874,1330
890.637634,1333
890.754211,1355
890.87085,1324
890.987549,1333
891.104187,1370
891.220886,1351
891.337463,1342
891.454102,1365
891.57074,1347
891.687378,1354
891.804077,1353
891.920654,1359
892.037231,1348
892.15387,1332
892.270447,1313
892.387085,1298
892.503723,1355
892.6203,1354
892.736877,1327
892.853516,1323
892.970032,1338
893.08667,1344
893.203186,1370
893.319763,1399
893.43634,1372
893.552917,1357
893.669556,1349
893.786011,1360
893.902588,1359
894.019165,1394
894.135681,1336
894.252197,1355
894.368835,1366
894.485291,1330
894.601868,1331
894.718384,1341
894.8349,1348
894.951355,1341
895.067932,1335
895.184448,1376
895.300964,1396
895.417419,1364
895.533936,1362
895.650452,1381
895.766907,1339
895.883423,1342
895.999878,1323
896.116333,1391
896.232849,1390
896.349304,1344
896.465759,1399
896.582214,1384
896.698669,1365
896.815125,1386
896.931641,1362
897.048035,1352
897.164551,1392
897.280884,1381
897.397339,1349
897.513794,1392
897.630249,1357
897.746582,1373
897.863098,1359
897.979431,1345
898.095886,1378
898.212341,1317
898.328674,1377
898.445129,1389
898.561462,1368
898.677795,1352
898.794312,1403
898.910645,1374
899.026978,1344
899.143433,1361
899.259766,1378
899.37616,1365
899.492493,1363
899.608765,1335
899.725159,1341
899.841553,1334
899.957947,1359
900.07428,1407
900.190552,1372
900.306946,1356
900.423157,1392
900.53949,1354
900.655884,1385
900.772156,1388
900.888489,1367
901.004822,1407
901.121033,1401
901.237366,1359
901.353699,1388
901.46991,1400
901.586304,1411
901.702515,1359
901.818787,1437
901.93512,1368
902.051331,1404
902.167603,1401
902.283875,1439
902.400085,1447
902.516418,1422
902.632629,1398
902.74884,1450
902.865112,1367
902.981384,1382
903.097595,1329
903.213867,1435
903.330017,1378
903.446289,1395
903.5625,1366
903.67865,1402
903.794922,1411
903.911072,1411
904.027344,1380
904.143494,1425
904.259705,1411
904.375916,1400
904.492065,1386
904.608215,1401
904.724426,1336
904.840576,1412
904.956726,1380
905.072876,1355
905.189087,1358
905.305176,1402
905.421387,1373
905.537537,1383
905.653687,1373
905.769775,1364
905.885925,1395
906.002014,1397
906.118164,1374
906.234314,1368
906.350403,1409
906.466492,1384
906.582642,1359
906.69873,1374
906.814758,1334
906.930908,1366
907.046936,1410
907.163086,1320
907.279175,1435
907.395264,1340
907.511353,1406
907.62738,1373
907.743408,1439
907.859497,1368
907.975525,1348
908.091553,1403
908.207703,1392
908.32373,1374
908.439758,1392
908.555786,1391
908.671814,1379
908.787842,1366
908.90387,1408
909.019775,1376
909.135864,1395
909.251892,1399
909.367859,1383
909.483826,1368
909.599854,1442
909.715881,1391
909.831848,1400
909.947815,1394
910.063782,1415
910.179749,1431
910.295776,1398
910.411743,1380
910.527649,1388
910.643616,1397
910.759583,1405
910.875488,1398
910.991455,1407
911.107361,1388
911.223267,1397
911.339294,1375
911.4552,1392
911.571106,1414
911.687073,1398
911.802979,1382
911.918823,1380
912.034729,1438
912.150635,1377
912.266602,1409
912.382446,1391
912.498352,1412
912.614197,1360
912.730103,1433
912.846008,1362
792.44574,1864
792.56488,1825
792.68396,1873
792.80304,1808
792.92218,1820
793.041199,1758
793.160339,1796
793.279419,1758
793.398499,1734
793.517578,1725
793.636658,1728
793.755737,1691
793.874817,1736
793.993896,1681
794.112976,1696
794.232056,1672
794.351074,1684
794.470215,1702
794.589233,1686
794.708313,1691
794.827393,1599
794.946411,1617
795.065552,1689
795.18457,1665
795.303589,1681
795.422668,1637
795.541687,1641
795.660767,1593
795.779846,1610
795.898865,1608
796.017883,1614
796.136963,1594
796.255981,1652
796.375061,1616
796.49408,1559
796.613037,1584
796.732117,1581
796.851135,1602
796.970154,1558
797.089233,1569
797.208191,1561
797.327271,1533
797.446228,1565
797.565186,1548
797.684265,1587
797.803223,1584
797.922241,1516
798.04126,1576
798.160278,1585
798.279297,1546
798.398315,1529
798.517273,1554
798.636292,1561
798.75531,1588
798.874268,1527
798.993286,1556
799.112244,1533
799.231323,1532
799.350281,1535
799.469238,1583
799.588257,1548
799.707153,1537
799.826111,1542
799.945129,1525
800.064087,1555
800.183044,1537
800.302063,1545
800.421021,1505
800.539978,1531
800.658936,1519
800.777893,1559
800.896912,1518
801.015747,1536
801.134705,1479
801.253723,1507
801.37262,1535
801.491638,1518
801.610535,1561
801.729492,1497
801.84845,1539
801.967407,1476
802.086243,1528
802.205261,1526
802.324158,1546
802.443115,1508
802.562073,1536
802.680969,1551
802.799927,1531
802.918762,1501
803.037659,1505
803.156677,1504
803.275574,1477
803.39447,1499
803.513428,1575
803.632263,1497
803.751221,1550
803.870117,1452
803.989014,1470
804.107971,1490
804.226746,1467
804.345642,1539
804.4646,1527
804.583496,1505
804.702393,1517
804.821228,1549
804.940125,1480
805.059021,1473
805.177917,1519
805.296814,1480
805.415649,1519
805.534546,1481
805.653442,1510
805.772278,1493
805.891113,1478
806.01001,1553
806.128906,1480
806.247742,1547
806.366577,1512
806.485413,1510
806.604309,1519
806.723145,1543
806.84198,1460
806.960876,1529
807.079712,1483
807.198486,1486
807.317383,1519
807.436218,1512
807.554993,1510
807.673889,1511
807.792725,1495
807.91156,1523
808.030396,1487
808.14917,1484
808.268005,1478
808.386841,1522
808.505676,1477
808.624451,1481
808.743286,1502
808.862122,1520
808.980896,1496
809.099731,1542
809.218506,1484
809.337341,1488
809.456116,1517
809.57489,1521
809.693726,1469
809.8125,1478
809.931274,1502
810.050049,1470
810.168884,1465
810.287659,1485
810.406372,1473
810.525269,1456
810.643982,1490
810.762756,1527
810.881531,1462
811.000305,1461
811.11908,1459
811.237854,1497
811.356567,1455
811.475403,1466
811.594116,1485
811.71283,1473
811.831604,1486
811.950378,1479
812.069153,1513
812.187927,1482
812.30658,1476
812.425415,1514
812.544128,1489
812.662781,1449
812.781616,1465
812.900269,1508
813.019043,1469
813.137756,1487
813.256531,1454
813.375244,1475
813.493896,1479
813.612671,1509
813.731384,1475
813.850037,1473
813.96875,1477
814.087524,1482
814.206238,1480
814.324951,1497
814.443604,1455
814.562256,1490
814.68103,1495
814.799683,1423
814.918335,1471
815.037109,1464
815.155762,1455
815.274475,1480
815.393188,1512
815.511841,1449
815.630554,1473
815.749146,1451
815.867859,1459
815.986572,1446
816.105164,1460
816.223877,1463
816.342529,1404
816.461182,1481
816.579895,1424
816.698486,1431
816.817139,1487
816.935791,1485
817.054504,1455
817.173096,1438
817.291748,1458
817.4104,1468
817.529053,1454
817.647644,1426
817.766235,1429
817.884949,1414
818.00354,1404
818.122192,1429
818.240845,1430
818.359436,1393
818.478088,1446
818.59668,1396
818.715271,1379
818.833923,1424
818.952515,1385
819.071106,1378
819.189758,1348
819.30835,1403
819.426941,1365
819.545532,1373
819.664124,1393
819.782715,1392
819.901306,1386
820.019897,1380
820.138489,1392
820.25708,1418
820.375671,1373
820.494202,1392
820.612732,1406
820.731384,1399
820.849915,1359
820.968506,1410
821.087097,1368
821.205627,1376
821.324158,1362
821.442749,1390
821.561279,1366
821.679871,1377
821.798401,1366
821.916931,1363
822.035461,1340
822.154053,1382
822.272583,1352
822.391174,1396
822.509583,1332
822.628174,1351
822.746704,1364
822.865234,1358
822.983765,1342
823.102295,1370
823.220825,1311
823.339294,1377
823.457825,1361
823.576355,1344
823.694824,1349
823.813354,1364
823.931885,1369
824.050354,1380
824.168884,1361
824.287354,1379
824.405823,1357
824.524353,1351
824.642822,1405
824.761353,1369
824.879822,1367
824.998291,1359
825.116699,1349
825.235291,1359
825.353699,1373
825.472168,1335
825.590637,1348
825.709106,1373
825.827576,1361
825.946045,1327
826.064453,1334
826.182983,1324
826.301392,1311
826.4198,1316
826.53833,1368
826.656738,1350
826.775208,1364
826.893677,1306
827.012024,1335
827.130493,1320
827.248962,1331
827.36731,1382
827.485779,1365
827.604248,1351
827.722595,1325
827.841064,1331
827.959412,1280
828.077942,1308
828.196289,1332
828.314636,1274
828.433105,1312
828.551514,1350
828.669861,1340
828.78833,1342
828.906677,1307
829.025085,1340
829.143433,1339
829.261841,1280
829.38031,1334
829.498657,1331
829.617004,1328
829.735413,1305
829.85376,1315
829.972107,1274
830.090515,1286
830.208862,1314
830.327209,1352
830.445557,1340
830.563904,1326
830.682312,1306
830.800659,1308
830.919006,1305
831.037354,1336
831.155701,1324
831.274048,1324
831.392395,1300
831.51062,1311
831.629028,1292
831.747314,1342
831.865662,1285
831.984009,1329
832.102356,1382
832.220642,1292
832.338928,1336
832.457275,1312
832.575623,1325
832.693909,1306
832.812134,1322
832.930481,1321
833.048828,1340
833.167114,1305
833.2854,1286
833.403687,1339
833.521973,1320
833.640259,1325
833.758545,1288
833.876831,1370
833.995056,1319
834.113281,1310
834.231628,1311
834.349915,1276
834.468201,1329
834.586426,1351
834.704651,1320
834.822998,1324
834.941162,1305
835.059448,1346
835.177673,1294
835.295959,1316
835.414246,1344
835.53241,1341
835.650635,1335
835.768921,1340
835.887146,1296
836.005371,1333
836.123596,1282
836.241821,1323
836.360046,1287
836.478271,1279
836.596497,1300
836.714722,1301
836.832886,1298
836.95105,1307
837.069336,1342
837.1875,1306
837.305725,1342
837.423889,1278
837.542053,1332
837.660339,1361
837.778503,1323
837.896667,1333
838.014832,1289
838.132996,1352
838.25116,1307
838.369385,1314
838.487488,1302
838.605713,1315
838.723877,1326
838.84198,1295
838.960205,1290
839.078308,1297
839.196472,1285
839.314636,1342
839.4328,1320
839.550964,1311
839.669067,1299
839.787231,1292
839.905396,1315
840.023499,1328
840.141602,1351
840.259766,1327
840.377869,1319
840.495972,1355
840.614136,1306
840.732239,1320
840.850342,1337
840.968445,1307
841.086548,1322
841.204651,1306
841.322754,1317
841.440918,1337
841.55896,1324
841.677002,1333
841.795166,1325
841.913208,1331
842.031311,1331
842.149353,1330
842.267456,1299
842.385498,1337
842.503601,1330
842.621643,1268
842.739746,1331
842.857788,1296
842.97583,1286
843.093933,1295
843.211975,1332
843.330017,1333
843.44812,1338
843.566101,1312
843.684204,1313
843.802246,1311
843.920227,1323
844.038269,1308
844.156311,1341
844.274292,1320
844.392395,1306
844.510376,1315
844.628357,1296
844.74646,1323
844.864441,1304
844.982422,1313
845.100403,1325
845.218384,1318
845.336426,1304
845.454468,1273
845.572449,1271
845.69043,1328
845.808411,1287
845.926453,1276
846.044373,1283
846.162354,1309
846.280396,1305
846.398315,1274
846.516296,1303
846.634216,1257
846.752197,1270
846.870178,1328
846.988098,1321
847.106079,1295
847.22406,1284
847.34198,1292
847.4599,1306
847.577881,1270
847.695801,1310
847.813782,1308
847.931641,1326
848.049561,1351
848.167603,1261
848.285461,1322
848.403381,1266
848.521362,1316
848.639221,1312
848.75708,1255
848.875,1325
848.99292,1273
849.110901,1307
849.22876,1321
849.34668,1295
849.464539,1279
849.582458,1297
849.700317,1332
849.818176,1322
849.936096,1336
850.053955,1344
850.171875,1292
850.289673,1327
850.407593,1310
850.525452,1369
850.643311,1323
850.761169,1286
850.878967,1312
850.996887,1308
851.114746,1350
851.232544,1325
851.350403,1271
851.468262,1320
851.58606,1344
851.703979,1312
851.821777,1276
851.939636,1306
852.057434,1321
852.175232,1337
852.293091,1318
852.410889,1357
852.528687,1357
852.646545,1315
852.764343,1340
852.88208,1321
852.999939,1326
853.117676,1350
853.235535,1299
853.353271,1343
853.471069,1283
853.588928,1325
853.706604,1306
853.824402,1335
853.9422,1319
854.059998,1280
854.177734,1302
854.295532,1300
854.413269,1347
854.531006,1323
854.648804,1291
854.766541,1321
854.884277,1321
855.002014,1304
855.119751,1303
855.237549,1347
855.355225,1352
855.473022,1318
855.590698,1258
855.708435,1356
855.826172,1308
855.943848,1322
856.061646,1312
856.179321,1289
856.296997,1308
856.414795,1287
856.53241,1319
856.650085,1333
856.767822,1347
856.885559,1335
857.003174,1315
857.120911,1324
857.238586,1322
857.356201,1300
857.473938,1315
857.591614,1298
857.709351,1301
857.826965,1311
857.944641,1316
858.062317,1306
858.179993,1332
858.297668,1313
858.415283,1362
858.532959,1309
858.650574,1352
858.768188,1359
858.885803,1375
859.003479,1296
859.121094,1315
859.23877,1310
859.356384,1330
859.473999,1325
859.591675,1324
859.709229,1376
859.826843,1311
859.944458,1319
860.062012,1320
860.179626,1339
860.297302,1293
860.414856,1321
860.532471,1319
860.650024,1317
860.767639,1356
860.885193,1307
861.002808,1284
861.120361,1335
861.237976,1355
861.35553,1331
861.473022,1294
861.590698,1317
861.708191,1350
861.825745,1286
861.943298,1365
862.060852,1297
862.178406,1357
862.295959,1337
862.413513,1322
862.531006,1332
862.64856,1315
862.766113,1324
862.883667,1322
863.00116,1331
863.118713,1333
863.236206,1322
863.353699,1323
863.471252,1322
863.588745,1328
863.706177,1311
863.82373,1292
863.941162,1341
864.058716,1317
864.176208,1305
864.29364,1328
864.411194,1352
864.528687,1305
864.646118,1333
864.763611,1269
864.881042,1328
864.998535,1355
865.116028,1313
865.233459,1307
865.350891,1341
865.468384,1351
865.585754,1333
865.703308,1304
865.820679,1351
865.938171,1316
866.055542,1344
866.173035,1320
866.290466,1355
866.407837,1313
866.52533,1344
866.6427,1302
866.760071,1364
866.877563,1325
866.994934,1325
867.112305,1318
867.229736,1342
867.347107,1348
867.464539,1312
867.58197,1324
867.699341,1313
867.81665,1326
867.934082,1322
868.051453,1336
868.168823,1336
868.286194,1315
868.403564,1316
868.520935,1367
868.638306,1359
868.755676,1347
868.872986,1357
868.990295,1333
869.107727,1363
869.225037,1330
869.342346,1373
869.459717,1322
869.577026,1326
869.694336,1321
869.811707,1344
869.929016,1346
870.046326,1364
870.163635,1320
870.280945,1341
870.398254,1294
870.515564,1355
870.632812,1351
870.750183,1379
870.867432,1349
870.984741,1355
871.102051,1341
871.219299,1313
871.336609,1388
871.453918,1318
871.571106,1342
871.688416,1354
871.805664,1368
871.922852,1381
872.040222,1348
872.157471,1359
872.274719,1378
872.391968,1390
872.509155,1333
872.626465,1335
872.743652,1319
872.860962,1370
872.978149,1323
873.095337,1351
873.212646,1388
873.329834,1343
873.44696,1319
873.564209,1356
873.681396,1306
873.798645,1359
873.915894,1341
874.03302,1342
874.150208,1383
874.267456,1317
874.384583,1323
874.501831,1372
874.618958,1374
874.736145,1329
874.853333,1317
874.970459,1350
875.087646,1331
875.204834,1346
875.32196,1359
875.439148,1345
875.556274,1328
875.673401,1352
875.790527,1366
875.907715,1335
876.024841,1374
876.141968,1381
876.259094,1313
876.376282,1352
876.493347,1356
876.610474,1400
876.7276,1351
876.844727,1338
876.961853,1360
877.078918,1399
877.195984,1368
877.313171,1351
877.430237,1389
877.547302,1367
877.664368,1324
877.781433,1346
877.898499,1342
878.015625,1325
878.13269,1340
878.249695,1385
878.366821,1380
878.483887,1330
878.600952,1345
878.717957,1360
878.834961,1340
878.952087,1368
879.069092,1345
879.186157,1393
879.303162,1308
879.420227,1379
879.537231,1303
879.654236,1358
879.77124,1349
879.888306,1350
880.005249,1384
880.122314,1370
880.239319,1354
880.356323,1363
880.473328,1346
880.590271,1350
880.707275,1317
880.824341,1330
880.941284,1348
881.058228,1353
881.175232,1316
881.292236,1349
881.40918,1341
881.526123,1322
881.643066,1335
881.760071,1361
881.877014,1340
881.993958,1339
882.11084,1352
882.227783,1348
882.344727,1367
882.46167,1362
882.578613,1322
882.695618,1330
882.812439,1331
882.929382,1370
883.046326,1340
883.163208,1369
883.280151,1284
883.397034,1363
883.513916,1380
883.630798,1389
883.747742,1358
883.864563,1368
883.981506,1374
884.098389,1377
884.21521,1319
884.332153,1349
884.448975,1366
884.565796,1394
884.682678,1398
884.7995,1392
884.916443,1379
885.033264,1404
885.150085,1408
885.266968,1414
885.383789,1400
885.500671,1423
885.617493,1409
885.734314,1419
885.851196,1388
885.967896,1394
886.084717,1424
886.201599,1411
886.318359,1424
886.435181,1420
886.552002,1400
886.668762,1401
886.785645,1386
886.902344,1411
887.019165,1438
887.135925,1390
887.252747,1377
887.369446,1392
887.486267,1408
887.603027,1368
887.719788,1396
887.836548,1367
887.953247,1385
888.070068,1361
888.186829,1368
888.303528,1366
888.420288,1352
888.536987,1356
888.653687,1388
888.770447,1392
888.887146,1376
889.003967,1371
889.120667,1369
889.237305,1375
889.354065,1353
889.470703,1329
889.587463,1402
889.704163,1374
889.820862,1326
889.937561,1374
890.054199,1363
890.170837,1338
890.287598,1340
890.404236,1370
890.520874,1367
890.637634,1379
890.754211,1376
890.87085,1392
890.987549,1379
891.104187,1373
891.220886,1350
891.337463,1319
891.454102,1389
891.57074,1376
891.687378,1416
891.804077,1404
891.920654,1360
892.037231,1417
892.15387,1369
892.270447,1334
892.387085,1419
892.503723,1361
892.6203,1382
892.736877,1340
892.853516,1358
892.970032,1406
893.08667,1380
893.203186,1387
893.319763,1414
893.43634,1406
893.552917,1395
893.669556,1369
893.786011,1355
893.902588,1376
894.019165,1377
894.135681,1393
894.252197,1391
894.368835,1385
894.485291,1404
894.601868,1389
894.718384,1397
894.8349,1421
894.951355,1387
895.067932,1398
895.184448,1425
895.300964,1390
895.417419,1414
895.533936,1368
895.650452,1346
895.766907,1372
895.883423,1392
895.999878,1400
896.116333,1429
896.232849,1358
896.349304,1374
896.465759,1403
896.582214,1417
896.698669,1387
896.815125,1408
896.931641,1379
897.048035,1381
897.164551,1425
897.280884,1405
897.397339,1379
897.513794,1381
897.630249,1391
897.746582,1374
897.863098,1443
897.979431,1379
898.095886,1394
898.212341,1412
898.328674,1419
898.445129,1387
898.561462,1395
898.677795,1366
898.794312,1415
898.910645,1369
899.026978,1425
899.143433,1352
899.259766,1381
899.37616,1365
899.492493,1396
899.608765,1378
899.725159,1419
899.841553,1397
899.957947,1363
900.07428,1420
900.190552,1455
900.306946,1404
900.423157,1412
900.53949,1389
900.655884,1401
900.772156,1419
900.888489,1401
901.004822,1384
901.121033,1434
901.237366,1403
901.353699,1407
901.46991,1377
901.586304,1428
901.702515,1421
901.818787,1387
901.93512,1417
902.051331,1404
902.167603,1463
902.283875,1449
902.400085,1445
902.516418,1423
902.632629,1463
902.74884,1411
902.865112,1445
902.981384,1437
903.097595,1455
903.213867,1421
903.330017,1423
903.446289,1437
903.5625,1425
903.67865,1414
903.794922,1443
903.911072,1420
904.027344,1427
904.143494,1417
904.259705,1403
904.375916,1423
904.492065,1436
904.608215,1418
904.724426,1455
904.840576,1402
904.956726,1384
905.072876,1455
905.189087,1375
905.305176,1434
905.421387,1406
905.537537,1440
905.653687,1394
905.769775,1447
905.885925,1442
906.002014,1366
906.118164,1412
906.234314,1396
906.350403,1439
906.466492,1415
906.582642,1430
906.69873,1456
906.814758,1398
906.930908,1453
907.046936,1396
907.163086,1449
907.279175,1432
907.395264,1389
907.511353,1435
907.62738,1412
907.743408,1422
907.859497,1446
907.975525,1420
908.091553,1433
908.207703,1406
908.32373,1451
908.439758,1398
908.555786,1442
908.671814,1419
908.787842,1395
908.90387,1471
909.019775,1411
909.135864,1427
909.251892,1440
909.367859,1430
909.483826,1417
909.599854,1415
909.715881,1448
909.831848,1427
909.947815,1446
910.063782,1458
910.179749,1418
910.295776,1395
910.411743,1423
910.527649,1415
910.643616,1454
910.759583,1437
910.875488,1445
910.991455,1428
911.107361,1429
911.223267,1427
911.339294,1449
911.4552,1439
911.571106,1475
911.687073,1424
911.802979,1433
911.918823,1435
912.034729,1428
912.150635,1446
912.266602,1440
912.382446,1419
912.498352,1423
912.614197,1434
912.730103,1449
912.846008,1423
792.44574,1887
792.56488,1874
792.68396,1926
792.80304,1820
792.92218,1735
793.041199,1804
793.160339,1783
793.279419,1756
793.398499,1735
793.517578,1749
793.636658,1736
793.755737,1708
793.874817,1759
793.993896,1767
794.112976,1744
794.232056,1709
794.351074,1699
794.470215,1691
794.589233,1688
794.708313,1675
794.827393,1685
794.946411,1621
795.065552,1613
795.18457,1625
795.303589,1648
795.422668,1643
795.541687,1688
795.660767,1683
795.779846,1585
795.898865,1619
796.017883,1614
796.136963,1614
796.255981,1631
796.375061,1589
796.49408,1662
796.613037,1564
796.732117,1645
796.851135,1566
796.970154,1587
797.089233,1602
797.208191,1581
797.327271,1563
797.446228,1585
797.565186,1580
797.684265,1585
797.803223,1564
797.922241,1586
798.04126,1574
798.160278,1613
798.279297,1528
798.398315,1559
798.517273,1578
798.636292,1522
798.75531,1539
798.874268,1558
798.993286,1561
799.112244,1549
799.231323,1567
799.350281,1545
799.469238,1532
799.588257,1579
799.707153,1590
799.826111,1554
799.945129,1552
800.064087,1540
800.183044,1518
800.302063,1529
800.421021,1536
800.539978,1518
800.658936,1502
800.777893,1548
800.896912,1460
801.015747,1540
801.134705,1553
801.253723,1612
801.37262,1522
801.491638,1525
801.610535,1541
801.729492,1549
801.84845,1509
801.967407,1539
802.086243,1497
802.205261,1535
802.324158,1509
802.443115,1533
802.562073,1540
802.680969,1544
802.799927,1531
802.918762,1539
803.037659,1520
803.156677,1528
803.275574,1478
803.39447,1534
803.513428,1510
803.632263,1542
803.751221,1559
803.870117,1499
803.989014,1522
804.107971,1499
804.226746,1526
804.345642,1552
804.4646,1587
804.583496,1547
804.702393,1497
804.821228,1526
804.940125,1540
805.059021,1503
805.177917,1527
805.296814,1539
805.415649,1588
805.534546,1518
805.653442,1498
805.772278,1502
805.891113,1522
806.01001,1557
806.128906,1514
806.247742,1512
806.366577,1536
806.485413,1565
806.604309,1520
806.723145,1513
806.84198,1477
806.960876,1533
807.079712,1500
807.198486,1558
807.317383,1541
807.436218,1500
807.554993,1510
807.673889,1512
807.792725,1485
807.91156,1521
808.030396,1529
808.14917,1490
808.268005,1490
808.386841,1532
808.505676,1465
808.624451,1475
808.743286,1491
808.862122,1482
808.980896,1516
809.099731,1529
809.218506,1470
809.337341,1495
809.456116,1467
809.57489,1520
809.693726,1512
809.8125,1542
809.931274,1508
810.050049,1518
810.168884,1514
810.287659,1537
810.406372,1473
810.525269,1522
810.643982,1482
810.762756,1515
810.881531,1477
811.000305,1495
811.11908,1469
811.237854,1506
811.356567,1521
811.475403,1491
811.594116,1509
811.71283,1509
811.831604,1503
811.950378,1486
812.069153,1498
812.187927,1500
812.30658,1535
812.425415,1495
812.544128,1518
812.662781,1484
812.781616,1535
812.900269,1514
813.019043,1479
813.137756,1503
813.256531,1506
813.375244,1507
813.493896,1510
813.612671,1474
813.731384,1512
813.850037,1512
813.96875,1436
814.087524,1489
814.206238,1483
814.324951,1475
814.443604,1485
814.562256,1527
814.68103,1444
814.799683,1521
814.918335,1479
815.037109,1495
815.155762,1480
815.274475,1485
815.393188,1471
815.511841,1441
815.630554,1453
815.749146,1428
815.867859,1454
815.986572,1487
816.105164,1444
816.223877,1480
816.342529,1461
816.461182,1488
816.579895,1448
816.698486,1481
816.817139,1450
816.935791,1505
817.054504,1420
817.173096,1456
817.291748,1424
817.4104,1512
817.529053,1465
817.647644,1458
817.766235,1425
817.884949,1430
818.00354,1414
818.122192,1432
818.240845,1448
818.359436,1423
818.478088,1441
818.59668,1427
818.715271,1424
818.833923,1406
818.952515,1393
819.071106,1412
819.189758,1417
819.30835,1373
819.426941,1389
819.545532,1386
819.664124,1373
819.782715,1404
819.901306,1417
820.019897,1399
820.138489,1381
820.25708,1423
820.375671,1401
820.494202,1393
820.612732,1383
820.731384,1429
820.849915,1377
820.968506,1373
821.087097,1396
821.205627,1379
821.324158,1374
821.442749,1392
821.561279,1391
821.679871,1392
821.798401,1374
821.916931,1394
822.035461,1331
822.154053,1356
822.272583,1385
822.391174,1334
822.509583,1385
822.628174,1349
822.746704,1361
822.865234,1381
822.983765,1330
823.102295,1345
823.220825,1389
823.339294,1361
823.457825,1390
823.576355,1378
823.694824,1350
823.813354,1376
823.931885,1381
824.050354,1404
824.168884,1348
824.287354,1343
824.405823,1345
824.524353,1391
824.642822,1379
824.761353,1393
824.879822,1378
824.998291,1353
825.116699,1323
825.235291,1365
825.353699,1338
825.472168,1375
825.590637,1319
825.709106,1405
825.827576,1337
825.946045,1370
826.064453,1330
826.182983,1345
826.301392,1365
826.4198,1366
826.53833,1367
826.656738,1353
826.775208,1303
826.893677,1377
827.012024,1343
827.130493,1366
827.248962,1347
827.36731,1328
827.485779,1348
827.604248,1368
827.722595,1375
827.841064,1344
827.959412,1343
828.077942,1330
828.196289,1306
828.314636,1366
828.433105,1337
828.551514,1314
828.669861,1312
828.78833,1356
828.906677,1326
829.025085,1325
829.143433,1347
829.261841,1346
829.38031,1314
829.498657,1331
829.617004,1325
829.735413,1370
829.85376,1302
829.972107,1314
830.090515,1364
830.208862,1337
830.327209,1326
830.445557,1331
830.563904,1308
830.682312,1312
830.800659,1326
830.919006,1307
831.037354,1344
831.155701,1331
831.274048,1347
831.392395,1325
831.51062,1303
831.629028,1350
831.747314,1286
831.865662,1326
831.984009,1328
832.102356,1320
832.220642,1348
832.338928,1350
832.457275,1338
832.575623,1336
832.693909,1292
832.812134,1326
832.930481,1368
833.048828,1325
833.167114,1323
833.2854,1340
833.403687,1387
833.521973,1316
833.640259,1337
833.758545,1338
833.876831,1334
833.995056,1312
834.113281,1295
834.231628,1327
834.349915,1322
834.468201,1323
834.586426,1374
834.704651,1357
834.822998,1316
834.941162,1338
835.059448,1309
835.177673,1367
835.295959,1314
835.414246,1369
835.53241,1348
835.650635,1306
835.768921,1310
835.887146,1339
836.005371,1282
836.123596,1334
836.241821,1335
836.360046,1341
836.478271,1306
836.596497,1353
836.714722,1288
836.832886,1349
836.95105,1325
837.069336,1342
837.1875,1296
837.305725,1351
837.423889,1346
837.542053,1366
837.660339,1356
837.778503,1317
837.896667,1349
838.014832,1330
838.132996,1310
838.25116,1308
838.369385,1303
838.487488,1346
838.605713,1329
838.723877,1318
838.84198,1297
838.960205,1294
839.078308,1353
839.196472,1341
839.314636,1315
839.4328,1312
839.550964,1285
839.669067,1329
839.787231,1357
839.905396,1318
840.023499,1361
840.141602,1335
840.259766,1340
840.377869,1360
840.495972,1344
840.614136,1331
840.732239,1315
840.850342,1328
840.968445,1328
841.086548,1331
841.204651,1330
841.322754,1362
841.440918,1306
841.55896,1341
841.677002,1314
841.795166,1367
841.913208,1301
842.031311,1338
842.149353,1317
842.267456,1351
842.385498,1341
842.503601,1319
842.621643,1316
842.739746,1335
842.857788,1303
842.97583,1330
843.093933,1320
843.211975,1293
843.330017,1350
843.44812,1314
843.566101,1312
843.684204,1351
843.802246,1298
843.920227,1332
844.038269,1346
844.156311,1338
844.274292,1372
844.392395,1308
844.510376,1307
844.628357,1295
844.74646,1286
844.864441,1308
844.982422,1328
845.100403,1296
845.218384,1284
845.336426,1298
845.454468,1276
845.572449,1310
845.69043,1318
845.808411,1309
845.926453,1309
846.044373,1317
846.162354,1309
846.280396,1314
846.398315,1312
846.516296,1299
846.634216,1351
846.752197,1323
846.870178,1314
846.988098,1332
847.106079,1321
847.22406,1302
847.34198,1309
847.4599,1332
847.577881,1319
847.695801,1333
847.813782,1314
847.931641,1335
848.049561,1279
848.167603,1314
848.285461,1323
848.403381,1352
848.521362,1347
848.639221,1306
848.75708,1347
848.875,1335
848.99292,1310
849.110901,1306
849.22876,1329
849.34668,1306
849.464539,1327
849.582458,1306
849.700317,1370
849.818176,1317
849.936096,1309
850.053955,1352
850.171875,1335
850.289673,1300
850.407593,1329
850.525452,1325
850.643311,1376
850.761169,1297
850.878967,1288
850.996887,1337
851.114746,1300
851.232544,1322
851.350403,1329
851.468262,1317
851.58606,1308
851.703979,1283
851.821777,1328
851.939636,1341
852.057434,1328
852.175232,1330
852.293091,1349
852.410889,1336
852.528687,1323
852.646545,1334
852.764343,1321
852.88208,1310
852.999939,1364
853.117676,1319
853.235535,1304
853.353271,1341
853.471069,1346
853.588928,1294
853.706604,1303
853.824402,1317
853.9422,1317
854.059998,1313
854.177734,1298
854.295532,1309
854.413269,1342
854.531006,1363
854.648804,1346
854.766541,1317
854.884277,1290
855.002014,1327
855.119751,1341
855.237549,1351
855.355225,1328
855.473022,1337
855.590698,1328
855.708435,1340
855.826172,1319
855.943848,1343
856.061646,1308
856.179321,1316
856.296997,1318
856.414795,1352
856.53241,1321
856.650085,1327
856.767822,1300
856.885559,1322
857.003174,1335
857.120911,1349
857.238586,1306
857.356201,1373
857.473938,1353
857.591614,1340
857.709351,1314
857.826965,1290
857.944641,1334
858.062317,1329
858.179993,1334
858.297668,1343
858.415283,1372
858.532959,1345
858.650574,1337
858.768188,1365
858.885803,1364
859.003479,1307
859.121094,1323
859.23877,1350
859.356384,1345
859.473999,1343
859.591675,1325
859.709229,1373
859.826843,1300
859.944458,1309
860.062012,1333
860.179626,1328
860.297302,1330
860.414856,1347
860.532471,1329
860.650024,1354
860.767639,1327
860.885193,1358
861.002808,1338
861.120361,1328
861.237976,1348
861.35553,1342
861.473022,1319
861.590698,1280
861.708191,1339
861.825745,1341
861.943298,1360
862.060852,1295
862.178406,1321
862.295959,1306
862.413513,1337
862.531006,1324
862.64856,1306
862.766113,1333
862.883667,1366
863.00116,1350
863.118713,1307
863.236206,1352
863.353699,1328
863.471252,1341
863.588745,1317
863.706177,1406
863.82373,1324
863.941162,1324
864.058716,1304
864.176208,1332
864.29364,1296
864.411194,1330
864.528687,1327
864.646118,1360
864.763611,1318
864.881042,1357
864.998535,1341
865.116028,1347
865.233459,1322
865.350891,1312
865.468384,1359
865.585754,1360
865.703308,1364
865.820679,1368
865.938171,1322
866.055542,1344
866.173035,1321
866.290466,1349
866.407837,1330
866.52533,1382
866.6427,1298
866.760071,1330
866.877563,1341
866.994934,1335
867.112305,1331
867.229736,1379
867.347107,1322
867.464539,1322
867.58197,1323
867.699341,1352
867.81665,1382
867.934082,1302
868.051453,1324
868.168823,1343
868.286194,1325
868.403564,1317
868.520935,1322
868.638306,1376
868.755676,1316
868.872986,1338
868.990295,1360
869.107727,1355
869.225037,1358
869.342346,1314
869.459717,1365
869.577026,1337
869.694336,1354
869.811707,1328
869.929016,1351
870.046326,1324
870.163635,1359
870.280945,1365
870.398254,1349
870.515564,1389
870.632812,1351
870.750183,1372
870.867432,1379
870.984741,1358
871.102051,1356
871.219299,1329
871.336609,1384
871.453918,1343
871.571106,1363
871.688416,1396
871.805664,1357
871.922852,1367
872.040222,1388
872.157471,1367
872.274719,1367
872.391968,1365
872.509155,1355
872.626465,1373
872.743652,1354
872.860962,1360
872.978149,1351
873.095337,1363
873.212646,1398
873.329834,1384
873.44696,1416
873.564209,1337
873.681396,1322
873.798645,1363
873.915894,1305
874.03302,1360
874.150208,1401
874.267456,1367
874.384583,1381
874.501831,1398
874.618958,1376
874.736145,1344
874.853333,1393
874.970459,1382
875.087646,1375
875.204834,1377
875.32196,1380
875.439148,1357
875.556274,1388
875.673401,1361
875.790527,1371
875.907715,1370
876.024841,1373
876.141968,1346
876.259094,1344
876.376282,1351
876.493347,1390
876.610474,1396
876.7276,1366
876.844727,1370
876.961853,1347
877.078918,1350
877.195984,1352
877.313171,1364
877.430237,1387
877.547302,1347
877.664368,1326
877.781433,1320
877.898499,1371
878.015625,1333
878.13269,1376
878.249695,1313
878.366821,1375
878.483887,1338
878.600952,1350
878.717957,1311
878.834961,1375
878.952087,1372
879.069092,1377
879.186157,1335
879.303162,1335
879.420227,1334
879.537231,1367
879.654236,1317
879.77124,1363
879.888306,1320
880.005249,1359
880.122314,1365
880.239319,1374
880.356323,1360
880.473328,1351
880.590271,1363
880.707275,1390
880.824341,1367
880.941284,1333
881.058228,1366
881.175232,1349
881.292236,1364
881.40918,1351
881.526123,1316
881.643066,1362
881.760071,1399
881.877014,1375
881.993958,1359
882.11084,1373
882.227783,1363
882.344727,1372
882.46167,1313
882.578613,1306
882.695618,1342
882.812439,1368
882.929382,1397
883.046326,1389
883.163208,1385
883.280151,1357
883.397034,1390
883.513916,1355
883.630798,1361
883.747742,1354
883.864563,1370
883.981506,1348
884.098389,1371
884.21521,1353
884.332153,1360
884.448975,1412
884.565796,1385
884.682678,1401
884.7995,1378
884.916443,1409
885.033264,1410
885.150085,1421
885.266968,1422
885.383789,1386
885.500671,1423
885.617493,1395
885.734314,1439
885.851196,1426
885.967896,1392
886.084717,1408
886.201599,1405
886.318359,1457
886.435181,1400
886.552002,1385
886.668762,1388
886.785645,1396
886.902344,1356
887.019165,1396
887.135925,1431
887.252747,1393
887.369446,1412
887.486267,1392
887.603027,1410
887.719788,1393
887.836548,1396
887.953247,1418
888.070068,1384
888.186829,1376
888.303528,1399
888.420288,1398
888.536987,1371
888.653687,1389
888.770447,1366
888.887146,1383
889.003967,1364
889.120667,1404
889.237305,1396
889.354065,1394
889.470703,1390
889.587463,1354
889.704163,1387
889.820862,1379
889.937561,1395
890.054199,1360
890.170837,1376
890.287598,1363
890.404236,1423
890.520874,1386
890.637634,1377
890.754211,1380
890.87085,1388
890.987549,1384
891.104187,1407
891.220886,1378
891.337463,1407
891.454102,1383
891.57074,1395
891.687378,1414
891.804077,1399
891.920654,1397
892.037231,1417
892.15387,1425
892.270447,1401
892.387085,1379
892.503723,1381
892.6203,1424
892.736877,1416
892.853516,1383
892.970032,1358
893.08667,1391
893.203186,1383
893.319763,1446
893.43634,1377
893.552917,1398
893.669556,1387
893.786011,1370
893.902588,1398
894.019165,1379
894.135681,1391
894.252197,1390
894.368835,1378
894.485291,1387
894.601868,1408
894.718384,1404
894.8349,1388
894.951355,1413
895.067932,1389
895.184448,1421
895.300964,1347
895.417419,1378
895.533936,1365
895.650452,1386
895.766907,1402
895.883423,1400
895.999878,1420
896.116333,1396
896.232849,1387
896.349304,1417
896.465759,1408
896.582214,1439
896.698669,1407
896.815125,1359
896.931641,1409
897.048035,1419
897.164551,1408
897.280884,1422
897.397339,1374
897.513794,1460
897.630249,1367
897.746582,1422
897.863098,1392
897.979431,1427
898.095886,1421
898.212341,1409
898.328674,1420
898.445129,1406
898.561462,1420
898.677795,1426
898.794312,1410
898.910645,1405
899.026978,1403
899.143433,1405
899.259766,1415
899.37616,1391
899.492493,1448
899.608765,1386
899.725159,1398
899.841553,1373
899.957947,1478
900.07428,1409
900.190552,1409
900.306946,1419
900.423157,1438
900.53949,1403
900.655884,1395
900.772156,1410
900.888489,1399
901.004822,1421
901.121033,1408
901.237366,1429
901.353699,1452
901.46991,1401
901.586304,1424
901.702515,1441
901.818787,1441
901.93512,1369
902.051331,1434
902.167603,1405
902.283875,1423
902.400085,1480
902.516418,1457
902.632629,1425
902.74884,1436
902.865112,1444
902.981384,1434
903.097595,1452
903.213867,1401
903.330017,1444
903.446289,1425
903.5625,1427
903.67865,1436
903.794922,1450
903.911072,1444
904.027344,1456
904.143494,1434
904.259705,1462
904.375916,1438
904.492065,1412
904.608215,1436
904.724426,1440
904.840576,1397
904.956726,1428
905.072876,1460
905.189087,1412
905.305176,1449
905.421387,1445
905.537537,1421
905.653687,1405
905.769775,1456
905.885925,1403
906.002014,1460
906.118164,1420
906.234314,1401
906.350403,1412
906.466492,1405
906.582642,1442
906.69873,1415
906.814758,1417
906.930908,1428
907.046936,1415
907.163086,1472
907.279175,1413
907.395264,1416
907.511353,1411
907.62738,1455
907.743408,1480
907.859497,1449
907.975525,1439
908.091553,1408
908.207703,1439
908.32373,1422
908.439758,1448
908.555786,1434
908.671814,1431
908.787842,1410
908.90387,1422
909.019775,1420
909.135864,1449
909.251892,1434
909.367859,1477
909.483826,1416
909.599854,1460
909.715881,1437
909.831848,1454
909.947815,1444
910.063782,1422
910.179749,1474
910.295776,1423
910.411743,1450
910.527649,1409
910.643616,1467
910.759583,1412
910.875488,1444
910.991455,1406
911.107361,1480
911.223267,1473
911.339294,1433
911.4552,1428
911.571106,1451
911.687073,1437
911.802979,1448
911.918823,1440
912.034729,1449
912.150635,1437
912.266602,1411
912.382446,1408
912.498352,1449
912.614197,1427
912.730103,1429
912.846008,1423
