792.44574,2427
792.56488,2417
792.68396,2339
792.80304,2366
792.92218,2300
793.041199,2265
793.160339,2239
793.279419,2231
793.398499,2193
793.517578,2197
793.636658,2131
793.755737,2205
793.874817,2146
793.993896,2180
794.112976,2148
794.232056,2113
794.351074,2123
794.470215,2097
794.589233,2042
794.708313,2046
794.827393,2061
794.946411,2153
795.065552,2021
795.18457,2065
795.303589,2043
795.422668,1992
795.541687,2011
795.660767,2064
795.779846,1975
795.898865,2001
796.017883,1990
796.136963,1980
796.255981,1955
796.375061,1977
796.49408,1994
796.613037,1959
796.732117,1972
796.851135,1960
796.970154,1975
797.089233,1946
797.208191,1977
797.327271,1957
797.446228,1933
797.565186,1904
797.684265,1931
797.803223,1938
797.922241,1914
798.04126,1873
798.160278,1916
798.279297,1940
798.398315,1914
798.517273,1899
798.636292,1879
798.75531,1914
798.874268,1951
798.993286,1912
799.112244,1904
799.231323,1912
799.350281,1950
799.469238,1943
799.588257,1926
799.707153,1898
799.826111,1903
799.945129,1928
800.064087,1899
800.183044,1869
800.302063,1932
800.421021,1942
800.539978,1884
800.658936,1847
800.777893,1926
800.896912,1885
801.015747,1889
801.134705,1901
801.253723,1941
801.37262,1930
801.491638,1881
801.610535,1945
801.729492,1939
801.84845,1910
801.967407,1922
802.086243,1961
802.205261,1923
802.324158,1957
802.443115,1935
802.562073,1914
802.680969,1963
802.799927,1910
802.918762,1939
803.037659,1926
803.156677,1936
803.275574,1927
803.39447,1939
803.513428,1966
803.632263,1971
803.751221,1931
803.870117,1937
803.989014,1992
804.107971,1927
804.226746,1973
804.345642,1982
804.4646,1971
804.583496,1930
804.702393,1998
804.821228,1948
804.940125,1990
805.059021,1962
805.177917,1962
805.296814,1962
805.415649,1977
805.534546,1991
805.653442,2017
805.772278,2021
805.891113,2034
806.01001,2005
806.128906,2032
806.247742,1978
806.366577,2081
806.485413,1980
806.604309,1952
806.723145,2023
806.84198,2025
806.960876,2015
807.079712,2022
807.198486,2017
807.317383,2029
807.436218,2009
807.554993,2007
807.673889,2018
807.792725,2020
807.91156,2055
808.030396,2035
808.14917,2032
808.268005,2059
808.386841,2008
808.505676,2037
808.624451,2071
808.743286,1991
808.862122,2057
808.980896,2053
809.099731,2126
809.218506,2043
809.337341,2048
809.456116,2050
809.57489,2027
809.693726,2104
809.8125,2107
809.931274,2068
810.050049,2094
810.168884,2064
810.287659,2068
810.406372,2084
810.525269,2071
810.643982,2059
810.762756,2131
810.881531,2038
811.000305,2116
811.11908,2128
811.237854,2051
811.356567,2020
811.475403,2070
811.594116,2059
811.71283,2074
811.831604,2088
811.950378,2103
812.069153,2067
812.187927,2124
812.30658,2100
812.425415,2126
812.544128,2067
812.662781,2080
812.781616,2068
812.900269,2109
813.019043,2101
813.137756,2085
813.256531,2029
813.375244,2111
813.493896,2073
813.612671,2085
813.731384,2069
813.850037,2056
813.96875,2106
814.087524,2067
814.206238,2110
814.324951,2012
814.443604,2066
814.562256,2102
814.68103,1979
814.799683,2039
814.918335,1988
815.037109,1997
815.155762,2011
815.274475,2028
815.393188,1992
815.511841,2049
815.630554,2035
815.749146,2014
815.867859,1962
815.986572,1981
816.105164,1998
816.223877,1983
816.342529,1982
816.461182,2045
816.579895,2028
816.698486,1987
816.817139,2007
816.935791,2077
817.054504,2021
817.173096,2026
817.291748,1940
817.4104,1965
817.529053,1916
817.647644,1902
817.766235,1869
817.884949,1864
818.00354,1810
818.122192,1833
818.240845,1754
818.359436,1741
818.478088,1741
818.59668,1695
818.715271,1671
818.833923,1658
818.952515,1565
819.071106,1623
819.189758,1632
819.30835,1610
819.426941,1528
819.545532,1577
819.664124,1558
819.782715,1578
819.901306,1527
820.019897,1500
820.138489,1527
820.25708,1543
820.375671,1483
820.494202,1534
820.612732,1499
820.731384,1507
820.849915,1479
820.968506,1518
821.087097,1443
821.205627,1485
821.324158,1459
821.442749,1484
821.561279,1430
821.679871,1456
821.798401,1450
821.916931,1445
822.035461,1447
822.154053,1469
822.272583,1407
822.391174,1469
822.509583,1451
822.628174,1449
822.746704,1506
822.865234,1465
822.983765,1450
823.102295,1462
823.220825,1422
823.339294,1494
823.457825,1392
823.576355,1426
823.694824,1458
823.813354,1501
823.931885,1463
824.050354,1467
824.168884,1434
824.287354,1478
824.405823,1453
824.524353,1503
824.642822,1460
824.761353,1491
824.879822,1454
824.998291,1474
825.116699,1476
825.235291,1421
825.353699,1436
825.472168,1479
825.590637,1435
825.709106,1452
825.827576,1434
825.946045,1394
826.064453,1419
826.182983,1411
826.301392,1403
826.4198,1403
826.53833,1386
826.656738,1409
826.775208,1384
826.893677,1423
827.012024,1356
827.130493,1397
827.248962,1368
827.36731,1349
827.485779,1364
827.604248,1375
827.722595,1363
827.841064,1417
827.959412,1396
828.077942,1389
828.196289,1349
828.314636,1339
828.433105,1343
828.551514,1359
828.669861,1309
828.78833,1359
828.906677,1323
829.025085,1347
829.143433,1379
829.261841,1364
829.38031,1321
829.498657,1367
829.617004,1335
829.735413,1372
829.85376,1333
829.972107,1366
830.090515,1352
830.208862,1357
830.327209,1369
830.445557,1391
830.563904,1361
830.682312,1336
830.800659,1330
830.919006,1367
831.037354,1365
831.155701,1383
831.274048,1384
831.392395,1313
831.51062,1330
831.629028,1361
831.747314,1347
831.865662,1309
831.984009,1371
832.102356,1359
832.220642,1374
832.338928,1378
832.457275,1371
832.575623,1326
832.693909,1368
832.812134,1341
832.930481,1360
833.048828,1331
833.167114,1350
833.2854,1351
833.403687,1368
833.521973,1364
833.640259,1364
833.758545,1328
833.876831,1344
833.995056,1354
834.113281,1334
834.231628,1344
834.349915,1339
834.468201,1362
834.586426,1299
834.704651,1358
834.822998,1332
834.941162,1364
835.059448,1293
835.177673,1374
835.295959,1351
835.414246,1411
835.53241,1367
835.650635,1353
835.768921,1322
835.887146,1375
836.005371,1403
836.123596,1354
836.241821,1348
836.360046,1380
836.478271,1379
836.596497,1397
836.714722,1418
836.832886,1383
836.95105,1385
837.069336,1423
837.1875,1434
837.305725,1420
837.423889,1425
837.542053,1405
837.660339,1411
837.778503,1423
837.896667,1463
838.014832,1431
838.132996,1427
838.25116,1437
838.369385,1436
838.487488,1429
838.605713,1396
838.723877,1366
838.84198,1443
838.960205,1366
839.078308,1386
839.196472,1421
839.314636,1379
839.4328,1429
839.550964,1377
839.669067,1402
839.787231,1428
839.905396,1417
840.023499,1426
840.141602,1377
840.259766,1393
840.377869,1373
840.495972,1390
840.614136,1367
840.732239,1395
840.850342,1428
840.968445,1373
841.086548,1397
841.204651,1409
841.322754,1383
841.440918,1410
841.55896,1430
841.677002,1406
841.795166,1372
841.913208,1413
842.031311,1387
842.149353,1386
842.267456,1363
842.385498,1361
842.503601,1333
842.621643,1318
842.739746,1324
842.857788,1356
842.97583,1334
843.093933,1330
843.211975,1347
843.330017,1350
843.44812,1389
843.566101,1333
843.684204,1357
843.802246,1347
843.920227,1350
844.038269,1344
844.156311,1336
844.274292,1335
844.392395,1333
844.510376,1376
844.628357,1358
844.74646,1332
844.864441,1352
844.982422,1335
845.100403,1355
845.218384,1347
845.336426,1307
845.454468,1335
845.572449,1344
845.69043,1340
845.808411,1303
845.926453,1397
846.044373,1308
846.162354,1320
846.280396,1360
846.398315,1285
846.516296,1320
846.634216,1314
846.752197,1330
846.870178,1326
846.988098,1341
847.106079,1341
847.22406,1315
847.34198,1328
847.4599,1305
847.577881,1349
847.695801,1352
847.813782,1306
847.931641,1358
848.049561,1367
848.167603,1332
848.285461,1311
848.403381,1358
848.521362,1337
848.639221,1329
848.75708,1297
848.875,1322
848.99292,1361
849.110901,1314
849.22876,1344
849.34668,1287
849.464539,1349
849.582458,1298
849.700317,1352
849.818176,1356
849.936096,1316
850.053955,1337
850.171875,1356
850.289673,1340
850.407593,1326
850.525452,1290
850.643311,1345
850.761169,1309
850.878967,1325
850.996887,1340
851.114746,1331
851.232544,1347
851.350403,1356
851.468262,1320
851.58606,1349
851.703979,1333
851.821777,1310
851.939636,1315
852.057434,1325
852.175232,1321
852.293091,1346
852.410889,1362
852.528687,1344
852.646545,1406
852.764343,1373
852.88208,1375
852.999939,1368
853.117676,1338
853.235535,1366
853.353271,1343
853.471069,1341
853.588928,1335
853.706604,1341
853.824402,1348
853.9422,1355
854.059998,1346
854.177734,1331
854.295532,1333
854.413269,1364
854.531006,1365
854.648804,1342
854.766541,1334
854.884277,1377
855.002014,1368
855.119751,1380
855.237549,1357
855.355225,1366
855.473022,1382
855.590698,1322
855.708435,1381
855.826172,1366
855.943848,1372
856.061646,1382
856.179321,1316
856.296997,1355
856.414795,1415
856.53241,1340
856.650085,1421
856.767822,1380
856.885559,1384
857.003174,1436
857.120911,1380
857.238586,1402
857.356201,1433
857.473938,1413
857.591614,1365
857.709351,1389
857.826965,1391
857.944641,1388
858.062317,1396
858.179993,1418
858.297668,1394
858.415283,1405
858.532959,1371
858.650574,1361
858.768188,1381
858.885803,1414
859.003479,1379
859.121094,1422
859.23877,1376
859.356384,1397
859.473999,1371
859.591675,1370
859.709229,1369
859.826843,1351
859.944458,1320
860.062012,1372
860.179626,1328
860.297302,1369
860.414856,1321
860.532471,1371
860.650024,1341
860.767639,1354
860.885193,1336
861.002808,1330
861.120361,1364
861.237976,1332
861.35553,1329
861.473022,1312
861.590698,1355
861.708191,1311
861.825745,1354
861.943298,1362
862.060852,1337
862.178406,1351
862.295959,1329
862.413513,1358
862.531006,1369
862.64856,1366
862.766113,1389
862.883667,1324
863.00116,1380
863.118713,1404
863.236206,1328
863.353699,1356
863.471252,1334
863.588745,1330
863.706177,1375
863.82373,1366
863.941162,1313
864.058716,1333
864.176208,1356
864.29364,1382
864.411194,1446
864.528687,1369
864.646118,1349
864.763611,1296
864.881042,1363
864.998535,1336
865.116028,1359
865.233459,1365
865.350891,1324
865.468384,1361
865.585754,1334
865.703308,1373
865.820679,1364
865.938171,1390
866.055542,1351
866.173035,1315
866.290466,1353
866.407837,1390
866.52533,1348
866.6427,1367
866.760071,1393
866.877563,1375
866.994934,1362
867.112305,1356
867.229736,1400
867.347107,1332
867.464539,1347
867.58197,1337
867.699341,1357
867.81665,1346
867.934082,1425
868.051453,1342
868.168823,1377
868.286194,1373
868.403564,1367
868.520935,1359
868.638306,1370
868.755676,1388
868.872986,1375
868.990295,1366
869.107727,1420
869.225037,1341
869.342346,1398
869.459717,1357
869.577026,1364
869.694336,1344
869.811707,1355
869.929016,1363
870.046326,1393
870.163635,1371
870.280945,1425
870.398254,1374
870.515564,1427
870.632812,1376
870.750183,1382
870.867432,1396
870.984741,1373
871.102051,1418
871.219299,1356
871.336609,1392
871.453918,1380
871.571106,1363
871.688416,1383
871.805664,1421
871.922852,1374
872.040222,1400
872.157471,1426
872.274719,1378
872.391968,1380
872.509155,1355
872.626465,1389
872.743652,1382
872.860962,1356
872.978149,1375
873.095337,1391
873.212646,1405
873.329834,1346
873.44696,1351
873.564209,1368
873.681396,1387
873.798645,1390
873.915894,1372
874.03302,1393
874.150208,1379
874.267456,1384
874.384583,1384
874.501831,1404
874.618958,1371
874.736145,1395
874.853333,1393
874.970459,1405
875.087646,1363
875.204834,1382
875.32196,1411
875.439148,1397
875.556274,1405
875.673401,1374
875.790527,1371
875.907715,1385
876.024841,1334
876.141968,1337
876.259094,1348
876.376282,1353
876.493347,1412
876.610474,1360
876.7276,1387
876.844727,1350
876.961853,1350
877.078918,1388
877.195984,1367
877.313171,1387
877.430237,1384
877.547302,1379
877.664368,1352
877.781433,1379
877.898499,1393
878.015625,1406
878.13269,1361
878.249695,1399
878.366821,1348
878.483887,1349
878.600952,1374
878.717957,1377
878.834961,1339
878.952087,1393
879.069092,1389
879.186157,1375
879.303162,1336
879.420227,1382
879.537231,1409
879.654236,1409
879.77124,1367
879.888306,1385
880.005249,1394
880.122314,1350
880.239319,1373
880.356323,1373
880.473328,1391
880.590271,1382
880.707275,1391
880.824341,1334
880.941284,1375
881.058228,1367
881.175232,1344
881.292236,1356
881.40918,1372
881.526123,1379
881.643066,1345
881.760071,1392
881.877014,1392
881.993958,1365
882.11084,1397
882.227783,1361
882.344727,1394
882.46167,1359
882.578613,1368
882.695618,1380
882.812439,1382
882.929382,1392
883.046326,1407
883.163208,1340
883.280151,1359
883.397034,1385
883.513916,1401
883.630798,1367
883.747742,1390
883.864563,1383
883.981506,1418
884.098389,1425
884.21521,1368
884.332153,1433
884.448975,1388
884.565796,1410
884.682678,1473
884.7995,1409
884.916443,1454
885.033264,1443
885.150085,1404
885.266968,1452
885.383789,1451
885.500671,1508
885.617493,1448
885.734314,1484
885.851196,1471
885.967896,1410
886.084717,1444
886.201599,1464
886.318359,1470
886.435181,1506
886.552002,1442
886.668762,1456
886.785645,1421
886.902344,1446
887.019165,1448
887.135925,1451
887.252747,1447
887.369446,1464
887.486267,1432
887.603027,1418
887.719788,1423
887.836548,1385
887.953247,1450
888.070068,1402
888.186829,1414
888.303528,1396
888.420288,1437
888.536987,1381
888.653687,1359
888.770447,1421
888.887146,1402
889.003967,1406
889.120667,1367
889.237305,1419
889.354065,1380
889.470703,1380
889.587463,1403
889.704163,1375
889.820862,1391
889.937561,1399
890.054199,1410
890.170837,1376
890.287598,1382
890.404236,1401
890.520874,1408
890.637634,1365
890.754211,1400
890.87085,1409
890.987549,1407
891.104187,1416
891.220886,1405
891.337463,1416
891.454102,1401
891.57074,1446
891.687378,1386
891.804077,1437
891.920654,1402
892.037231,1443
892.15387,1443
892.270447,1411
892.387085,1394
892.503723,1429
892.6203,1407
892.736877,1410
892.853516,1443
892.970032,1375
893.08667,1447
893.203186,1400
893.319763,1388
893.43634,1417
893.552917,1399
893.669556,1425
893.786011,1421
893.902588,1418
894.019165,1420
894.135681,1394
894.252197,1386
894.368835,1454
894.485291,1417
894.601868,1445
894.718384,1410
894.8349,1417
894.951355,1411
895.067932,1407
895.184448,1412
895.300964,1366
895.417419,1409
895.533936,1407
895.650452,1377
895.766907,1357
895.883423,1408
895.999878,1394
896.116333,1413
896.232849,1395
896.349304,1417
896.465759,1388
896.582214,1393
896.698669,1410
896.815125,1397
896.931641,1407
897.048035,1436
897.164551,1413
897.280884,1404
897.397339,1437
897.513794,1428
897.630249,1421
897.746582,1425
897.863098,1448
897.979431,1397
898.095886,1447
898.212341,1426
898.328674,1444
898.445129,1415
898.561462,1431
898.677795,1432
898.794312,1416
898.910645,1439
899.026978,1391
899.143433,1437
899.259766,1396
899.37616,1426
899.492493,1435
899.608765,1403
899.725159,1438
899.841553,1426
899.957947,1458
900.07428,1443
900.190552,1438
900.306946,1443
900.423157,1443
900.53949,1406
900.655884,1438
900.772156,1489
900.888489,1422
901.004822,1479
901.121033,1416
901.237366,1417
901.353699,1493
901.46991,1435
901.586304,1423
901.702515,1477
901.818787,1420
901.93512,1429
902.051331,1439
902.167603,1512
902.283875,1448
902.400085,1461
902.516418,1501
902.632629,1451
902.74884,1473
902.865112,1500
902.981384,1495
903.097595,1448
903.213867,1472
903.330017,1479
903.446289,1468
903.5625,1488
903.67865,1476
903.794922,1506
903.911072,1475
904.027344,1412
904.143494,1456
904.259705,1435
904.375916,1480
904.492065,1465
904.608215,1473
904.724426,1409
904.840576,1463
904.956726,1457
905.072876,1441
905.189087,1422
905.305176,1450
905.421387,1454
905.537537,1458
905.653687,1425
905.769775,1440
905.885925,1470
906.002014,1460
906.118164,1438
906.234314,1463
906.350403,1445
906.466492,1404
906.582642,1403
906.69873,1442
906.814758,1475
906.930908,1454
907.046936,1434
907.163086,1434
907.279175,1468
907.395264,1472
907.511353,1416
907.62738,1497
907.743408,1459
907.859497,1418
907.975525,1470
908.091553,1423
908.207703,1488
908.32373,1470
908.439758,1478
908.555786,1452
908.671814,1433
908.787842,1423
908.90387,1488
909.019775,1475
909.135864,1446
909.251892,1486
909.367859,1444
909.483826,1490
909.599854,1458
909.715881,1462
909.831848,1428
909.947815,1463
910.063782,1407
910.179749,1474
910.295776,1490
910.411743,1481
910.527649,1465
910.643616,1497
910.759583,1458
910.875488,1476
910.991455,1458
911.107361,1433
911.223267,1462
911.339294,1439
911.4552,1424
911.571106,1491
911.687073,1451
911.802979,1479
911.918823,1460
912.034729,1442
912.150635,1513
912.266602,1445
912.382446,1444
912.498352,1450
912.614197,1465
912.730103,1425
912.846008,1476
792.44574,2488
792.56488,2454
792.68396,2422
792.80304,2406
792.92218,2298
793.041199,2292
793.160339,2349
793.279419,2286
793.398499,2331
793.517578,2248
793.636658,2189
793.755737,2188
793.874817,2242
793.993896,2209
794.112976,2198
794.232056,2157
794.351074,2138
794.470215,2110
794.589233,2144
794.708313,2098
794.827393,2146
794.946411,2122
795.065552,2098
795.18457,2060
795.303589,2046
795.422668,2071
795.541687,2074
795.660767,2071
795.779846,2069
795.898865,2047
796.017883,2046
796.136963,2026
796.255981,1999
796.375061,2013
796.49408,2006
796.613037,2032
796.732117,1969
796.851135,1984
796.970154,1967
797.089233,1972
797.208191,2016
797.327271,1966
797.446228,1996
797.565186,1970
797.684265,1967
797.803223,1985
797.922241,1974
798.04126,1980
798.160278,1950
798.279297,1956
798.398315,1990
798.517273,1945
798.636292,1960
798.75531,1976
798.874268,1977
798.993286,1984
799.112244,1983
799.231323,1912
799.350281,1939
799.469238,1937
799.588257,1957
799.707153,1916
799.826111,1983
799.945129,1934
800.064087,1938
800.183044,1942
800.302063,1919
800.421021,1922
800.539978,1941
800.658936,1974
800.777893,1935
800.896912,1913
801.015747,1897
801.134705,1942
801.253723,1941
801.37262,1955
801.491638,1955
801.610535,1967
801.729492,1995
801.84845,1936
801.967407,1931
802.086243,1980
802.205261,1978
802.324158,1958
802.443115,1948
802.562073,1978
802.680969,2006
802.799927,1945
802.918762,2012
803.037659,2000
803.156677,1993
803.275574,1946
803.39447,1981
803.513428,1950
803.632263,2005
803.751221,2017
803.870117,1993
803.989014,2012
804.107971,2006
804.226746,1965
804.345642,1998
804.4646,2065
804.583496,1977
804.702393,1963
804.821228,2020
804.940125,1989
805.059021,2014
805.177917,1963
805.296814,2015
805.415649,1994
805.534546,2048
805.653442,2035
805.772278,2025
805.891113,2053
806.01001,2077
806.128906,2041
806.247742,2051
806.366577,2026
806.485413,2070
806.604309,2041
806.723145,2047
806.84198,2002
806.960876,2052
807.079712,2012
807.198486,2031
807.317383,2072
807.436218,2079
807.554993,2068
807.673889,2071
807.792725,2068
807.91156,2049
808.030396,2069
808.14917,2080
808.268005,2117
808.386841,2088
808.505676,2084
808.624451,2050
808.743286,2085
808.862122,2060
808.980896,2071
809.099731,2095
809.218506,2103
809.337341,2052
809.456116,2088
809.57489,2138
809.693726,2091
809.8125,2120
809.931274,2092
810.050049,2076
810.168884,2105
810.287659,2048
810.406372,2100
810.525269,2082
810.643982,2137
810.762756,2097
810.881531,2108
811.000305,2144
811.11908,2049
811.237854,2130
811.356567,2089
811.475403,2096
811.594116,2138
811.71283,2114
811.831604,2066
811.950378,2114
812.069153,2093
812.187927,2124
812.30658,2128
812.425415,2109
812.544128,2174
812.662781,2127
812.781616,2069
812.900269,2083
813.019043,2076
813.137756,2107
813.256531,2087
813.375244,2140
813.493896,2125
813.612671,2098
813.731384,2066
813.850037,2113
813.96875,2093
814.087524,2086
814.206238,2072
814.324951,2092
814.443604,2045
814.562256,2077
814.68103,2078
814.799683,2122
814.918335,2130
815.037109,2024
815.155762,2063
815.274475,2040
815.393188,2066
815.511841,1980
815.630554,1986
815.749146,2037
815.867859,2006
815.986572,2003
816.105164,2005
816.223877,2011
816.342529,2020
816.461182,2035
816.579895,2041
816.698486,2060
816.817139,1999
816.935791,2055
817.054504,2093
817.173096,2042
817.291748,1997
817.4104,2020
817.529053,1973
817.647644,1947
817.766235,1914
817.884949,1877
818.00354,1769
818.122192,1822
818.240845,1799
818.359436,1796
818.478088,1740
818.59668,1754
818.715271,1683
818.833923,1656
818.952515,1663
819.071106,1652
819.189758,1607
819.30835,1569
819.426941,1556
819.545532,1572
819.664124,1600
819.782715,1581
819.901306,1551
820.019897,1546
820.138489,1504
820.25708,1590
820.375671,1500
820.494202,1544
820.612732,1499
820.731384,1526
820.849915,1485
820.968506,1524
821.087097,1605
821.205627,1473
821.324158,1484
821.442749,1506
821.561279,1504
821.679871,1469
821.798401,1531
821.916931,1480
822.035461,1511
822.154053,1500
822.272583,1495
822.391174,1483
822.509583,1474
822.628174,1482
822.746704,1478
822.865234,1483
822.983765,1475
823.102295,1458
823.220825,1489
823.339294,1468
823.457825,1437
823.576355,1459
823.694824,1473
823.813354,1482
823.931885,1465
824.050354,1504
824.168884,1530
824.287354,1503
824.405823,1554
824.524353,1508
824.642822,1505
824.761353,1511
824.879822,1492
824.998291,1474
825.116699,1543
825.235291,1500
825.353699,1448
825.472168,1445
825.590637,1462
825.709106,1451
825.827576,1456
825.946045,1445
826.064453,1443
826.182983,1427
826.301392,1443
826.4198,1403
826.53833,1410
826.656738,1397
826.775208,1379
826.893677,1413
827.012024,1419
827.130493,1421
827.248962,1434
827.36731,1387
827.485779,1393
827.604248,1412
827.722595,1400
827.841064,1398
827.959412,1376
828.077942,1378
828.196289,1344
828.314636,1394
828.433105,1373
828.551514,1336
828.669861,1362
828.78833,1368
828.906677,1380
829.025085,1374
829.143433,1414
829.261841,1387
829.38031,1370
829.498657,1368
829.617004,1397
829.735413,1377
829.85376,1383
829.972107,1392
830.090515,1402
830.208862,1359
830.327209,1393
830.445557,1366
830.563904,1386
830.682312,1381
830.800659,1376
830.919006,1339
831.037354,1378
831.155701,1400
831.274048,1356
831.392395,1391
831.51062,1380
831.629028,1376
831.747314,1356
831.865662,1350
831.984009,1387
832.102356,1384
832.220642,1370
832.338928,1407
832.457275,1389
832.575623,1384
832.693909,1367
832.812134,1397
832.930481,1372
833.048828,1350
833.167114,1357
833.2854,1327
833.403687,1355
833.521973,1371
833.640259,1376
833.758545,1384
833.876831,1311
833.995056,1387
834.113281,1372
834.231628,1363
834.349915,1405
834.468201,1375
834.586426,1337
834.704651,1416
834.822998,1358
834.941162,1396
835.059448,1366
835.177673,1393
835.295959,1438
835.414246,1380
835.53241,1367
835.650635,1366
835.768921,1374
835.887146,1398
836.005371,1371
836.123596,1398
836.241821,1383
836.360046,1452
836.478271,1363
836.596497,1453
836.714722,1418
836.832886,1403
836.95105,1411
837.069336,1447
837.1875,1426
837.305725,1468
837.423889,1410
837.542053,1452
837.660339,1451
837.778503,1483
837.896667,1442
838.014832,1448
838.132996,1443
838.25116,1417
838.369385,1458
838.487488,1432
838.605713,1431
838.723877,1399
838.84198,1401
838.960205,1460
839.078308,1425
839.196472,1400
839.314636,1450
839.4328,1417
839.550964,1417
839.669067,1409
839.787231,1393
839.905396,1430
840.023499,1432
840.141602,1432
840.259766,1427
840.377869,1411
840.495972,1449
840.614136,1422
840.732239,1461
840.850342,1396
840.968445,1407
841.086548,1426
841.204651,1400
841.322754,1387
841.440918,1418
841.55896,1415
841.677002,1408
841.795166,1361
841.913208,1420
842.031311,1393
842.149353,1371
842.267456,1409
842.385498,1393
842.503601,1389
842.621643,1389
842.739746,1397
842.857788,1381
842.97583,1381
843.093933,1381
843.211975,1378
843.330017,1354
843.44812,1377
843.566101,1375
843.684204,1356
843.802246,1373
843.920227,1366
844.038269,1362
844.156311,1319
844.274292,1367
844.392395,1367
844.510376,1388
844.628357,1365
844.74646,1372
844.864441,1360
844.982422,1355
845.100403,1373
845.218384,1378
845.336426,1299
845.454468,1379
845.572449,1381
845.69043,1360
845.808411,1368
845.926453,1335
846.044373,1359
846.162354,1353
846.280396,1360
846.398315,1356
846.516296,1380
846.634216,1371
846.752197,1374
846.870178,1357
846.988098,1360
847.106079,1379
847.22406,1349
847.34198,1370
847.4599,1345
847.577881,1333
847.695801,1334
847.813782,1339
847.931641,1378
848.049561,1374
848.167603,1378
848.285461,1354
848.403381,1368
848.521362,1325
848.639221,1370
848.75708,1352
848.875,1325
848.99292,1379
849.110901,1344
849.22876,1357
849.34668,1377
849.464539,1358
849.582458,1363
849.700317,1360
849.818176,1362
849.936096,1400
850.053955,1340
850.171875,1369
850.289673,1318
850.407593,1361
850.525452,1328
850.643311,1323
850.761169,1305
850.878967,1382
850.996887,1361
851.114746,1382
851.232544,1374
851.350403,1382
851.468262,1343
851.58606,1383
851.703979,1321
851.821777,1372
851.939636,1384
852.057434,1301
852.175232,1407
852.293091,1357
852.410889,1368
852.528687,1401
852.646545,1399
852.764343,1399
852.88208,1376
852.999939,1381
853.117676,1396
853.235535,1363
853.353271,1379
853.471069,1408
853.588928,1372
853.706604,1380
853.824402,1346
853.9422,1387
854.059998,1392
854.177734,1368
854.295532,1368
854.413269,1371
854.531006,1374
854.648804,1366
854.766541,1382
854.884277,1394
855.002014,1395
855.119751,1409
855.237549,1383
855.355225,1379
855.473022,1380
855.590698,1359
855.708435,1370
855.826172,1340
855.943848,1398
856.061646,1423
856.179321,1389
856.296997,1382
856.414795,1408
856.53241,1430
856.650085,1398
856.767822,1408
856.885559,1421
857.003174,1377
857.120911,1413
857.238586,1406
857.356201,1417
857.473938,1397
857.591614,1398
857.709351,1396
857.826965,1405
857.944641,1354
858.062317,1436
858.179993,1408
858.297668,1397
858.415283,1385
858.532959,1397
858.650574,1382
858.768188,1412
858.885803,1417
859.003479,1369
859.121094,1358
859.23877,1419
859.356384,1385
859.473999,1378
859.591675,1345
859.709229,1384
859.826843,1381
859.944458,1365
860.062012,1380
860.179626,1394
860.297302,1356
860.414856,1360
860.532471,1383
860.650024,1406
860.767639,1372
860.885193,1408
861.002808,1393
861.120361,1398
861.237976,1405
861.35553,1376
861.473022,1362
861.590698,1350
861.708191,1363
861.825745,1373
861.943298,1353
862.060852,1402
862.178406,1374
862.295959,1327
862.413513,1370
862.531006,1355
862.64856,1348
862.766113,1363
862.883667,1348
863.00116,1331
863.118713,1375
863.236206,1412
863.353699,1342
863.471252,1393
863.588745,1406
863.706177,1363
863.82373,1384
863.941162,1346
864.058716,1349
864.176208,1340
864.29364,1376
864.411194,1371
864.528687,1358
864.646118,1415
864.763611,1378
864.881042,1356
864.998535,1382
865.116028,1393
865.233459,1380
865.350891,1409
865.468384,1393
865.585754,1400
865.703308,1354
865.820679,1391
865.938171,1452
866.055542,1375
866.173035,1373
866.290466,1380
866.407837,1359
866.52533,1439
866.6427,1407
866.760071,1381
866.877563,1388
866.994934,1389
867.112305,1388
867.229736,1406
867.347107,1402
867.464539,1376
867.58197,1359
867.699341,1412
867.81665,1382
867.934082,1390
868.051453,1424
868.168823,1405
868.286194,1300
868.403564,1397
868.520935,1416
868.638306,1381
868.755676,1359
868.872986,1397
868.990295,1385
869.107727,1383
869.225037,1398
869.342346,1424
869.459717,1433
869.577026,1423
869.694336,1435
869.811707,1403
869.929016,1391
870.046326,1426
870.163635,1404
870.280945,1410
870.398254,1383
870.515564,1422
870.632812,1410
870.750183,1400
870.867432,1430
870.984741,1357
871.102051,1403
871.219299,1410
871.336609,1453
871.453918,1406
871.571106,1432
871.688416,1421
871.805664,1461
871.922852,1381
872.040222,1376
872.157471,1391
872.274719,1386
872.391968,1369
872.509155,1386
872.626465,1404
872.743652,1426
872.860962,1364
872.978149,1440
873.095337,1408
873.212646,1379
873.329834,1402
873.44696,1413
873.564209,1398
873.681396,1419
873.798645,1380
873.915894,1407
874.03302,1369
874.150208,1419
874.267456,1414
874.384583,1395
874.501831,1434
874.618958,1385
874.736145,1420
874.853333,1430
874.970459,1381
875.087646,1414
875.204834,1395
875.32196,1429
875.439148,1356
875.556274,1394
875.673401,1439
875.790527,1414
875.907715,1398
876.024841,1387
876.141968,1400
876.259094,1393
876.376282,1424
876.493347,1380
876.610474,1425
876.7276,1399
876.844727,1442
876.961853,1435
877.078918,1420
877.195984,1419
877.313171,1423
877.430237,1420
877.547302,1419
877.664368,1402
877.781433,1437
877.898499,1386
878.015625,1468
878.13269,1402
878.249695,1403
878.366821,1375
878.483887,1370
878.600952,1372
878.717957,1404
878.834961,1414
878.952087,1401
879.069092,1425
879.186157,1431
879.303162,1430
879.420227,1395
879.537231,1385
879.654236,1421
879.77124,1411
879.888306,1394
880.005249,1410
880.122314,1367
880.239319,1440
880.356323,1425
880.473328,1387
880.590271,1394
880.707275,1354
880.824341,1445
880.941284,1383
881.058228,1383
881.175232,1359
881.292236,1409
881.40918,1399
881.526123,1394
881.643066,1369
881.760071,1388
881.877014,1417
881.993958,1412
882.11084,1405
882.227783,1389
882.344727,1404
882.46167,1425
882.578613,1398
882.695618,1386
882.812439,1418
882.929382,1399
883.046326,1423
883.163208,1364
883.280151,1423
883.397034,1422
883.513916,1356
883.630798,1393
883.747742,1446
883.864563,1423
883.981506,1432
884.098389,1419
884.21521,1422
884.332153,1466
884.448975,1417
884.565796,1450
884.682678,1437
884.7995,1488
884.916443,1467
885.033264,1469
885.150085,1478
885.266968,1428
885.383789,1482
885.500671,1470
885.617493,1489
885.734314,1477
885.851196,1478
885.967896,1481
886.084717,1522
886.201599,1462
886.318359,1464
886.435181,1470
886.552002,1433
886.668762,1528
886.785645,1480
886.902344,1534
887.019165,1440
887.135925,1510
887.252747,1456
887.369446,1427
887.486267,1475
887.603027,1449
887.719788,1433
887.836548,1461
887.953247,1476
888.070068,1440
888.186829,1445
888.303528,1420
888.420288,1423
888.536987,1404
888.653687,1436
888.770447,1456
888.887146,1383
889.003967,1439
889.120667,1433
889.237305,1435
889.354065,1423
889.470703,1424
889.587463,1409
889.704163,1471
889.820862,1418
889.937561,1409
890.054199,1380
890.170837,1416
890.287598,1411
890.404236,1421
890.520874,1390
890.637634,1425
890.754211,1459
890.87085,1401
890.987549,1453
891.104187,1431
891.220886,1413
891.337463,1406
891.454102,1445
891.57074,1413
891.687378,1447
891.804077,1428
891.920654,1455
892.037231,1413
892.15387,1400
892.270447,1415
892.387085,1448
892.503723,1420
892.6203,1460
892.736877,1432
892.853516,1466
892.970032,1424
893.08667,1442
893.203186,1444
893.319763,1451
893.43634,1436
893.552917,1412
893.669556,1450
893.786011,1429
893.902588,1443
894.019165,1470
894.135681,1451
894.252197,1420
894.368835,1485
894.485291,1464
894.601868,1459
894.718384,1456
894.8349,1473
894.951355,1442
895.067932,1451
895.184448,1435
895.300964,1439
895.417419,1416
895.533936,1464
895.650452,1439
895.766907,1418
895.883423,1475
895.999878,1435
896.116333,1473
896.232849,1441
896.349304,1445
896.465759,1409
896.582214,1441
896.698669,1403
896.815125,1508
896.931641,1477
897.048035,1491
897.164551,1444
897.280884,1461
897.397339,1479
897.513794,1486
897.630249,1419
897.746582,1461
897.863098,1524
897.979431,1431
898.095886,1444
898.212341,1466
898.328674,1519
898.445129,1440
898.561462,1471
898.677795,1442
898.794312,1399
898.910645,1496
899.026978,1444
899.143433,1456
899.259766,1485
899.37616,1428
899.492493,1471
899.608765,1464
899.725159,1472
899.841553,1478
899.957947,1472
900.07428,1437
900.190552,1490
900.306946,1502
900.423157,1475
900.53949,1496
900.655884,1472
900.772156,1422
900.888489,1457
901.004822,1468
901.121033,1476
901.237366,1467
901.353699,1498
901.46991,1486
901.586304,1507
901.702515,1508
901.818787,1463
901.93512,1458
902.051331,1472
902.167603,1491
902.283875,1538
902.400085,1487
902.516418,1563
902.632629,1500
902.74884,1503
902.865112,1521
902.981384,1509
903.097595,1550
903.213867,1556
903.330017,1500
903.446289,1547
903.5625,1494
903.67865,1502
903.794922,1500
903.911072,1491
904.027344,1512
904.143494,1539
904.259705,1557
904.375916,1491
904.492065,1524
904.608215,1452
904.724426,1496
904.840576,1478
904.956726,1534
905.072876,1479
905.189087,1473
905.305176,1510
905.421387,1480
905.537537,1527
905.653687,1472
905.769775,1468
905.885925,1465
906.002014,1478
906.118164,1455
906.234314,1467
906.350403,1476
906.466492,1438
906.582642,1460
906.69873,1482
906.814758,1477
906.930908,1477
907.046936,1500
907.163086,1500
907.279175,1464
907.395264,1483
907.511353,1488
907.62738,1473
907.743408,1460
907.859497,1503
907.975525,1439
908.091553,1500
908.207703,1496
908.32373,1479
908.439758,1515
908.555786,1455
908.671814,1501
908.787842,1504
908.90387,1450
909.019775,1490
909.135864,1497
909.251892,1532
909.367859,1493
909.483826,1478
909.599854,1503
909.715881,1498
909.831848,1508
909.947815,1464
910.063782,1509
910.179749,1514
910.295776,1502
910.411743,1517
910.527649,1524
910.643616,1479
910.759583,1526
910.875488,1457
910.991455,1511
911.107361,1493
911.223267,1513
911.339294,1480
911.4552,1481
911.571106,1485
911.687073,1491
911.802979,1512
911.918823,1462
912.034729,1536
912.150635,1464
912.266602,1463
912.382446,1485
912.498352,1504
912.614197,1506
912.730103,1499
912.846008,1472
792.44574,2472
792.56488,2393
792.68396,2500
792.80304,2407
792.92218,2332
793.041199,2313
793.160339,2348
793.279419,2362
793.398499,2298
793.517578,2249
793.636658,2241
793.755737,2260
793.874817,2242
793.993896,2245
794.112976,2216
794.232056,2159
794.351074,2156
794.470215,2134
794.589233,2170
794.708313,2168
794.827393,2121
794.946411,2117
795.065552,2156
795.18457,2068
795.303589,2100
795.422668,2136
795.541687,2096
795.660767,2031
795.779846,2068
795.898865,2002
796.017883,2064
796.136963,2035
796.255981,2086
796.375061,2022
796.49408,2057
796.613037,1968
796.732117,2005
796.851135,2029
796.970154,1940
797.089233,2007
797.208191,1975
797.327271,1982
797.446228,1902
797.565186,2004
797.684265,1983
797.803223,1943
797.922241,1953
798.04126,1984
798.160278,2005
798.279297,1994
798.398315,1983
798.517273,1993
798.636292,1941
798.75531,1949
798.874268,1971
798.993286,1990
799.112244,1880
799.231323,1971
799.350281,1978
799.469238,1975
799.588257,1960
799.707153,1979
799.826111,1987
799.945129,1973
800.064087,1959
800.183044,1992
800.302063,1971
800.421021,2002
800.539978,1949
800.658936,1925
800.777893,1942
800.896912,1993
801.015747,1980
801.134705,1954
801.253723,1943
801.37262,1962
801.491638,1963
801.610535,1975
801.729492,1962
801.84845,1969
801.967407,1949
802.086243,1996
802.205261,1959
802.324158,1970
802.443115,2015
802.562073,1962
802.680969,1990
802.799927,1944
802.918762,1972
803.037659,1943
803.156677,2038
803.275574,1990
803.39447,2027
803.513428,2019
803.632263,2012
803.751221,2030
803.870117,1983
803.989014,1991
804.107971,1996
804.226746,1983
804.345642,1983
804.4646,1972
804.583496,2006
804.702393,1994
804.821228,2001
804.940125,2055
805.059021,2006
805.177917,1988
805.296814,2021
805.415649,2038
805.534546,1995
805.653442,2029
805.772278,2038
805.891113,2052
806.01001,2090
806.128906,2102
806.247742,2064
806.366577,2083
806.485413,2053
806.604309,2081
806.723145,2052
806.84198,2045
806.960876,2063
807.079712,2023
807.198486,2088
807.317383,2125
807.436218,2035
807.554993,2098
807.673889,2100
807.792725,2052
807.91156,2098
808.030396,2040
808.14917,2066
808.268005,2016
808.386841,2080
808.505676,2078
808.624451,2108
808.743286,2053
808.862122,2049
808.980896,2124
809.099731,2032
809.218506,2085
809.337341,2124
809.456116,2077
809.57489,2094
809.693726,2116
809.8125,2134
809.931274,2102
810.050049,2087
810.168884,2122
810.287659,2075
810.406372,2083
810.525269,2126
810.643982,2113
810.762756,2136
810.881531,2104
811.000305,2106
811.11908,2100
811.237854,2151
811.356567,2096
811.475403,2128
811.594116,2105
811.71283,2103
811.831604,2067
811.950378,2194
812.069153,2122
812.187927,2078
812.30658,2118
812.425415,2157
812.544128,2133
812.662781,2107
812.781616,2091
812.900269,2135
813.019043,2139
813.137756,2170
813.256531,2163
813.375244,2152
813.493896,2135
813.612671,2140
813.731384,2081
813.850037,2109
813.96875,2147
814.087524,2127
814.206238,2095
814.324951,2085
814.443604,2074
814.562256,2086
814.68103,2128
814.799683,2083
814.918335,2110
815.037109,2064
815.155762,2105
815.274475,2082
815.393188,2099
815.511841,2016
815.630554,2046
815.749146,2003
815.867859,2024
815.986572,2008
816.105164,2067
816.223877,1939
816.342529,2046
816.461182,2014
816.579895,2011
816.698486,2003
816.817139,2071
816.935791,2031
817.054504,2014
817.173096,1992
817.291748,2012
817.4104,2014
817.529053,1937
817.647644,1925
817.766235,1901
817.884949,1894
818.00354,1895
818.122192,1824
818.240845,1879
818.359436,1795
818.478088,1728
818.59668,1735
818.715271,1706
818.833923,1648
818.952515,1685
819.071106,1674
819.189758,1645
819.30835,1574
819.426941,1615
819.545532,1585
819.664124,1586
819.782715,1568
819.901306,1589
820.019897,1537
820.138489,1572
820.25708,1541
820.375671,1556
820.494202,1617
820.612732,1527
820.731384,1543
820.849915,1512
820.968506,1572
821.087097,1513
821.205627,1497
821.324158,1596
821.442749,1518
821.561279,1490
821.679871,1504
821.798401,1498
821.916931,1485
822.035461,1470
822.154053,1529
822.272583,1486
822.391174,1526
822.509583,1485
822.628174,1474
822.746704,1489
822.865234,1439
822.983765,1449
823.102295,1481
823.220825,1481
823.339294,1456
823.457825,1513
823.576355,1468
823.694824,1468
823.813354,1462
823.931885,1523
824.050354,1510
824.168884,1554
824.287354,1515
824.405823,1520
824.524353,1527
824.642822,1486
824.761353,1483
824.879822,1537
824.998291,1475
825.116699,1465
825.235291,1537
825.353699,1522
825.472168,1447
825.590637,1500
825.709106,1488
825.827576,1449
825.946045,1471
826.064453,1500
826.182983,1445
826.301392,1437
826.4198,1430
826.53833,1449
826.656738,1436
826.775208,1414
826.893677,1448
827.012024,1416
827.130493,1422
827.248962,1405
827.36731,1391
827.485779,1438
827.604248,1402
827.722595,1461
827.841064,1414
827.959412,1372
828.077942,1411
828.196289,1423
828.314636,1332
828.433105,1393
828.551514,1396
828.669861,1402
828.78833,1378
828.906677,1371
829.025085,1423
829.143433,1392
829.261841,1370
829.38031,1416
829.498657,1395
829.617004,1408
829.735413,1385
829.85376,1408
829.972107,1378
830.090515,1395
830.208862,1410
830.327209,1395
830.445557,1379
830.563904,1391
830.682312,1423
830.800659,1384
830.919006,1390
831.037354,1392
831.155701,1370
831.274048,1370
831.392395,1386
831.51062,1397
831.629028,1395
831.747314,1357
831.865662,1361
831.984009,1393
832.102356,1430
832.220642,1417
832.338928,1375
832.457275,1365
832.575623,1381
832.693909,1418
832.812134,1410
832.930481,1366
833.048828,1384
833.167114,1367
833.2854,1371
833.403687,1362
833.521973,1405
833.640259,1400
833.758545,1406
833.876831,1403
833.995056,1359
834.113281,1411
834.231628,1400
834.349915,1375
834.468201,1385
834.586426,1410
834.704651,1419
834.822998,1368
834.941162,1409
835.059448,1395
835.177673,1428
835.295959,1364
835.414246,1381
835.53241,1388
835.650635,1367
835.768921,1400
835.887146,1386
836.005371,1409
836.123596,1465
836.241821,1404
836.360046,1446
836.478271,1405
836.596497,1428
836.714722,1423
836.832886,1445
836.95105,1449
837.069336,1472
837.1875,1462
837.305725,1403
837.423889,1472
837.542053,1485
837.660339,1456
837.778503,1469
837.896667,1435
838.014832,1439
838.132996,1428
838.25116,1475
838.369385,1463
838.487488,1464
838.605713,1493
838.723877,1440
838.84198,1455
838.960205,1446
839.078308,1446
839.196472,1452
839.314636,1432
839.4328,1414
839.550964,1462
839.669067,1417
839.787231,1463
839.905396,1481
840.023499,1425
840.141602,1435
840.259766,1445
840.377869,1447
840.495972,1422
840.614136,1433
840.732239,1440
840.850342,1431
840.968445,1394
841.086548,1440
841.204651,1439
841.322754,1416
841.440918,1388
841.55896,1419
841.677002,1411
841.795166,1422
841.913208,1366
842.031311,1417
842.149353,1380
842.267456,1365
842.385498,1407
842.503601,1392
842.621643,1398
842.739746,1394
842.857788,1396
842.97583,1416
843.093933,1410
843.211975,1396
843.330017,1399
843.44812,1394
843.566101,1371
843.684204,1396
843.802246,1371
843.920227,1405
844.038269,1390
844.156311,1415
844.274292,1385
844.392395,1398
844.510376,1369
844.628357,1417
844.74646,1378
844.864441,1381
844.982422,1349
845.100403,1359
845.218384,1378
845.336426,1377
845.454468,1376
845.572449,1369
845.69043,1416
845.808411,1322
845.926453,1390
846.044373,1362
846.162354,1390
846.280396,1380
846.398315,1377
846.516296,1379
846.634216,1361
846.752197,1335
846.870178,1377
846.988098,1354
847.106079,1405
847.22406,1368
847.34198,1381
847.4599,1351
847.577881,1355
847.695801,1365
847.813782,1352
847.931641,1351
848.049561,1366
848.167603,1338
848.285461,1337
848.403381,1378
848.521362,1405
848.639221,1374
848.75708,1366
848.875,1393
848.99292,1371
849.110901,1369
849.22876,1352
849.34668,1335
849.464539,1366
849.582458,1385
849.700317,1384
849.818176,1353
849.936096,1378
850.053955,1338
850.171875,1379
850.289673,1367
850.407593,1360
850.525452,1351
850.643311,1325
850.761169,1363
850.878967,1389
850.996887,1328
851.114746,1371
851.232544,1355
851.350403,1357
851.468262,1352
851.58606,1329
851.703979,1379
851.821777,1382
851.939636,1399
852.057434,1387
852.175232,1348
852.293091,1351
852.410889,1388
852.528687,1403
852.646545,1407
852.764343,1355
852.88208,1411
852.999939,1381
853.117676,1419
853.235535,1419
853.353271,1395
853.471069,1386
853.588928,1395
853.706604,1385
853.824402,1420
853.9422,1352
854.059998,1362
854.177734,1377
854.295532,1437
854.413269,1361
854.531006,1383
854.648804,1407
854.766541,1374
854.884277,1401
855.002014,1411
855.119751,1417
855.237549,1420
855.355225,1403
855.473022,1350
855.590698,1388
855.708435,1442
855.826172,1399
855.943848,1402
856.061646,1398
856.179321,1376
856.296997,1457
856.414795,1386
856.53241,1424
856.650085,1422
856.767822,1417
856.885559,1424
857.003174,1437
857.120911,1419
857.238586,1402
857.356201,1457
857.473938,1366
857.591614,1475
857.709351,1419
857.826965,1424
857.944641,1387
858.062317,1381
858.179993,1391
858.297668,1399
858.415283,1427
858.532959,1438
858.650574,1395
858.768188,1395
858.885803,1429
859.003479,1421
859.121094,1379
859.23877,1401
859.356384,1374
859.473999,1412
859.591675,1396
859.709229,1444
859.826843,1386
859.944458,1395
860.062012,1383
860.179626,1437
860.297302,1376
860.414856,1391
860.532471,1385
860.650024,1337
860.767639,1409
860.885193,1381
861.002808,1403
861.120361,1409
861.237976,1372
861.35553,1372
861.473022,1403
861.590698,1391
861.708191,1411
861.825745,1386
861.943298,1415
862.060852,1383
862.178406,1395
862.295959,1398
862.413513,1411
862.531006,1362
862.64856,1378
862.766113,1337
862.883667,1421
863.00116,1432
863.118713,1347
863.236206,1400
863.353699,1410
863.471252,1352
863.588745,1359
863.706177,1389
863.82373,1408
863.941162,1368
864.058716,1381
864.176208,1403
864.29364,1409
864.411194,1389
864.528687,1405
864.646118,1395
864.763611,1406
864.881042,1375
864.998535,1407
865.116028,1385
865.233459,1408
865.350891,1399
865.468384,1408
865.585754,1386
865.703308,1386
865.820679,1405
865.938171,1408
866.055542,1384
866.173035,1416
866.290466,1374
866.407837,1376
866.52533,1415
866.6427,1364
866.760071,1397
866.877563,1386
866.994934,1421
867.112305,1406
867.229736,1390
867.347107,1418
867.464539,1376
867.58197,1402
867.699341,1399
867.81665,1397
867.934082,1405
868.051453,1350
868.168823,1419
868.286194,1376
868.403564,1425
868.520935,1422
868.638306,1369
868.755676,1397
868.872986,1425
868.990295,1417
869.107727,1416
869.225037,1391
869.342346,1405
869.459717,1417
869.577026,1401
869.694336,1445
869.811707,1400
869.929016,1455
870.046326,1364
870.163635,1410
870.280945,1448
870.398254,1387
870.515564,1435
870.632812,1425
870.750183,1420
870.867432,1458
870.984741,1414
871.102051,1396
871.219299,1451
871.336609,1446
871.453918,1408
871.571106,1435
871.688416,1420
871.805664,1434
871.922852,1465
872.040222,1428
872.157471,1425
872.274719,1459
872.391968,1424
872.509155,1475
872.626465,1358
872.743652,1469
872.860962,1442
872.978149,1442
873.095337,1437
873.212646,1395
873.329834,1419
873.44696,1364
873.564209,1383
873.681396,1428
873.798645,1378
873.915894,1395
874.03302,1438
874.150208,1409
874.267456,1427
874.384583,1436
874.501831,1451
874.618958,1415
874.736145,1472
874.853333,1385
874.970459,1411
875.087646,1427
875.204834,1419
875.32196,1434
875.439148,1460
875.556274,1403
875.673401,1357
875.790527,1408
875.907715,1421
876.024841,1409
876.141968,1414
876.259094,1411
876.376282,1412
876.493347,1410
876.610474,1390
876.7276,1424
876.844727,1413
876.961853,1408
877.078918,1407
877.195984,1419
877.313171,1440
877.430237,1429
877.547302,1413
877.664368,1444
877.781433,1398
877.898499,1446
878.015625,1396
878.13269,1407
878.249695,1467
878.366821,1414
878.483887,1365
878.600952,1408
878.717957,1404
878.834961,1458
878.952087,1417
879.069092,1407
879.186157,1404
879.303162,1411
879.420227,1414
879.537231,1423
879.654236,1392
879.77124,1436
879.888306,1359
880.005249,1424
880.122314,1388
880.239319,1418
880.356323,1381
880.473328,1404
880.590271,1403
880.707275,1396
880.824341,1410
880.941284,1404
881.058228,1430
881.175232,1384
881.292236,1424
881.40918,1415
881.526123,1424
881.643066,1431
881.760071,1436
881.877014,1378
881.993958,1433
882.11084,1401
882.227783,1393
882.344727,1454
882.46167,1439
882.578613,1399
882.695618,1415
882.812439,1410
882.929382,1390
883.046326,1495
883.163208,1389
883.280151,1409
883.397034,1416
883.513916,1437
883.630798,1487
883.747742,1425
883.864563,1454
883.981506,1388
884.098389,1433
884.21521,1461
884.332153,1434
884.448975,1439
884.565796,1447
884.682678,1425
884.7995,1419
884.916443,1444
885.033264,1455
885.150085,1515
885.266968,1524
885.383789,1461
885.500671,1491
885.617493,1498
885.734314,1481
885.851196,1484
885.967896,1477
886.084717,1572
886.201599,1474
886.318359,1501
886.435181,1474
886.552002,1481
886.668762,1436
886.785645,1512
886.902344,1510
887.019165,1529
887.135925,1476
887.252747,1454
887.369446,1480
887.486267,1452
887.603027,1458
887.719788,1445
887.836548,1451
887.953247,1470
888.070068,1424
888.186829,1484
888.303528,1444
888.420288,1433
888.536987,1407
888.653687,1409
888.770447,1467
888.887146,1453
889.003967,1436
889.120667,1478
889.237305,1419
889.354065,1442
889.470703,1460
889.587463,1428
889.704163,1462
889.820862,1472
889.937561,1444
890.054199,1427
890.170837,1433
890.287598,1398
890.404236,1420
890.520874,1404
890.637634,1456
890.754211,1440
890.87085,1444
890.987549,1472
891.104187,1451
891.220886,1444
891.337463,1439
891.454102,1442
891.57074,1411
891.687378,1473
891.804077,1463
891.920654,1458
892.037231,1470
892.15387,1400
892.270447,1465
892.387085,1473
892.503723,1415
892.6203,1461
892.736877,1440
892.853516,1483
892.970032,1454
893.08667,1456
893.203186,1462
893.319763,1427
893.43634,1453
893.552917,1433
893.669556,1460
893.786011,1412
893.902588,1465
894.019165,1504
894.135681,1444
894.252197,1495
894.368835,1512
894.485291,1446
894.601868,1480
894.718384,1488
894.8349,1444
894.951355,1446
895.067932,1442
895.184448,1433
895.300964,1460
895.417419,1458
895.533936,1456
895.650452,1416
895.766907,1471
895.883423,1417
895.999878,1468
896.116333,1508
896.232849,1472
896.349304,1454
896.465759,1474
896.582214,1466
896.698669,1486
896.815125,1453
896.931641,1462
897.048035,1466
897.164551,1495
897.280884,1471
897.397339,1416
897.513794,1479
897.630249,1496
897.746582,1426
897.863098,1480
897.979431,1472
898.095886,1456
898.212341,1457
898.328674,1459
898.445129,1465
898.561462,1450
898.677795,1499
898.794312,1434
898.910645,1475
899.026978,1507
899.143433,1460
899.259766,1488
899.37616,1464
899.492493,1457
899.608765,1455
899.725159,1480
899.841553,1508
899.957947,1441
900.07428,1509
900.190552,1492
900.306946,1480
900.423157,1488
900.53949,1476
900.655884,1458
900.772156,1438
900.888489,1516
901.004822,1510
901.121033,1481
901.237366,1486
901.353699,1489
901.46991,1478
901.586304,1486
901.702515,1496
901.818787,1506
901.93512,1478
902.051331,1484
902.167603,1501
902.283875,1507
902.400085,1508
902.516418,1494
902.632629,1544
902.74884,1528
902.865112,1527
902.981384,1507
903.097595,1563
903.213867,1524
903.330017,1523
903.446289,1548
903.5625,1512
903.67865,1493
903.794922,1524
903.911072,1498
904.027344,1492
904.143494,1507
904.259705,1514
904.375916,1473
904.492065,1492
904.608215,1503
904.724426,1530
904.840576,1494
904.956726,1512
905.072876,1510
905.189087,1491
905.305176,1508
905.421387,1512
905.537537,1533
905.653687,1495
905.769775,1491
905.885925,1529
906.002014,1517
906.118164,1507
906.234314,1501
906.350403,1529
906.466492,1496
906.582642,1499
906.69873,1512
906.814758,1464
906.930908,1518
907.046936,1475
907.163086,1505
907.279175,1513
907.395264,1507
907.511353,1490
907.62738,1510
907.743408,1493
907.859497,1520
907.975525,1482
908.091553,1486
908.207703,1519
908.32373,1491
908.439758,1524
908.555786,1539
908.671814,1516
908.787842,1484
908.90387,1477
909.019775,1486
909.135864,1467
909.251892,1551
909.367859,1513
909.483826,1513
909.599854,1474
909.715881,1517
909.831848,1519
909.947815,1531
910.063782,1537
910.179749,1495
910.295776,1489
910.411743,1525
910.527649,1507
910.643616,1561
910.759583,1505
910.875488,1519
910.991455,1518
911.107361,1497
911.223267,1524
911.339294,1513
911.4552,1527
911.571106,1496
911.687073,1518
911.802979,1483
911.918823,1514
912.034729,1506
912.150635,1511
912.266602,1512
912.382446,1540
912.498352,1515
912.614197,1505
912.730103,1477
912.846008,1468
