792.44574,1781
792.56488,1765
792.68396,1741
792.80304,1727
792.92218,1661
793.041199,1690
793.160339,1626
793.279419,1695
793.398499,1649
793.517578,1643
793.636658,1611
793.755737,1628
793.874817,1631
793.993896,1645
794.112976,1566
794.232056,1608
794.351074,1608
794.470215,1585
794.589233,1612
794.708313,1576
794.827393,1539
794.946411,1501
795.065552,1541
795.18457,1591
795.303589,1535
795.422668,1588
795.541687,1558
795.660767,1549
795.779846,1549
795.898865,1519
796.017883,1567
796.136963,1516
796.255981,1568
796.375061,1553
796.49408,1482
796.613037,1531
796.732117,1528
796.851135,1538
796.970154,1526
797.089233,1544
797.208191,1517
797.327271,1525
797.446228,1523
797.565186,1530
797.684265,1517
797.803223,1498
797.922241,1504
798.04126,1527
798.160278,1463
798.279297,1510
798.398315,1448
798.517273,1488
798.636292,1499
798.75531,1500
798.874268,1504
798.993286,1478
799.112244,1494
799.231323,1467
799.350281,1508
799.469238,1484
799.588257,1493
799.707153,1489
799.826111,1510
799.945129,1460
800.064087,1479
800.183044,1459
800.302063,1444
800.421021,1517
800.539978,1429
800.658936,1461
800.777893,1515
800.896912,1444
801.015747,1479
801.134705,1467
801.253723,1489
801.37262,1438
801.491638,1462
801.610535,1501
801.729492,1478
801.84845,1479
801.967407,1462
802.086243,1482
802.205261,1482
802.324158,1460
802.443115,1441
802.562073,1485
802.680969,1427
802.799927,1476
802.918762,1455
803.037659,1474
803.156677,1482
803.275574,1416
803.39447,1442
803.513428,1428
803.632263,1496
803.751221,1458
803.870117,1463
803.989014,1458
804.107971,1427
804.226746,1480
804.345642,1453
804.4646,1488
804.583496,1461
804.702393,1422
804.821228,1468
804.940125,1441
805.059021,1469
805.177917,1475
805.296814,1489
805.415649,1447
805.534546,1441
805.653442,1429
805.772278,1493
805.891113,1427
806.01001,1456
806.128906,1451
806.247742,1427
806.366577,1446
806.485413,1478
806.604309,1470
806.723145,1460
806.84198,1439
806.960876,1500
807.079712,1496
807.198486,1488
807.317383,1485
807.436218,1440
807.554993,1484
807.673889,1427
807.792725,1407
807.91156,1412
808.030396,1464
808.14917,1428
808.268005,1438
808.386841,1464
808.505676,1405
808.624451,1442
808.743286,1418
808.862122,1406
808.980896,1464
809.099731,1428
809.218506,1475
809.337341,1462
809.456116,1446
809.57489,1455
809.693726,1483
809.8125,1451
809.931274,1453
810.050049,1433
810.168884,1458
810.287659,1434
810.406372,1449
810.525269,1457
810.643982,1464
810.762756,1452
810.881531,1431
811.000305,1463
811.11908,1398
811.237854,1437
811.356567,1455
811.475403,1446
811.594116,1402
811.71283,1440
811.831604,1435
811.950378,1444
812.069153,1438
812.187927,1465
812.30658,1428
812.425415,1423
812.544128,1438
812.662781,1425
812.781616,1449
812.900269,1444
813.019043,1450
813.137756,1450
813.256531,1453
813.375244,1457
813.493896,1446
813.612671,1453
813.731384,1424
813.850037,1461
813.96875,1405
814.087524,1422
814.206238,1406
814.324951,1411
814.443604,1447
814.562256,1386
814.68103,1404
814.799683,1429
814.918335,1411
815.037109,1435
815.155762,1404
815.274475,1438
815.393188,1444
815.511841,1442
815.630554,1456
815.749146,1446
815.867859,1420
815.986572,1456
816.105164,1396
816.223877,1417
816.342529,1390
816.461182,1401
816.579895,1411
816.698486,1400
816.817139,1441
816.935791,1396
817.054504,1425
817.173096,1396
817.291748,1398
817.4104,1423
817.529053,1381
817.647644,1402
817.766235,1387
817.884949,1390
818.00354,1369
818.122192,1427
818.240845,1380
818.359436,1412
818.478088,1373
818.59668,1336
818.715271,1365
818.833923,1345
818.952515,1377
819.071106,1385
819.189758,1366
819.30835,1355
819.426941,1348
819.545532,1323
819.664124,1370
819.782715,1378
819.901306,1347
820.019897,1313
820.138489,1395
820.25708,1323
820.375671,1349
820.494202,1387
820.612732,1341
820.731384,1386
820.849915,1366
820.968506,1320
821.087097,1316
821.205627,1351
821.324158,1356
821.442749,1345
821.561279,1370
821.679871,1316
821.798401,1301
821.916931,1328
822.035461,1376
822.154053,1333
822.272583,1342
822.391174,1314
822.509583,1304
822.628174,1324
822.746704,1312
822.865234,1308
822.983765,1324
823.102295,1314
823.220825,1314
823.339294,1288
823.457825,1332
823.576355,1292
823.694824,1356
823.813354,1309
823.931885,1329
824.050354,1348
824.168884,1325
824.287354,1311
824.405823,1275
824.524353,1324
824.642822,1285
824.761353,1346
824.879822,1322
824.998291,1326
825.116699,1310
825.235291,1279
825.353699,1329
825.472168,1293
825.590637,1329
825.709106,1330
825.827576,1298
825.946045,1271
826.064453,1328
826.182983,1322
826.301392,1312
826.4198,1293
826.53833,1289
826.656738,1285
826.775208,1300
826.893677,1283
827.012024,1310
827.130493,1280
827.248962,1274
827.36731,1298
827.485779,1292
827.604248,1290
827.722595,1316
827.841064,1259
827.959412,1301
828.077942,1318
828.196289,1313
828.314636,1270
828.433105,1352
828.551514,1324
828.669861,1290
828.78833,1275
828.906677,1270
829.025085,1275
829.143433,1290
829.261841,1297
829.38031,1323
829.498657,1303
829.617004,1316
829.735413,1270
829.85376,1273
829.972107,1289
830.090515,1287
830.208862,1301
830.327209,1312
830.445557,1282
830.563904,1310
830.682312,1289
830.800659,1264
830.919006,1286
831.037354,1288
831.155701,1304
831.274048,1272
831.392395,1291
831.51062,1291
831.629028,1302
831.747314,1267
831.865662,1288
831.984009,1317
832.102356,1279
832.220642,1243
832.338928,1284
832.457275,1284
832.575623,1317
832.693909,1281
832.812134,1279
832.930481,1299
833.048828,1269
833.167114,1298
833.2854,1266
833.403687,1279
833.521973,1292
833.640259,1276
833.758545,1249
833.876831,1298
833.995056,1256
834.113281,1294
834.231628,1278
834.349915,1283
834.468201,1321
834.586426,1276
834.704651,1290
834.822998,1255
834.941162,1282
835.059448,1335
835.177673,1309
835.295959,1286
835.414246,1282
835.53241,1300
835.650635,1296
835.768921,1280
835.887146,1297
836.005371,1304
836.123596,1277
836.241821,1299
836.360046,1298
836.478271,1287
836.596497,1241
836.714722,1288
836.832886,1274
836.95105,1292
837.069336,1323
837.1875,1289
837.305725,1294
837.423889,1290
837.542053,1238
837.660339,1278
837.778503,1293
837.896667,1277
838.014832,1291
838.132996,1307
838.25116,1266
838.369385,1276
838.487488,1247
838.605713,1254
838.723877,1317
838.84198,1256
838.960205,1302
839.078308,1264
839.196472,1284
839.314636,1273
839.4328,1271
839.550964,1261
839.669067,1269
839.787231,1310
839.905396,1278
840.023499,1285
840.141602,1273
840.259766,1266
840.377869,1271
840.495972,1246
840.614136,1299
840.732239,1307
840.850342,1340
840.968445,1313
841.086548,1268
841.204651,1281
841.322754,1295
841.440918,1253
841.55896,1270
841.677002,1284
841.795166,1311
841.913208,1292
842.031311,1277
842.149353,1291
842.267456,1298
842.385498,1296
842.503601,1261
842.621643,1315
842.739746,1262
842.857788,1272
842.97583,1277
843.093933,1285
843.211975,1281
843.330017,1287
843.44812,1246
843.566101,1319
843.684204,1292
843.802246,1303
843.920227,1215
844.038269,1296
844.156311,1274
844.274292,1310
844.392395,1252
844.510376,1268
844.628357,1245
844.74646,1314
844.864441,1233
844.982422,1311
845.100403,1289
845.218384,1230
845.336426,1291
845.454468,1250
845.572449,1281
845.69043,1252
845.808411,1238
845.926453,1273
846.044373,1297
846.162354,1274
846.280396,1283
846.398315,1261
846.516296,1313
846.634216,1281
846.752197,1278
846.870178,1291
846.988098,1257
847.106079,1262
847.22406,1259
847.34198,1266
847.4599,1303
847.577881,1309
847.695801,1267
847.813782,1256
847.931641,1261
848.049561,1249
848.167603,1239
848.285461,1270
848.403381,1318
848.521362,1276
848.639221,1317
848.75708,1287
848.875,1256
848.99292,1306
849.110901,1309
849.22876,1269
849.34668,1262
849.464539,1324
849.582458,1235
849.700317,1264
849.818176,1282
849.936096,1272
850.053955,1290
850.171875,1286
850.289673,1311
850.407593,1258
850.525452,1293
850.643311,1312
850.761169,1295
850.878967,1270
850.996887,1272
851.114746,1275
851.232544,1269
851.350403,1269
851.468262,1316
851.58606,1263
851.703979,1263
851.821777,1280
851.939636,1309
852.057434,1292
852.175232,1290
852.293091,1246
852.410889,1298
852.528687,1279
852.646545,1304
852.764343,1284
852.88208,1296
852.999939,1292
853.117676,1280
853.235535,1253
853.353271,1321
853.471069,1290
853.588928,1276
853.706604,1300
853.824402,1343
853.9422,1268
854.059998,1299
854.177734,1310
854.295532,1263
854.413269,1296
854.531006,1273
854.648804,1284
854.766541,1266
854.884277,1286
855.002014,1305
855.119751,1307
855.237549,1269
855.355225,1272
855.473022,1307
855.590698,1336
855.708435,1297
855.826172,1286
855.943848,1307
856.061646,1264
856.179321,1290
856.296997,1295
856.414795,1276
856.53241,1273
856.650085,1248
856.767822,1262
856.885559,1280
857.003174,1289
857.120911,1307
857.238586,1340
857.356201,1262
857.473938,1266
857.591614,1304
857.709351,1295
857.826965,1233
857.944641,1293
858.062317,1318
858.179993,1292
858.297668,1305
858.415283,1309
858.532959,1316
858.650574,1293
858.768188,1283
858.885803,1270
859.003479,1233
859.121094,1322
859.23877,1275
859.356384,1300
859.473999,1265
859.591675,1313
859.709229,1282
859.826843,1311
859.944458,1265
860.062012,1281
860.179626,1296
860.297302,1287
860.414856,1268
860.532471,1281
860.650024,1272
860.767639,1313
860.885193,1286
861.002808,1289
861.120361,1336
861.237976,1264
861.35553,1276
861.473022,1302
861.590698,1307
861.708191,1309
861.825745,1298
861.943298,1264
862.060852,1274
862.178406,1279
862.295959,1283
862.413513,1316
862.531006,1307
862.64856,1256
862.766113,1308
862.883667,1275
863.00116,1288
863.118713,1293
863.236206,1305
863.353699,1298
863.471252,1310
863.588745,1247
863.706177,1275
863.82373,1299
863.941162,1280
864.058716,1303
864.176208,1284
864.29364,1314
864.411194,1282
864.528687,1306
864.646118,1345
864.763611,1274
864.881042,1300
864.998535,1324
865.116028,1276
865.233459,1288
865.350891,1293
865.468384,1298
865.585754,1311
865.703308,1288
865.820679,1300
865.938171,1309
866.055542,1281
866.173035,1285
866.290466,1292
866.407837,1267
866.52533,1281
866.6427,1286
866.760071,1307
866.877563,1301
866.994934,1316
867.112305,1240
867.229736,1325
867.347107,1307
867.464539,1309
867.58197,1311
867.699341,1266
867.81665,1276
867.934082,1311
868.051453,1269
868.168823,1285
868.286194,1288
868.403564,1275
868.520935,1331
868.638306,1300
868.755676,1294
868.872986,1292
868.990295,1294
869.107727,1342
869.225037,1288
869.342346,1295
869.459717,1275
869.577026,1271
869.694336,1330
869.811707,1278
869.929016,1330
870.046326,1311
870.163635,1299
870.280945,1312
870.398254,1299
870.515564,1343
870.632812,1297
870.750183,1335
870.867432,1279
870.984741,1262
871.102051,1321
871.219299,1304
871.336609,1334
871.453918,1305
871.571106,1323
871.688416,1321
871.805664,1314
871.922852,1347
872.040222,1289
872.157471,1309
872.274719,1351
872.391968,1339
872.509155,1321
872.626465,1298
872.743652,1295
872.860962,1293
872.978149,1265
873.095337,1325
873.212646,1312
873.329834,1304
873.44696,1332
873.564209,1330
873.681396,1337
873.798645,1287
873.915894,1327
874.03302,1279
874.150208,1281
874.267456,1323
874.384583,1317
874.501831,1309
874.618958,1311
874.736145,1293
874.853333,1318
874.970459,1326
875.087646,1324
875.204834,1339
875.32196,1326
875.439148,1326
875.556274,1308
875.673401,1328
875.790527,1287
875.907715,1347
876.024841,1304
876.141968,1361
876.259094,1299
876.376282,1301
876.493347,1291
876.610474,1295
876.7276,1319
876.844727,1308
876.961853,1288
877.078918,1312
877.195984,1289
877.313171,1309
877.430237,1320
877.547302,1306
877.664368,1313
877.781433,1316
877.898499,1281
878.015625,1305
878.13269,1309
878.249695,1303
878.366821,1290
878.483887,1342
878.600952,1280
878.717957,1350
878.834961,1353
878.952087,1270
879.069092,1306
879.186157,1284
879.303162,1315
879.420227,1305
879.537231,1302
879.654236,1305
879.77124,1290
879.888306,1307
880.005249,1298
880.122314,1304
880.239319,1296
880.356323,1296
880.473328,1314
880.590271,1335
880.707275,1289
880.824341,1267
880.941284,1308
881.058228,1311
881.175232,1279
881.292236,1322
881.40918,1307
881.526123,1347
881.643066,1305
881.760071,1340
881.877014,1332
881.993958,1345
882.11084,1302
882.227783,1297
882.344727,1327
882.46167,1357
882.578613,1274
882.695618,1300
882.812439,1317
882.929382,1290
883.046326,1329
883.163208,1360
883.280151,1291
883.397034,1321
883.513916,1319
883.630798,1318
883.747742,1297
883.864563,1302
883.981506,1307
884.098389,1320
884.21521,1297
884.332153,1335
884.448975,1320
884.565796,1337
884.682678,1340
884.7995,1312
884.916443,1363
885.033264,1346
885.150085,1346
885.266968,1366
885.383789,1351
885.500671,1351
885.617493,1363
885.734314,1379
885.851196,1365
885.967896,1382
886.084717,1383
886.201599,1391
886.318359,1340
886.435181,1326
886.552002,1402
886.668762,1346
886.785645,1339
886.902344,1374
887.019165,1345
887.135925,1390
887.252747,1369
887.369446,1372
887.486267,1335
887.603027,1354
887.719788,1334
887.836548,1357
887.953247,1322
888.070068,1340
888.186829,1354
888.303528,1363
888.420288,1320
888.536987,1322
888.653687,1356
888.770447,1341
888.887146,1314
889.003967,1317
889.120667,1317
889.237305,1313
889.354065,1325
889.470703,1315
889.587463,1301
889.704163,1349
889.820862,1346
889.937561,1363
890.054199,1361
890.170837,1340
890.287598,1297
890.404236,1310
890.520874,1337
890.637634,1328
890.754211,1331
890.87085,1354
890.987549,1368
891.104187,1358
891.220886,1346
891.337463,1296
891.454102,1344
891.57074,1323
891.687378,1342
891.804077,1366
891.920654,1313
892.037231,1376
892.15387,1333
892.270447,1316
892.387085,1352
892.503723,1324
892.6203,1338
892.736877,1346
892.853516,1367
892.970032,1301
893.08667,1337
893.203186,1348
893.319763,1367
893.43634,1357
893.552917,1341
893.669556,1375
893.786011,1354
893.902588,1340
894.019165,1322
894.135681,1366
894.252197,1338
894.368835,1319
894.485291,1337
894.601868,1388
894.718384,1365
894.8349,1340
894.951355,1332
895.067932,1350
895.184448,1342
895.300964,1345
895.417419,1362
895.533936,1360
895.650452,1359
895.766907,1352
895.883423,1359
895.999878,1330
896.116333,1353
896.232849,1337
896.349304,1353
896.465759,1344
896.582214,1403
896.698669,1339
896.815125,1348
896.931641,1368
897.048035,1361
897.164551,1333
897.280884,1363
897.397339,1380
897.513794,1358
897.630249,1369
897.746582,1372
897.863098,1375
897.979431,1329
898.095886,1347
898.212341,1375
898.328674,1361
898.445129,1361
898.561462,1366
898.677795,1393
898.794312,1357
898.910645,1327
899.026978,1368
899.143433,1373
899.259766,1361
899.37616,1337
899.492493,1338
899.608765,1333
899.725159,1397
899.841553,1329
899.957947,1371
900.07428,1367
900.190552,1364
900.306946,1328
900.423157,1355
900.53949,1331
900.655884,1332
900.772156,1404
900.888489,1375
901.004822,1347
901.121033,1374
901.237366,1367
901.353699,1338
901.46991,1406
901.586304,1368
901.702515,1362
901.818787,1382
901.93512,1370
902.051331,1390
902.167603,1367
902.283875,1377
902.400085,1360
902.516418,1393
902.632629,1384
902.74884,1376
902.865112,1385
902.981384,1381
903.097595,1383
903.213867,1426
903.330017,1372
903.446289,1411
903.5625,1377
903.67865,1366
903.794922,1395
903.911072,1386
904.027344,1382
904.143494,1357
904.259705,1365
904.375916,1401
904.492065,1362
904.608215,1396
904.724426,1405
904.840576,1382
904.956726,1364
905.072876,1409
905.189087,1390
905.305176,1360
905.421387,1369
905.537537,1411
905.653687,1402
905.769775,1379
905.885925,1367
906.002014,1362
906.118164,1387
906.234314,1409
906.350403,1383
906.466492,1368
906.582642,1398
906.69873,1390
906.814758,1377
906.930908,1396
907.046936,1396
907.163086,1393
907.279175,1388
907.395264,1372
907.511353,1383
907.62738,1381
907.743408,1425
907.859497,1379
907.975525,1374
908.091553,1375
908.207703,1357
908.32373,1404
908.439758,1416
908.555786,1343
908.671814,1367
908.787842,1414
908.90387,1388
909.019775,1383
909.135864,1426
909.251892,1378
909.367859,1380
909.483826,1396
909.599854,1375
909.715881,1382
909.831848,1423
909.947815,1316
910.063782,1380
910.179749,1417
910.295776,1401
910.411743,1384
910.527649,1395
910.643616,1403
910.759583,1397
910.875488,1405
910.991455,1395
911.107361,1408
911.223267,1378
911.339294,1411
911.4552,1391
911.571106,1408
911.687073,1388
911.802979,1436
911.918823,1411
912.034729,1406
912.150635,1386
912.266602,1375
912.382446,1394
912.498352,1374
912.614197,1369
912.730103,1401
912.846008,1365
792.44574,1837
792.56488,1755
792.68396,1804
792.80304,1757
792.92218,1717
793.041199,1663
793.160339,1681
793.279419,1685
793.398499,1697
793.517578,1706
793.636658,1659
793.755737,1656
793.874817,1645
793.993896,1700
794.112976,1700
794.232056,1630
794.351074,1595
794.470215,1651
794.589233,1623
794.708313,1585
794.827393,1617
794.946411,1596
795.065552,1590
795.18457,1585
795.303589,1598
795.422668,1567
795.541687,1573
795.660767,1575
795.779846,1568
795.898865,1590
796.017883,1545
796.136963,1526
796.255981,1574
796.375061,1530
796.49408,1577
796.613037,1562
796.732117,1552
796.851135,1583
796.970154,1568
797.089233,1537
797.208191,1511
797.327271,1535
797.446228,1540
797.565186,1544
797.684265,1530
797.803223,1520
797.922241,1534
798.04126,1510
798.160278,1538
798.279297,1540
798.398315,1581
798.517273,1550
798.636292,1536
798.75531,1530
798.874268,1530
798.993286,1499
799.112244,1493
799.231323,1523
799.350281,1506
799.469238,1520
799.588257,1479
799.707153,1532
799.826111,1525
799.945129,1541
800.064087,1501
800.183044,1560
800.302063,1503
800.421021,1533
800.539978,1494
800.658936,1529
800.777893,1498
800.896912,1522
801.015747,1504
801.134705,1480
801.253723,1509
801.37262,1496
801.491638,1519
801.610535,1531
801.729492,1477
801.84845,1499
801.967407,1534
802.086243,1467
802.205261,1520
802.324158,1505
802.443115,1532
802.562073,1510
802.680969,1511
802.799927,1515
802.918762,1472
803.037659,1501
803.156677,1453
803.275574,1533
803.39447,1480
803.513428,1458
803.632263,1509
803.751221,1485
803.870117,1480
803.989014,1506
804.107971,1514
804.226746,1466
804.345642,1476
804.4646,1452
804.583496,1491
804.702393,1495
804.821228,1491
804.940125,1503
805.059021,1546
805.177917,1458
805.296814,1507
805.415649,1468
805.534546,1534
805.653442,1429
805.772278,1473
805.891113,1513
806.01001,1490
806.128906,1493
806.247742,1410
806.366577,1519
806.485413,1477
806.604309,1516
806.723145,1509
806.84198,1478
806.960876,1449
807.079712,1423
807.198486,1489
807.317383,1464
807.436218,1477
807.554993,1530
807.673889,1495
807.792725,1454
807.91156,1456
808.030396,1468
808.14917,1488
808.268005,1434
808.386841,1491
808.505676,1479
808.624451,1492
808.743286,1459
808.862122,1454
808.980896,1501
809.099731,1461
809.218506,1479
809.337341,1460
809.456116,1480
809.57489,1486
809.693726,1427
809.8125,1479
809.931274,1448
810.050049,1493
810.168884,1481
810.287659,1498
810.406372,1439
810.525269,1475
810.643982,1441
810.762756,1495
810.881531,1455
811.000305,1439
811.11908,1484
811.237854,1477
811.356567,1485
811.475403,1479
811.594116,1443
811.71283,1486
811.831604,1468
811.950378,1468
812.069153,1454
812.187927,1466
812.30658,1440
812.425415,1456
812.544128,1470
812.662781,1462
812.781616,1445
812.900269,1508
813.019043,1456
813.137756,1446
813.256531,1478
813.375244,1440
813.493896,1455
813.612671,1447
813.731384,1443
813.850037,1460
813.96875,1440
814.087524,1423
814.206238,1397
814.324951,1444
814.443604,1424
814.562256,1473
814.68103,1429
814.799683,1465
814.918335,1475
815.037109,1442
815.155762,1442
815.274475,1501
815.393188,1442
815.511841,1482
815.630554,1441
815.749146,1409
815.867859,1411
815.986572,1472
816.105164,1477
816.223877,1425
816.342529,1432
816.461182,1519
816.579895,1435
816.698486,1437
816.817139,1446
816.935791,1416
817.054504,1448
817.173096,1446
817.291748,1420
817.4104,1432
817.529053,1414
817.647644,1409
817.766235,1430
817.884949,1430
818.00354,1373
818.122192,1403
818.240845,1423
818.359436,1418
818.478088,1393
818.59668,1362
818.715271,1412
818.833923,1374
818.952515,1368
819.071106,1320
819.189758,1382
819.30835,1385
819.426941,1391
819.545532,1376
819.664124,1373
819.782715,1375
819.901306,1407
820.019897,1352
820.138489,1416
820.25708,1350
820.375671,1366
820.494202,1335
820.612732,1377
820.731384,1364
820.849915,1387
820.968506,1386
821.087097,1379
821.205627,1353
821.324158,1343
821.442749,1391
821.561279,1334
821.679871,1360
821.798401,1364
821.916931,1339
822.035461,1376
822.154053,1373
822.272583,1355
822.391174,1395
822.509583,1327
822.628174,1375
822.746704,1361
822.865234,1337
822.983765,1349
823.102295,1370
823.220825,1307
823.339294,1322
823.457825,1391
823.576355,1349
823.694824,1371
823.813354,1357
823.931885,1367
824.050354,1342
824.168884,1356
824.287354,1322
824.405823,1363
824.524353,1392
824.642822,1332
824.761353,1341
824.879822,1327
824.998291,1354
825.116699,1397
825.235291,1373
825.353699,1321
825.472168,1330
825.590637,1322
825.709106,1359
825.827576,1311
825.946045,1337
826.064453,1328
826.182983,1349
826.301392,1350
826.4198,1330
826.53833,1311
826.656738,1357
826.775208,1333
826.893677,1331
827.012024,1285
827.130493,1349
827.248962,1306
827.36731,1335
827.485779,1312
827.604248,1351
827.722595,1326
827.841064,1353
827.959412,1301
828.077942,1308
828.196289,1307
828.314636,1327
828.433105,1301
828.551514,1365
828.669861,1322
828.78833,1324
828.906677,1332
829.025085,1322
829.143433,1325
829.261841,1293
829.38031,1342
829.498657,1346
829.617004,1318
829.735413,1307
829.85376,1276
829.972107,1339
830.090515,1300
830.208862,1321
830.327209,1331
830.445557,1315
830.563904,1302
830.682312,1321
830.800659,1311
830.919006,1311
831.037354,1292
831.155701,1303
831.274048,1338
831.392395,1309
831.51062,1334
831.629028,1296
831.747314,1336
831.865662,1320
831.984009,1300
832.102356,1320
832.220642,1300
832.338928,1332
832.457275,1303
832.575623,1315
832.693909,1307
832.812134,1330
832.930481,1313
833.048828,1315
833.167114,1315
833.2854,1346
833.403687,1319
833.521973,1311
833.640259,1277
833.758545,1308
833.876831,1290
833.995056,1311
834.113281,1323
834.231628,1326
834.349915,1336
834.468201,1306
834.586426,1277
834.704651,1322
834.822998,1291
834.941162,1287
835.059448,1312
835.177673,1286
835.295959,1331
835.414246,1305
835.53241,1328
835.650635,1308
835.768921,1319
835.887146,1321
836.005371,1305
836.123596,1307
836.241821,1299
836.360046,1350
836.478271,1322
836.596497,1320
836.714722,1289
836.832886,1286
836.95105,1322
837.069336,1299
837.1875,1321
837.305725,1336
837.423889,1325
837.542053,1300
837.660339,1303
837.778503,1314
837.896667,1327
838.014832,1342
838.132996,1329
838.25116,1326
838.369385,1316
838.487488,1334
838.605713,1292
838.723877,1314
838.84198,1310
838.960205,1295
839.078308,1355
839.196472,1322
839.314636,1342
839.4328,1327
839.550964,1296
839.669067,1319
839.787231,1279
839.905396,1324
840.023499,1292
840.141602,1313
840.259766,1310
840.377869,1284
840.495972,1309
840.614136,1288
840.732239,1315
840.850342,1295
840.968445,1359
841.086548,1330
841.204651,1326
841.322754,1295
841.440918,1329
841.55896,1314
841.677002,1327
841.795166,1297
841.913208,1306
842.031311,1324
842.149353,1283
842.267456,1309
842.385498,1303
842.503601,1324
842.621643,1287
842.739746,1349
842.857788,1332
842.97583,1351
843.093933,1334
843.211975,1324
843.330017,1287
843.44812,1309
843.566101,1275
843.684204,1333
843.802246,1303
843.920227,1280
844.038269,1298
844.156311,1332
844.274292,1302
844.392395,1304
844.510376,1321
844.628357,1321
844.74646,1272
844.864441,1289
844.982422,1303
845.100403,1280
845.218384,1270
845.336426,1268
845.454468,1297
845.572449,1326
845.69043,1292
845.808411,1302
845.926453,1248
846.044373,1268
846.162354,1276
846.280396,1247
846.398315,1246
846.516296,1281
846.634216,1306
846.752197,1284
846.870178,1282
846.988098,1304
847.106079,1303
847.22406,1295
847.34198,1330
847.4599,1306
847.577881,1294
847.695801,1297
847.813782,1273
847.931641,1355
848.049561,1282
848.167603,1304
848.285461,1247
848.403381,1288
848.521362,1326
848.639221,1289
848.75708,1320
848.875,1325
848.99292,1293
849.110901,1293
849.22876,1278
849.34668,1312
849.464539,1268
849.582458,1284
849.700317,1284
849.818176,1303
849.936096,1297
850.053955,1304
850.171875,1307
850.289673,1303
850.407593,1299
850.525452,1262
850.643311,1323
850.761169,1329
850.878967,1263
850.996887,1323
851.114746,1296
851.232544,1292
851.350403,1291
851.468262,1337
851.58606,1279
851.703979,1285
851.821777,1311
851.939636,1335
852.057434,1299
852.175232,1334
852.293091,1286
852.410889,1297
852.528687,1320
852.646545,1343
852.764343,1337
852.88208,1281
852.999939,1345
853.117676,1329
853.235535,1301
853.353271,1320
853.471069,1289
853.588928,1286
853.706604,1318
853.824402,1323
853.9422,1277
854.059998,1283
854.177734,1295
854.295532,1340
854.413269,1324
854.531006,1296
854.648804,1278
854.766541,1293
854.884277,1276
855.002014,1343
855.119751,1360
855.237549,1285
855.355225,1310
855.473022,1324
855.590698,1292
855.708435,1285
855.826172,1317
855.943848,1323
856.061646,1357
856.179321,1307
856.296997,1301
856.414795,1308
856.53241,1323
856.650085,1266
856.767822,1286
856.885559,1324
857.003174,1285
857.120911,1316
857.238586,1309
857.356201,1321
857.473938,1333
857.591614,1299
857.709351,1309
857.826965,1340
857.944641,1298
858.062317,1330
858.179993,1353
858.297668,1310
858.415283,1328
858.532959,1351
858.650574,1341
858.768188,1372
858.885803,1334
859.003479,1311
859.121094,1313
859.23877,1345
859.356384,1319
859.473999,1279
859.591675,1314
859.709229,1337
859.826843,1317
859.944458,1301
860.062012,1310
860.179626,1313
860.297302,1295
860.414856,1309
860.532471,1306
860.650024,1323
860.767639,1293
860.885193,1344
861.002808,1310
861.120361,1314
861.237976,1270
861.35553,1339
861.473022,1292
861.590698,1316
861.708191,1324
861.825745,1296
861.943298,1295
862.060852,1270
862.178406,1329
862.295959,1244
862.413513,1298
862.531006,1299
862.64856,1312
862.766113,1275
862.883667,1295
863.00116,1276
863.118713,1288
863.236206,1311
863.353699,1314
863.471252,1310
863.588745,1329
863.706177,1294
863.82373,1329
863.941162,1327
864.058716,1309
864.176208,1277
864.29364,1330
864.411194,1307
864.528687,1283
864.646118,1323
864.763611,1331
864.881042,1306
864.998535,1336
865.116028,1334
865.233459,1319
865.350891,1302
865.468384,1320
865.585754,1365
865.703308,1325
865.820679,1317
865.938171,1326
866.055542,1290
866.173035,1295
866.290466,1349
866.407837,1321
866.52533,1321
866.6427,1304
866.760071,1310
866.877563,1325
866.994934,1358
867.112305,1321
867.229736,1352
867.347107,1298
867.464539,1310
867.58197,1310
867.699341,1311
867.81665,1326
867.934082,1328
868.051453,1348
868.168823,1302
868.286194,1310
868.403564,1333
868.520935,1287
868.638306,1313
868.755676,1317
868.872986,1351
868.990295,1315
869.107727,1361
869.225037,1323
869.342346,1310
869.459717,1309
869.577026,1324
869.694336,1290
869.811707,1316
869.929016,1327
870.046326,1311
870.163635,1345
870.280945,1339
870.398254,1352
870.515564,1341
870.632812,1323
870.750183,1312
870.867432,1327
870.984741,1321
871.102051,1303
871.219299,1369
871.336609,1345
871.453918,1322
871.571106,1303
871.688416,1301
871.805664,1332
871.922852,1345
872.040222,1328
872.157471,1327
872.274719,1333
872.391968,1363
872.509155,1304
872.626465,1348
872.743652,1304
872.860962,1322
872.978149,1302
873.095337,1360
873.212646,1331
873.329834,1339
873.44696,1343
873.564209,1336
873.681396,1346
873.798645,1326
873.915894,1326
874.03302,1352
874.150208,1337
874.267456,1316
874.384583,1331
874.501831,1328
874.618958,1328
874.736145,1356
874.853333,1350
874.970459,1342
875.087646,1366
875.204834,1312
875.32196,1335
875.439148,1313
875.556274,1327
875.673401,1367
875.790527,1322
875.907715,1325
876.024841,1335
876.141968,1383
876.259094,1279
876.376282,1322
876.493347,1306
876.610474,1332
876.7276,1342
876.844727,1355
876.961853,1349
877.078918,1324
877.195984,1337
877.313171,1351
877.430237,1335
877.547302,1325
877.664368,1348
877.781433,1337
877.898499,1364
878.015625,1318
878.13269,1312
878.249695,1289
878.366821,1329
878.483887,1347
878.600952,1362
878.717957,1334
878.834961,1356
878.952087,1366
879.069092,1326
879.186157,1305
879.303162,1306
879.420227,1294
879.537231,1378
879.654236,1321
879.77124,1339
879.888306,1310
880.005249,1331
880.122314,1351
880.239319,1327
880.356323,1335
880.473328,1328
880.590271,1311
880.707275,1322
880.824341,1313
880.941284,1312
881.058228,1353
881.175232,1342
881.292236,1371
881.40918,1332
881.526123,1395
881.643066,1329
881.760071,1421
881.877014,1342
881.993958,1354
882.11084,1341
882.227783,1346
882.344727,1323
882.46167,1334
882.578613,1308
882.695618,1310
882.812439,1296
882.929382,1333
883.046326,1305
883.163208,1392
883.280151,1329
883.397034,1355
883.513916,1307
883.630798,1359
883.747742,1310
883.864563,1315
883.981506,1372
884.098389,1341
884.21521,1366
884.332153,1375
884.448975,1365
884.565796,1352
884.682678,1377
884.7995,1367
884.916443,1360
885.033264,1381
885.150085,1382
885.266968,1383
885.383789,1345
885.500671,1411
885.617493,1381
885.734314,1376
885.851196,1405
885.967896,1398
886.084717,1343
886.201599,1375
886.318359,1393
886.435181,1389
886.552002,1389
886.668762,1376
886.785645,1387
886.902344,1402
887.019165,1392
887.135925,1346
887.252747,1369
887.369446,1376
887.486267,1413
887.603027,1322
887.719788,1374
887.836548,1365
887.953247,1356
888.070068,1326
888.186829,1346
888.303528,1377
888.420288,1354
888.536987,1352
888.653687,1348
888.770447,1336
888.887146,1345
889.003967,1323
889.120667,1381
889.237305,1357
889.354065,1356
889.470703,1341
889.587463,1357
889.704163,1378
889.820862,1358
889.937561,1355
890.054199,1364
890.170837,1383
890.287598,1378
890.404236,1377
890.520874,1391
890.637634,1386
890.754211,1369
890.87085,1361
890.987549,1368
891.104187,1356
891.220886,1368
891.337463,1385
891.454102,1389
891.57074,1384
891.687378,1380
891.804077,1384
891.920654,1368
892.037231,1389
892.15387,1392
892.270447,1366
892.387085,1369
892.503723,1410
892.6203,1365
892.736877,1355
892.853516,1312
892.970032,1368
893.08667,1397
893.203186,1344
893.319763,1341
893.43634,1400
893.552917,1414
893.669556,1368
893.786011,1386
893.902588,1356
894.019165,1411
894.135681,1367
894.252197,1392
894.368835,1395
894.485291,1373
894.601868,1382
894.718384,1381
894.8349,1404
894.951355,1361
895.067932,1379
895.184448,1332
895.300964,1401
895.417419,1370
895.533936,1408
895.650452,1359
895.766907,1386
895.883423,1402
895.999878,1384
896.116333,1431
896.232849,1371
896.349304,1370
896.465759,1403
896.582214,1373
896.698669,1400
896.815125,1364
896.931641,1432
897.048035,1406
897.164551,1412
897.280884,1362
897.397339,1427
897.513794,1365
897.630249,1399
897.746582,1335
897.863098,1405
897.979431,1399
898.095886,1387
898.212341,1378
898.328674,1415
898.445129,1441
898.561462,1408
898.677795,1404
898.794312,1389
898.910645,1353
899.026978,1402
899.143433,1373
899.259766,1390
899.37616,1413
899.492493,1410
899.608765,1358
899.725159,1376
899.841553,1409
899.957947,1361
900.07428,1408
900.190552,1422
900.306946,1422
900.423157,1388
900.53949,1393
900.655884,1399
900.772156,1418
900.888489,1427
901.004822,1373
901.121033,1440
901.237366,1406
901.353699,1399
901.46991,1375
901.586304,1420
901.702515,1389
901.818787,1434
901.93512,1438
902.051331,1467
902.167603,1426
902.283875,1385
902.400085,1435
902.516418,1422
902.632629,1397
902.74884,1414
902.865112,1407
902.981384,1440
903.097595,1400
903.213867,1437
903.330017,1420
903.446289,1406
903.5625,1405
903.67865,1438
903.794922,1456
903.911072,1401
904.027344,1417
904.143494,1430
904.259705,1454
904.375916,1396
904.492065,1366
904.608215,1403
904.724426,1404
904.840576,1427
904.956726,1401
905.072876,1409
905.189087,1372
905.305176,1459
905.421387,1402
905.537537,1423
905.653687,1389
905.769775,1404
905.885925,1438
906.002014,1412
906.118164,1376
906.234314,1437
906.350403,1438
906.466492,1427
906.582642,1406
906.69873,1443
906.814758,1417
906.930908,1436
907.046936,1479
907.163086,1456
907.279175,1411
907.395264,1425
907.511353,1427
907.62738,1377
907.743408,1409
907.859497,1438
907.975525,1423
908.091553,1427
908.207703,1415
908.32373,1431
908.439758,1454
908.555786,1397
908.671814,1437
908.787842,1420
908.90387,1443
909.019775,1404
909.135864,1438
909.251892,1420
909.367859,1458
909.483826,1446
909.599854,1424
909.715881,1424
909.831848,1451
909.947815,1426
910.063782,1422
910.179749,1421
910.295776,1400
910.411743,1415
910.527649,1403
910.643616,1428
910.759583,1425
910.875488,1406
910.991455,1419
911.107361,1456
911.223267,1464
911.339294,1438
911.4552,1424
911.571106,1413
911.687073,1408
911.802979,1424
911.918823,1438
912.034729,1385
912.150635,1406
912.266602,1419
912.382446,1459
912.498352,1446
912.614197,1406
912.730103,1411
912.846008,1416
792.44574,1773
792.56488,1817
792.68396,1795
792.80304,1781
792.92218,1715
793.041199,1665
793.160339,1695
793.279419,1745
793.398499,1675
793.517578,1649
793.636658,1688
793.755737,1685
793.874817,1633
793.993896,1637
794.112976,1667
794.232056,1627
794.351074,1623
794.470215,1642
794.589233,1564
794.708313,1620
794.827393,1590
794.946411,1629
795.065552,1632
795.18457,1589
795.303589,1596
795.422668,1627
795.541687,1618
795.660767,1654
795.779846,1623
795.898865,1605
796.017883,1553
796.136963,1603
796.255981,1563
796.375061,1546
796.49408,1582
796.613037,1561
796.732117,1545
796.851135,1576
796.970154,1528
797.089233,1563
797.208191,1546
797.327271,1567
797.446228,1515
797.565186,1548
797.684265,1572
797.803223,1513
797.922241,1611
798.04126,1548
798.160278,1568
798.279297,1525
798.398315,1534
798.517273,1518
798.636292,1543
798.75531,1569
798.874268,1543
798.993286,1571
799.112244,1524
799.231323,1537
799.350281,1517
799.469238,1500
799.588257,1560
799.707153,1517
799.826111,1546
799.945129,1541
800.064087,1539
800.183044,1490
800.302063,1501
800.421021,1548
800.539978,1499
800.658936,1537
800.777893,1505
800.896912,1535
801.015747,1524
801.134705,1556
801.253723,1498
801.37262,1483
801.491638,1528
801.610535,1516
801.729492,1523
801.84845,1505
801.967407,1500
802.086243,1532
802.205261,1481
802.324158,1499
802.443115,1521
802.562073,1530
802.680969,1460
802.799927,1504
802.918762,1505
803.037659,1504
803.156677,1538
803.275574,1505
803.39447,1497
803.513428,1507
803.632263,1513
803.751221,1499
803.870117,1458
803.989014,1525
804.107971,1492
804.226746,1504
804.345642,1455
804.4646,1473
804.583496,1542
804.702393,1511
804.821228,1478
804.940125,1467
805.059021,1488
805.177917,1488
805.296814,1533
805.415649,1512
805.534546,1490
805.653442,1475
805.772278,1483
805.891113,1478
806.01001,1542
806.128906,1510
806.247742,1521
806.366577,1483
806.485413,1520
806.604309,1458
806.723145,1496
806.84198,1542
806.960876,1457
807.079712,1537
807.198486,1489
807.317383,1502
807.436218,1479
807.554993,1507
807.673889,1497
807.792725,1480
807.91156,1485
808.030396,1489
808.14917,1489
808.268005,1450
808.386841,1489
808.505676,1502
808.624451,1499
808.743286,1485
808.862122,1487
808.980896,1498
809.099731,1513
809.218506,1456
809.337341,1511
809.456116,1492
809.57489,1489
809.693726,1461
809.8125,1491
809.931274,1480
810.050049,1500
810.168884,1496
810.287659,1529
810.406372,1507
810.525269,1468
810.643982,1504
810.762756,1483
810.881531,1463
811.000305,1517
811.11908,1475
811.237854,1495
811.356567,1446
811.475403,1463
811.594116,1470
811.71283,1456
811.831604,1512
811.950378,1487
812.069153,1479
812.187927,1509
812.30658,1490
812.425415,1481
812.544128,1506
812.662781,1475
812.781616,1508
812.900269,1442
813.019043,1510
813.137756,1468
813.256531,1489
813.375244,1431
813.493896,1440
813.612671,1544
813.731384,1488
813.850037,1504
813.96875,1509
814.087524,1476
814.206238,1474
814.324951,1449
814.443604,1468
814.562256,1459
814.68103,1467
814.799683,1490
814.918335,1459
815.037109,1453
815.155762,1434
815.274475,1489
815.393188,1502
815.511841,1476
815.630554,1448
815.749146,1456
815.867859,1438
815.986572,1454
816.105164,1454
816.223877,1450
816.342529,1431
816.461182,1479
816.579895,1475
816.698486,1445
816.817139,1476
816.935791,1426
817.054504,1461
817.173096,1410
817.291748,1463
817.4104,1426
817.529053,1459
817.647644,1475
817.766235,1442
817.884949,1424
818.00354,1453
818.122192,1423
818.240845,1408
818.359436,1415
818.478088,1439
818.59668,1429
818.715271,1438
818.833923,1445
818.952515,1400
819.071106,1413
819.189758,1431
819.30835,1354
819.426941,1414
819.545532,1386
819.664124,1375
819.782715,1419
819.901306,1412
820.019897,1411
820.138489,1399
820.25708,1393
820.375671,1354
820.494202,1422
820.612732,1409
820.731384,1412
820.849915,1386
820.968506,1382
821.087097,1372
821.205627,1396
821.324158,1408
821.442749,1376
821.561279,1379
821.679871,1378
821.798401,1373
821.916931,1418
822.035461,1364
822.154053,1384
822.272583,1360
822.391174,1367
822.509583,1378
822.628174,1430
822.746704,1354
822.865234,1368
822.983765,1351
823.102295,1356
823.220825,1352
823.339294,1371
823.457825,1359
823.576355,1387
823.694824,1367
823.813354,1371
823.931885,1339
824.050354,1367
824.168884,1395
824.287354,1366
824.405823,1355
824.524353,1363
824.642822,1356
824.761353,1329
824.879822,1368
824.998291,1368
825.116699,1350
825.235291,1295
825.353699,1365
825.472168,1346
825.590637,1328
825.709106,1370
825.827576,1346
825.946045,1323
826.064453,1317
826.182983,1385
826.301392,1341
826.4198,1370
826.53833,1345
826.656738,1330
826.775208,1354
826.893677,1340
827.012024,1374
827.130493,1341
827.248962,1357
827.36731,1344
827.485779,1340
827.604248,1345
827.722595,1392
827.841064,1345
827.959412,1372
828.077942,1333
828.196289,1318
828.314636,1365
828.433105,1301
828.551514,1316
828.669861,1353
828.78833,1301
828.906677,1298
829.025085,1331
829.143433,1292
829.261841,1381
829.38031,1320
829.498657,1329
829.617004,1316
829.735413,1350
829.85376,1306
829.972107,1364
830.090515,1341
830.208862,1308
830.327209,1321
830.445557,1335
830.563904,1309
830.682312,1311
830.800659,1311
830.919006,1316
831.037354,1310
831.155701,1326
831.274048,1306
831.392395,1341
831.51062,1316
831.629028,1312
831.747314,1331
831.865662,1354
831.984009,1314
832.102356,1334
832.220642,1334
832.338928,1335
832.457275,1313
832.575623,1323
832.693909,1302
832.812134,1297
832.930481,1335
833.048828,1324
833.167114,1289
833.2854,1298
833.403687,1328
833.521973,1342
833.640259,1332
833.758545,1294
833.876831,1316
833.995056,1356
834.113281,1318
834.231628,1342
834.349915,1302
834.468201,1342
834.586426,1306
834.704651,1298
834.822998,1316
834.941162,1353
835.059448,1318
835.177673,1295
835.295959,1341
835.414246,1315
835.53241,1319
835.650635,1291
835.768921,1306
835.887146,1336
836.005371,1310
836.123596,1319
836.241821,1340
836.360046,1307
836.478271,1337
836.596497,1309
836.714722,1328
836.832886,1302
836.95105,1314
837.069336,1364
837.1875,1337
837.305725,1321
837.423889,1318
837.542053,1335
837.660339,1311
837.778503,1342
837.896667,1300
838.014832,1335
838.132996,1239
838.25116,1330
838.369385,1321
838.487488,1333
838.605713,1319
838.723877,1359
838.84198,1325
838.960205,1363
839.078308,1340
839.196472,1287
839.314636,1329
839.4328,1291
839.550964,1344
839.669067,1296
839.787231,1317
839.905396,1339
840.023499,1308
840.141602,1305
840.259766,1326
840.377869,1308
840.495972,1346
840.614136,1302
840.732239,1319
840.850342,1292
840.968445,1326
841.086548,1326
841.204651,1361
841.322754,1349
841.440918,1311
841.55896,1323
841.677002,1319
841.795166,1318
841.913208,1334
842.031311,1303
842.149353,1300
842.267456,1312
842.385498,1325
842.503601,1335
842.621643,1306
842.739746,1312
842.857788,1345
842.97583,1278
843.093933,1328
843.211975,1316
843.330017,1278
843.44812,1321
843.566101,1283
843.684204,1289
843.802246,1302
843.920227,1304
844.038269,1329
844.156311,1307
844.274292,1310
844.392395,1315
844.510376,1322
844.628357,1360
844.74646,1277
844.864441,1317
844.982422,1272
845.100403,1288
845.218384,1309
845.336426,1308
845.454468,1350
845.572449,1344
845.69043,1323
845.808411,1273
845.926453,1318
846.044373,1303
846.162354,1315
846.280396,1296
846.398315,1303
846.516296,1305
846.634216,1329
846.752197,1301
846.870178,1316
846.988098,1313
847.106079,1309
847.22406,1351
847.34198,1272
847.4599,1308
847.577881,1340
847.695801,1312
847.813782,1292
847.931641,1298
848.049561,1343
848.167603,1324
848.285461,1299
848.403381,1319
848.521362,1306
848.639221,1342
848.75708,1311
848.875,1386
848.99292,1306
849.110901,1289
849.22876,1317
849.34668,1308
849.464539,1338
849.582458,1286
849.700317,1316
849.818176,1297
849.936096,1334
850.053955,1357
850.171875,1330
850.289673,1355
850.407593,1283
850.525452,1329
850.643311,1287
850.761169,1335
850.878967,1286
850.996887,1297
851.114746,1314
851.232544,1304
851.350403,1339
851.468262,1329
851.58606,1309
851.703979,1327
851.821777,1374
851.939636,1319
852.057434,1334
852.175232,1294
852.293091,1333
852.410889,1303
852.528687,1320
852.646545,1346
852.764343,1334
852.88208,1384
852.999939,1328
853.117676,1336
853.235535,1327
853.353271,1302
853.471069,1344
853.588928,1288
853.706604,1322
853.824402,1324
853.9422,1358
854.059998,1305
854.177734,1340
854.295532,1289
854.413269,1274
854.531006,1340
854.648804,1329
854.766541,1322
854.884277,1313
855.002014,1344
855.119751,1303
855.237549,1292
855.355225,1320
855.473022,1365
855.590698,1321
855.708435,1301
855.826172,1297
855.943848,1360
856.061646,1340
856.179321,1322
856.296997,1284
856.414795,1351
856.53241,1337
856.650085,1326
856.767822,1310
856.885559,1327
857.003174,1294
857.120911,1345
857.238586,1320
857.356201,1332
857.473938,1338
857.591614,1319
857.709351,1354
857.826965,1296
857.944641,1343
858.062317,1300
858.179993,1309
858.297668,1299
858.415283,1358
858.532959,1337
858.650574,1335
858.768188,1340
858.885803,1345
859.003479,1343
859.121094,1347
859.23877,1324
859.356384,1331
859.473999,1351
859.591675,1343
859.709229,1308
859.826843,1324
859.944458,1316
860.062012,1342
860.179626,1317
860.297302,1320
860.414856,1332
860.532471,1309
860.650024,1315
860.767639,1324
860.885193,1343
861.002808,1302
861.120361,1288
861.237976,1298
861.35553,1319
861.473022,1322
861.590698,1310
861.708191,1320
861.825745,1346
861.943298,1330
862.060852,1322
862.178406,1311
862.295959,1362
862.413513,1302
862.531006,1309
862.64856,1334
862.766113,1334
862.883667,1331
863.00116,1336
863.118713,1316
863.236206,1357
863.353699,1317
863.471252,1331
863.588745,1305
863.706177,1323
863.82373,1341
863.941162,1321
864.058716,1313
864.176208,1315
864.29364,1318
864.411194,1309
864.528687,1313
864.646118,1312
864.763611,1347
864.881042,1333
864.998535,1309
865.116028,1323
865.233459,1327
865.350891,1304
865.468384,1359
865.585754,1336
865.703308,1323
865.820679,1298
865.938171,1304
866.055542,1319
866.173035,1370
866.290466,1359
866.407837,1359
866.52533,1313
866.6427,1362
866.760071,1319
866.877563,1311
866.994934,1292
867.112305,1346
867.229736,1307
867.347107,1358
867.464539,1307
867.58197,1337
867.699341,1351
867.81665,1314
867.934082,1347
868.051453,1314
868.168823,1345
868.286194,1304
868.403564,1355
868.520935,1340
868.638306,1294
868.755676,1331
868.872986,1350
868.990295,1361
869.107727,1392
869.225037,1324
869.342346,1331
869.459717,1366
869.577026,1316
869.694336,1314
869.811707,1333
869.929016,1311
870.046326,1339
870.163635,1348
870.280945,1337
870.398254,1296
870.515564,1356
870.632812,1333
870.750183,1307
870.867432,1322
870.984741,1323
871.102051,1347
871.219299,1351
871.336609,1361
871.453918,1340
871.571106,1361
871.688416,1347
871.805664,1396
871.922852,1329
872.040222,1352
872.157471,1328
872.274719,1350
872.391968,1363
872.509155,1318
872.626465,1382
872.743652,1346
872.860962,1386
872.978149,1305
873.095337,1391
873.212646,1323
873.329834,1344
873.44696,1333
873.564209,1359
873.681396,1346
873.798645,1347
873.915894,1374
874.03302,1343
874.150208,1377
874.267456,1340
874.384583,1339
874.501831,1360
874.618958,1379
874.736145,1374
874.853333,1352
874.970459,1381
875.087646,1381
875.204834,1332
875.32196,1360
875.439148,1357
875.556274,1353
875.673401,1343
875.790527,1384
875.907715,1317
876.024841,1345
876.141968,1341
876.259094,1365
876.376282,1359
876.493347,1352
876.610474,1373
876.7276,1342
876.844727,1338
876.961853,1313
877.078918,1371
877.195984,1342
877.313171,1342
877.430237,1380
877.547302,1327
877.664368,1340
877.781433,1377
877.898499,1356
878.015625,1350
878.13269,1358
878.249695,1342
878.366821,1348
878.483887,1371
878.600952,1338
878.717957,1360
878.834961,1365
878.952087,1344
879.069092,1378
879.186157,1340
879.303162,1316
879.420227,1363
879.537231,1361
879.654236,1379
879.77124,1360
879.888306,1311
880.005249,1351
880.122314,1347
880.239319,1328
880.356323,1334
880.473328,1340
880.590271,1379
880.707275,1335
880.824341,1373
880.941284,1368
881.058228,1320
881.175232,1381
881.292236,1355
881.40918,1352
881.526123,1356
881.643066,1310
881.760071,1366
881.877014,1330
881.993958,1368
882.11084,1375
882.227783,1366
882.344727,1334
882.46167,1346
882.578613,1304
882.695618,1368
882.812439,1345
882.929382,1364
883.046326,1362
883.163208,1360
883.280151,1352
883.397034,1310
883.513916,1382
883.630798,1383
883.747742,1371
883.864563,1386
883.981506,1340
884.098389,1375
884.21521,1396
884.332153,1380
884.448975,1381
884.565796,1373
884.682678,1360
884.7995,1369
884.916443,1389
885.033264,1424
885.150085,1397
885.266968,1404
885.383789,1377
885.500671,1391
885.617493,1449
885.734314,1400
885.851196,1406
885.967896,1406
886.084717,1376
886.201599,1423
886.318359,1374
886.435181,1373
886.552002,1417
886.668762,1388
886.785645,1401
886.902344,1411
887.019165,1391
887.135925,1364
887.252747,1372
887.369446,1412
887.486267,1359
887.603027,1381
887.719788,1375
887.836548,1391
887.953247,1339
888.070068,1409
888.186829,1371
888.303528,1388
888.420288,1358
888.536987,1381
888.653687,1356
888.770447,1386
888.887146,1367
889.003967,1374
889.120667,1385
889.237305,1372
889.354065,1394
889.470703,1376
889.587463,1357
889.704163,1381
889.820862,1344
889.937561,1382
890.054199,1373
890.170837,1395
890.287598,1365
890.404236,1401
890.520874,1387
890.637634,1381
890.754211,1365
890.87085,1351
890.987549,1406
891.104187,1379
891.220886,1383
891.337463,1378
891.454102,1379
891.57074,1382
891.687378,1402
891.804077,1367
891.920654,1406
892.037231,1428
892.15387,1352
892.270447,1444
892.387085,1390
892.503723,1390
892.6203,1350
892.736877,1394
892.853516,1415
892.970032,1354
893.08667,1378
893.203186,1376
893.319763,1357
893.43634,1348
893.552917,1347
893.669556,1357
893.786011,1389
893.902588,1391
894.019165,1407
894.135681,1398
894.252197,1445
894.368835,1386
894.485291,1406
894.601868,1399
894.718384,1376
894.8349,1365
894.951355,1386
895.067932,1393
895.184448,1427
895.300964,1397
895.417419,1408
895.533936,1397
895.650452,1410
895.766907,1379
895.883423,1408
895.999878,1401
896.116333,1383
896.232849,1364
896.349304,1405
896.465759,1422
896.582214,1404
896.698669,1370
896.815125,1396
896.931641,1411
897.048035,1402
897.164551,1407
897.280884,1389
897.397339,1381
897.513794,1404
897.630249,1432
897.746582,1367
897.863098,1414
897.979431,1415
898.095886,1390
898.212341,1403
898.328674,1414
898.445129,1402
898.561462,1392
898.677795,1421
898.794312,1390
898.910645,1391
899.026978,1394
899.143433,1398
899.259766,1367
899.37616,1421
899.492493,1394
899.608765,1397
899.725159,1445
899.841553,1412
899.957947,1389
900.07428,1430
900.190552,1407
900.306946,1416
900.423157,1393
900.53949,1398
900.655884,1429
900.772156,1397
900.888489,1414
901.004822,1394
901.121033,1403
901.237366,1416
901.353699,1441
901.46991,1439
901.586304,1432
901.702515,1367
901.818787,1377
901.93512,1459
902.051331,1436
902.167603,1413
902.283875,1443
902.400085,1437
902.516418,1441
902.632629,1449
902.74884,1419
902.865112,1477
902.981384,1450
903.097595,1438
903.213867,1428
903.330017,1479
903.446289,1418
903.5625,1419
903.67865,1461
903.794922,1447
903.911072,1408
904.027344,1444
904.143494,1432
904.259705,1429
904.375916,1460
904.492065,1426
904.608215,1429
904.724426,1403
904.840576,1417
904.956726,1405
905.072876,1417
905.189087,1455
905.305176,1424
905.421387,1411
905.537537,1431
905.653687,1472
905.769775,1408
905.885925,1414
906.002014,1389
906.118164,1428
906.234314,1430
906.350403,1406
906.466492,1424
906.582642,1405
906.69873,1447
906.814758,1415
906.930908,1410
907.046936,1437
907.163086,1427
907.279175,1431
907.395264,1450
907.511353,1402
907.62738,1450
907.743408,1397
907.859497,1471
907.975525,1415
908.091553,1405
908.207703,1410
908.32373,1436
908.439758,1438
908.555786,1448
908.671814,1461
908.787842,1439
908.90387,1420
909.019775,1450
909.135864,1414
909.251892,1464
909.367859,1422
909.483826,1454
909.599854,1409
909.715881,1410
909.831848,1476
909.947815,1426
910.063782,1468
910.179749,1450
910.295776,1473
910.411743,1469
910.527649,1409
910.643616,1427
910.759583,1433
910.875488,1439
910.991455,1430
911.107361,1413
911.223267,1462
911.339294,1470
911.4552,1424
911.571106,1446
911.687073,1470
911.802979,1426
911.918823,1468
912.034729,1460
912.150635,1460
912.266602,1434
912.382446,1429
912.498352,1920
912.614197,1459
912.730103,1415
912.846008,1418
