792.44574,3591
792.56488,3538
792.68396,3418
792.80304,3457
792.92218,3324
793.041199,3240
793.160339,3203
793.279419,3078
793.398499,3028
793.517578,2955
793.636658,2862
793.755737,2886
793.874817,2810
793.993896,2811
794.112976,2788
794.232056,2700
794.351074,2655
794.470215,2650
794.589233,2614
794.708313,2638
794.827393,2546
794.946411,2502
795.065552,2473
795.18457,2477
795.303589,2446
795.422668,2394
795.541687,2371
795.660767,2342
795.779846,2322
795.898865,2342
796.017883,2297
796.136963,2322
796.255981,2220
796.375061,2275
796.49408,2227
796.613037,2235
796.732117,2148
796.851135,2249
796.970154,2105
797.089233,2137
797.208191,2131
797.327271,2139
797.446228,2061
797.565186,2085
797.684265,2043
797.803223,2137
797.922241,2082
798.04126,2100
798.160278,2070
798.279297,2056
798.398315,2025
798.517273,2032
798.636292,2022
798.75531,2049
798.874268,1978
798.993286,2061
799.112244,1996
799.231323,1982
799.350281,2054
799.469238,2032
799.588257,1972
799.707153,1999
799.826111,2016
799.945129,1959
800.064087,1947
800.183044,1947
800.302063,1985
800.421021,1884
800.539978,1963
800.658936,1916
800.777893,1973
800.896912,1900
801.015747,1932
801.134705,1901
801.253723,1865
801.37262,1869
801.491638,1916
801.610535,1880
801.729492,1925
801.84845,1912
801.967407,1859
802.086243,1927
802.205261,1873
802.324158,1876
802.443115,1843
802.562073,1846
802.680969,1849
802.799927,1843
802.918762,1850
803.037659,1827
803.156677,1876
803.275574,1860
803.39447,1810
803.513428,1843
803.632263,1823
803.751221,1842
803.870117,1832
803.989014,1818
804.107971,1783
804.226746,1804
804.345642,1792
804.4646,1783
804.583496,1819
804.702393,1818
804.821228,1804
804.940125,1767
805.059021,1797
805.177917,1794
805.296814,1788
805.415649,1765
805.534546,1834
805.653442,1778
805.772278,1782
805.891113,1857
806.01001,1834
806.128906,1774
806.247742,1771
806.366577,1750
806.485413,1810
806.604309,1759
806.723145,1776
806.84198,1801
806.960876,1748
807.079712,1772
807.198486,1820
807.317383,1742
807.436218,1739
807.554993,1758
807.673889,1729
807.792725,1751
807.91156,1733
808.030396,1754
808.14917,1754
808.268005,1780
808.386841,1724
808.505676,1772
808.624451,1767
808.743286,1750
808.862122,1739
808.980896,1788
809.099731,1752
809.218506,1770
809.337341,1757
809.456116,1752
809.57489,1774
809.693726,1745
809.8125,1733
809.931274,1766
810.050049,1766
810.168884,1752
810.287659,1776
810.406372,1736
810.525269,1775
810.643982,1720
810.762756,1764
810.881531,1747
811.000305,1768
811.11908,1768
811.237854,1754
811.356567,1763
811.475403,1763
811.594116,1790
811.71283,1798
811.831604,1768
811.950378,1750
812.069153,1791
812.187927,1826
812.30658,1760
812.425415,1773
812.544128,1740
812.662781,1779
812.781616,1760
812.900269,1740
813.019043,1722
813.137756,1788
813.256531,1784
813.375244,1723
813.493896,1744
813.612671,1757
813.731384,1751
813.850037,1767
813.96875,1733
814.087524,1740
814.206238,1673
814.324951,1687
814.443604,1718
814.562256,1704
814.68103,1748
814.799683,1727
814.918335,1687
815.037109,1708
815.155762,1731
815.274475,1696
815.393188,1645
815.511841,1701
815.630554,1716
815.749146,1693
815.867859,1699
815.986572,1730
816.105164,1699
816.223877,1713
816.342529,1689
816.461182,1715
816.579895,1675
816.698486,1682
816.817139,1724
816.935791,1739
817.054504,1716
817.173096,1690
817.291748,1723
817.4104,1705
817.529053,1699
817.647644,1718
817.766235,1645
817.884949,1661
818.00354,1645
818.122192,1638
818.240845,1590
818.359436,1608
818.478088,1596
818.59668,1526
818.715271,1631
818.833923,1599
818.952515,1609
819.071106,1513
819.189758,1530
819.30835,1563
819.426941,1570
819.545532,1565
819.664124,1473
819.782715,1515
819.901306,1479
820.019897,1497
820.138489,1556
820.25708,1511
820.375671,1529
820.494202,1521
820.612732,1549
820.731384,1529
820.849915,1519
820.968506,1525
821.087097,1532
821.205627,1525
821.324158,1525
821.442749,1469
821.561279,1489
821.679871,1510
821.798401,1505
821.916931,1465
822.035461,1468
822.154053,1492
822.272583,1467
822.391174,1490
822.509583,1491
822.628174,1486
822.746704,1467
822.865234,1514
822.983765,1432
823.102295,1425
823.220825,1478
823.339294,1434
823.457825,1466
823.576355,1441
823.694824,1527
823.813354,1476
823.931885,1469
824.050354,1461
824.168884,1470
824.287354,1451
824.405823,1498
824.524353,1494
824.642822,1461
824.761353,1517
824.879822,1513
824.998291,1484
825.116699,1477
825.235291,1450
825.353699,1437
825.472168,1451
825.590637,1464
825.709106,1443
825.827576,1423
825.946045,1473
826.064453,1446
826.182983,1451
826.301392,1443
826.4198,1436
826.53833,1451
826.656738,1451
826.775208,1416
826.893677,1413
827.012024,1436
827.130493,1401
827.248962,1458
827.36731,1425
827.485779,1449
827.604248,1447
827.722595,1444
827.841064,1422
827.959412,1422
828.077942,1379
828.196289,1390
828.314636,1402
828.433105,1436
828.551514,1380
828.669861,1363
828.78833,1404
828.906677,1379
829.025085,1409
829.143433,1430
829.261841,1418
829.38031,1378
829.498657,1383
829.617004,1417
829.735413,1442
829.85376,1372
829.972107,1375
830.090515,1420
830.208862,1379
830.327209,1400
830.445557,1381
830.563904,1372
830.682312,1411
830.800659,1406
830.919006,1416
831.037354,1416
831.155701,1462
831.274048,1476
831.392395,1422
831.51062,1466
831.629028,1410
831.747314,1422
831.865662,1421
831.984009,1461
832.102356,1445
832.220642,1438
832.338928,1450
832.457275,1445
832.575623,1415
832.693909,1419
832.812134,1450
832.930481,1433
833.048828,1458
833.167114,1413
833.2854,1415
833.403687,1450
833.521973,1413
833.640259,1408
833.758545,1415
833.876831,1411
833.995056,1454
834.113281,1437
834.231628,1469
834.349915,1428
834.468201,1467
834.586426,1400
834.704651,1429
834.822998,1456
834.941162,1462
835.059448,1445
835.177673,1434
835.295959,1441
835.414246,1442
835.53241,1464
835.650635,1449
835.768921,1410
835.887146,1383
836.005371,1420
836.123596,1399
836.241821,1422
836.360046,1461
836.478271,1406
836.596497,1388
836.714722,1406
836.832886,1428
836.95105,1415
837.069336,1413
837.1875,1430
837.305725,1411
837.423889,1430
837.542053,1430
837.660339,1391
837.778503,1408
837.896667,1400
838.014832,1446
838.132996,1398
838.25116,1414
838.369385,1418
838.487488,1454
838.605713,1411
838.723877,1405
838.84198,1437
838.960205,1443
839.078308,1424
839.196472,1471
839.314636,1435
839.4328,1469
839.550964,1457
839.669067,1414
839.787231,1462
839.905396,1493
840.023499,1521
840.141602,1491
840.259766,1517
840.377869,1517
840.495972,1537
840.614136,1515
840.732239,1472
840.850342,1520
840.968445,1491
841.086548,1559
841.204651,1464
841.322754,1516
841.440918,1497
841.55896,1521
841.677002,1505
841.795166,1533
841.913208,1484
842.031311,1544
842.149353,1539
842.267456,1490
842.385498,1535
842.503601,1510
842.621643,1504
842.739746,1508
842.857788,1515
842.97583,1557
843.093933,1545
843.211975,1545
843.330017,1552
843.44812,1551
843.566101,1557
843.684204,1561
843.802246,1523
843.920227,1474
844.038269,1556
844.156311,1549
844.274292,1512
844.392395,1488
844.510376,1535
844.628357,1457
844.74646,1536
844.864441,1500
844.982422,1529
845.100403,1508
845.218384,1539
845.336426,1523
845.454468,1514
845.572449,1529
845.69043,1480
845.808411,1490
845.926453,1468
846.044373,1503
846.162354,1487
846.280396,1492
846.398315,1500
846.516296,1506
846.634216,1500
846.752197,1496
846.870178,1520
846.988098,1474
847.106079,1508
847.22406,1486
847.34198,1535
847.4599,1526
847.577881,1509
847.695801,1507
847.813782,1512
847.931641,1527
848.049561,1499
848.167603,1528
848.285461,1532
848.403381,1510
848.521362,1472
848.639221,1531
848.75708,1544
848.875,1552
848.99292,1569
849.110901,1595
849.22876,1529
849.34668,1539
849.464539,1614
849.582458,1538
849.700317,1580
849.818176,1553
849.936096,1546
850.053955,1544
850.171875,1561
850.289673,1514
850.407593,1542
850.525452,1523
850.643311,1597
850.761169,1566
850.878967,1546
850.996887,1552
851.114746,1512
851.232544,1539
851.350403,1488
851.468262,1555
851.58606,1516
851.703979,1562
851.821777,1540
851.939636,1514
852.057434,1471
852.175232,1530
852.293091,1537
852.410889,1588
852.528687,1583
852.646545,1669
852.764343,1599
852.88208,1578
852.999939,1589
853.117676,1553
853.235535,1585
853.353271,1542
853.471069,1541
853.588928,1519
853.706604,1555
853.824402,1464
853.9422,1500
854.059998,1507
854.177734,1505
854.295532,1491
854.413269,1536
854.531006,1514
854.648804,1499
854.766541,1467
854.884277,1505
855.002014,1526
855.119751,1507
855.237549,1520
855.355225,1530
855.473022,1525
855.590698,1536
855.708435,1518
855.826172,1497
855.943848,1511
856.061646,1484
856.179321,1507
856.296997,1497
856.414795,1540
856.53241,1534
856.650085,1579
856.767822,1502
856.885559,1593
857.003174,1607
857.120911,1565
857.238586,1546
857.356201,1540
857.473938,1564
857.591614,1555
857.709351,1593
857.826965,1577
857.944641,1561
858.062317,1555
858.179993,1546
858.297668,1539
858.415283,1572
858.532959,1569
858.650574,1559
858.768188,1551
858.885803,1581
859.003479,1525
859.121094,1491
859.23877,1496
859.356384,1540
859.473999,1547
859.591675,1511
859.709229,1552
859.826843,1464
859.944458,1480
860.062012,1499
860.179626,1489
860.297302,1466
860.414856,1499
860.532471,1485
860.650024,1482
860.767639,1486
860.885193,1427
861.002808,1477
861.120361,1486
861.237976,1524
861.35553,1548
861.473022,1513
861.590698,1508
861.708191,1485
861.825745,1504
861.943298,1463
862.060852,1469
862.178406,1469
862.295959,1497
862.413513,1394
862.531006,1433
862.64856,1490
862.766113,1416
862.883667,1467
863.00116,1452
863.118713,1470
863.236206,1469
863.353699,1405
863.471252,1479
863.588745,1505
863.706177,1434
863.82373,1479
863.941162,1480
864.058716,1515
864.176208,1454
864.29364,1480
864.411194,1452
864.528687,1470
864.646118,1471
864.763611,1454
864.881042,1441
864.998535,1431
865.116028,1460
865.233459,1466
865.350891,1424
865.468384,1456
865.585754,1407
865.703308,1455
865.820679,1437
865.938171,1446
866.055542,1412
866.173035,1490
866.290466,1417
866.407837,1451
866.52533,1453
866.6427,1488
866.760071,1458
866.877563,1442
866.994934,1452
867.112305,1425
867.229736,1408
867.347107,1496
867.464539,1475
867.58197,1483
867.699341,1481
867.81665,1488
867.934082,1460
868.051453,1433
868.168823,1481
868.286194,1422
868.403564,1485
868.520935,1486
868.638306,1458
868.755676,1464
868.872986,1521
868.990295,1455
869.107727,1488
869.225037,1494
869.342346,1497
869.459717,1494
869.577026,1516
869.694336,1531
869.811707,1500
869.929016,1499
870.046326,1537
870.163635,1525
870.280945,1551
870.398254,1539
870.515564,1561
870.632812,1560
870.750183,1560
870.867432,1571
870.984741,1576
871.102051,1610
871.219299,1606
871.336609,1632
871.453918,1592
871.571106,1605
871.688416,1554
871.805664,1614
871.922852,1619
872.040222,1607
872.157471,1631
872.274719,1595
872.391968,1608
872.509155,1617
872.626465,1617
872.743652,1579
872.860962,1608
872.978149,1593
873.095337,1612
873.212646,1586
873.329834,1586
873.44696,1618
873.564209,1561
873.681396,1574
873.798645,1576
873.915894,1565
874.03302,1552
874.150208,1610
874.267456,1591
874.384583,1604
874.501831,1626
874.618958,1672
874.736145,1636
874.853333,1640
874.970459,1632
875.087646,1617
875.204834,1568
875.32196,1614
875.439148,1554
875.556274,1587
875.673401,1582
875.790527,1613
875.907715,1547
876.024841,1541
876.141968,1579
876.259094,1569
876.376282,1504
876.493347,1498
876.610474,1520
876.7276,1514
876.844727,1538
876.961853,1535
877.078918,1506
877.195984,1543
877.313171,1535
877.430237,1556
877.547302,1548
877.664368,1502
877.781433,1517
877.898499,1496
878.015625,1548
878.13269,1529
878.249695,1543
878.366821,1518
878.483887,1491
878.600952,1507
878.717957,1459
878.834961,1521
878.952087,1485
879.069092,1498
879.186157,1490
879.303162,1466
879.420227,1492
879.537231,1453
879.654236,1451
879.77124,1479
879.888306,1456
880.005249,1493
880.122314,1473
880.239319,1466
880.356323,1426
880.473328,1458
880.590271,1444
880.707275,1455
880.824341,1465
880.941284,1423
881.058228,1475
881.175232,1460
881.292236,1496
881.40918,1429
881.526123,1465
881.643066,1431
881.760071,1455
881.877014,1407
881.993958,1446
882.11084,1402
882.227783,1436
882.344727,1495
882.46167,1432
882.578613,1445
882.695618,1468
882.812439,1461
882.929382,1445
883.046326,1476
883.163208,1457
883.280151,1487
883.397034,1466
883.513916,1459
883.630798,1450
883.747742,1489
883.864563,1480
883.981506,1493
884.098389,1480
884.21521,1543
884.332153,1549
884.448975,1543
884.565796,1562
884.682678,1657
884.7995,1648
884.916443,1685
885.033264,1724
885.150085,1748
885.266968,1858
885.383789,1799
885.500671,1904
885.617493,1904
885.734314,1867
885.851196,1833
885.967896,1838
886.084717,1848
886.201599,1830
886.318359,1819
886.435181,1730
886.552002,1760
886.668762,1740
886.785645,1741
886.902344,1707
887.019165,1663
887.135925,1717
887.252747,1652
887.369446,1625
887.486267,1693
887.603027,1596
887.719788,1600
887.836548,1566
887.953247,1559
888.070068,1523
888.186829,1554
888.303528,1508
888.420288,1529
888.536987,1472
888.653687,1423
888.770447,1469
888.887146,1437
889.003967,1453
889.120667,1447
889.237305,1458
889.354065,1404
889.470703,1462
889.587463,1400
889.704163,1400
889.820862,1452
889.937561,1420
890.054199,1417
890.170837,1414
890.287598,1394
890.404236,1427
890.520874,1420
890.637634,1450
890.754211,1421
890.87085,1433
890.987549,1406
891.104187,1458
891.220886,1469
891.337463,1453
891.454102,1436
891.57074,1462
891.687378,1430
891.804077,1481
891.920654,1455
892.037231,1428
892.15387,1419
892.270447,1453
892.387085,1456
892.503723,1470
892.6203,1434
892.736877,1434
892.853516,1457
892.970032,1463
893.08667,1459
893.203186,1438
893.319763,1431
893.43634,1437
893.552917,1395
893.669556,1482
893.786011,1415
893.902588,1427
894.019165,1471
894.135681,1440
894.252197,1433
894.368835,1446
894.485291,1436
894.601868,1460
894.718384,1482
894.8349,1428
894.951355,1439
895.067932,1432
895.184448,1395
895.300964,1438
895.417419,1405
895.533936,1440
895.650452,1456
895.766907,1405
895.883423,1433
895.999878,1414
896.116333,1417
896.232849,1463
896.349304,1462
896.465759,1433
896.582214,1442
896.698669,1420
896.815125,1439
896.931641,1430
897.048035,1432
897.164551,1432
897.280884,1445
897.397339,1438
897.513794,1429
897.630249,1431
897.746582,1422
897.863098,1468
897.979431,1438
898.095886,1441
898.212341,1482
898.328674,1458
898.445129,1438
898.561462,1454
898.677795,1459
898.794312,1434
898.910645,1484
899.026978,1507
899.143433,1438
899.259766,1464
899.37616,1458
899.492493,1463
899.608765,1448
899.725159,1448
899.841553,1471
899.957947,1431
900.07428,1494
900.190552,1426
900.306946,1478
900.423157,1447
900.53949,1467
900.655884,1482
900.772156,1471
900.888489,1498
901.004822,1503
901.121033,1475
901.237366,1528
901.353699,1476
901.46991,1464
901.586304,1498
901.702515,1489
901.818787,1525
901.93512,1545
902.051331,1542
902.167603,1576
902.283875,1627
902.400085,1631
902.516418,1629
902.632629,1679
902.74884,1623
902.865112,1707
902.981384,1669
903.097595,1672
903.213867,1648
903.330017,1638
903.446289,1610
903.5625,1645
903.67865,1631
903.794922,1620
903.911072,1579
904.027344,1601
904.143494,1534
904.259705,1533
904.375916,1541
904.492065,1533
904.608215,1504
904.724426,1508
904.840576,1498
904.956726,1525
905.072876,1479
905.189087,1499
905.305176,1465
905.421387,1493
905.537537,1499
905.653687,1447
905.769775,1461
905.885925,1469
906.002014,1481
906.118164,1467
906.234314,1428
906.350403,1433
906.466492,1469
906.582642,1479
906.69873,1404
906.814758,1455
906.930908,1434
907.046936,1431
907.163086,1465
907.279175,1486
907.395264,1437
907.511353,1406
907.62738,1481
907.743408,1452
907.859497,1412
907.975525,1446
908.091553,1447
908.207703,1439
908.32373,1455
908.439758,1433
908.555786,1471
908.671814,1450
908.787842,1454
908.90387,1465
909.019775,1455
909.135864,1427
909.251892,1430
909.367859,1484
909.483826,1465
909.599854,1416
909.715881,1462
909.831848,1421
909.947815,1457
910.063782,1441
910.179749,1469
910.295776,1480
910.411743,1453
910.527649,1463
910.643616,1495
910.759583,1374
910.875488,1485
910.991455,1450
911.107361,1465
911.223267,1473
911.339294,1435
911.4552,1461
911.571106,1439
911.687073,1414
911.802979,1470
911.918823,1462
912.034729,1458
912.150635,1466
912.266602,1385
912.382446,1445
912.498352,1429
912.614197,1442
912.730103,1456
912.846008,1452
792.44574,3697
792.56488,3563
792.68396,3465
792.80304,3379
792.92218,3291
793.041199,3190
793.160339,3208
793.279419,3121
793.398499,3015
793.517578,2970
793.636658,2950
793.755737,2942
793.874817,2858
793.993896,2838
794.112976,2793
794.232056,2747
794.351074,2693
794.470215,2694
794.589233,2641
794.708313,2582
794.827393,2561
794.946411,2526
795.065552,2554
795.18457,2495
795.303589,2508
795.422668,2461
795.541687,2427
795.660767,2397
795.779846,2383
795.898865,2341
796.017883,2313
796.136963,2283
796.255981,2297
796.375061,2280
796.49408,2310
796.613037,2247
796.732117,2161
796.851135,2212
796.970154,2166
797.089233,2179
797.208191,2159
797.327271,2167
797.446228,2136
797.565186,2112
797.684265,2143
797.803223,2122
797.922241,2111
798.04126,2109
798.160278,2091
798.279297,2106
798.398315,2081
798.517273,2096
798.636292,2109
798.75531,2065
798.874268,2005
798.993286,2053
799.112244,2005
799.231323,2028
799.350281,2007
799.469238,2055
799.588257,2052
799.707153,1968
799.826111,1985
799.945129,2012
800.064087,2011
800.183044,1977
800.302063,1979
800.421021,1946
800.539978,1957
800.658936,1950
800.777893,1931
800.896912,1945
801.015747,1919
801.134705,1912
801.253723,1928
801.37262,1898
801.491638,1939
801.610535,1891
801.729492,1932
801.84845,1920
801.967407,1876
802.086243,1924
802.205261,1874
802.324158,1877
802.443115,1882
802.562073,1890
802.680969,1854
802.799927,1847
802.918762,1882
803.037659,1821
803.156677,1838
803.275574,1840
803.39447,1876
803.513428,1861
803.632263,1834
803.751221,1858
803.870117,1853
803.989014,1839
804.107971,1811
804.226746,1861
804.345642,1818
804.4646,1837
804.583496,1829
804.702393,1822
804.821228,1818
804.940125,1827
805.059021,1790
805.177917,1808
805.296814,1804
805.415649,1854
805.534546,1828
805.653442,1818
805.772278,1774
805.891113,1817
806.01001,1842
806.128906,1845
806.247742,1822
806.366577,1784
806.485413,1790
806.604309,1806
806.723145,1815
806.84198,1840
806.960876,1748
807.079712,1809
807.198486,1808
807.317383,1772
807.436218,1749
807.554993,1835
807.673889,1819
807.792725,1841
807.91156,1783
808.030396,1798
808.14917,1745
808.268005,1772
808.386841,1790
808.505676,1755
808.624451,1765
808.743286,1804
808.862122,1752
808.980896,1775
809.099731,1783
809.218506,1752
809.337341,1789
809.456116,1805
809.57489,1790
809.693726,1768
809.8125,1820
809.931274,1811
810.050049,1759
810.168884,1780
810.287659,1748
810.406372,1803
810.525269,1751
810.643982,1771
810.762756,1830
810.881531,1811
811.000305,1828
811.11908,1801
811.237854,1803
811.356567,1786
811.475403,1792
811.594116,1783
811.71283,1792
811.831604,1843
811.950378,1819
812.069153,1782
812.187927,1830
812.30658,1798
812.425415,1801
812.544128,1798
812.662781,1826
812.781616,1817
812.900269,1808
813.019043,1775
813.137756,1771
813.256531,1780
813.375244,1814
813.493896,1791
813.612671,1736
813.731384,1792
813.850037,1761
813.96875,1796
814.087524,1704
814.206238,1723
814.324951,1734
814.443604,1703
814.562256,1752
814.68103,1740
814.799683,1668
814.918335,1755
815.037109,1768
815.155762,1759
815.274475,1722
815.393188,1680
815.511841,1730
815.630554,1752
815.749146,1754
815.867859,1716
815.986572,1716
816.105164,1669
816.223877,1697
816.342529,1663
816.461182,1685
816.579895,1698
816.698486,1751
816.817139,1727
816.935791,1740
817.054504,1716
817.173096,1751
817.291748,1720
817.4104,1739
817.529053,1710
817.647644,1702
817.766235,1676
817.884949,1702
818.00354,1647
818.122192,1652
818.240845,1650
818.359436,1646
818.478088,1660
818.59668,1666
818.715271,1631
818.833923,1605
818.952515,1582
819.071106,1587
819.189758,1585
819.30835,1581
819.426941,1571
819.545532,1561
819.664124,1530
819.782715,1539
819.901306,1540
820.019897,1514
820.138489,1550
820.25708,1585
820.375671,1577
820.494202,1544
820.612732,1547
820.731384,1528
820.849915,1571
820.968506,1542
821.087097,1549
821.205627,1509
821.324158,1565
821.442749,1542
821.561279,1522
821.679871,1477
821.798401,1481
821.916931,1474
822.035461,1514
822.154053,1510
822.272583,1550
822.391174,1533
822.509583,1527
822.628174,1525
822.746704,1502
822.865234,1438
822.983765,1495
823.102295,1496
823.220825,1461
823.339294,1517
823.457825,1458
823.576355,1460
823.694824,1503
823.813354,1527
823.931885,1475
824.050354,1496
824.168884,1568
824.287354,1483
824.405823,1440
824.524353,1526
824.642822,1472
824.761353,1498
824.879822,1465
824.998291,1516
825.116699,1524
825.235291,1530
825.353699,1488
825.472168,1488
825.590637,1468
825.709106,1495
825.827576,1449
825.946045,1450
826.064453,1519
826.182983,1480
826.301392,1452
826.4198,1474
826.53833,1442
826.656738,1454
826.775208,1467
826.893677,1451
827.012024,1444
827.130493,1471
827.248962,1465
827.36731,1461
827.485779,1445
827.604248,1428
827.722595,1497
827.841064,1463
827.959412,1421
828.077942,1408
828.196289,1427
828.314636,1417
828.433105,1432
828.551514,1432
828.669861,1422
828.78833,1449
828.906677,1429
829.025085,1425
829.143433,1433
829.261841,1397
829.38031,1479
829.498657,1430
829.617004,1400
829.735413,1429
829.85376,1450
829.972107,1413
830.090515,1431
830.208862,1408
830.327209,1415
830.445557,1402
830.563904,1458
830.682312,1392
830.800659,1425
830.919006,1474
831.037354,1463
831.155701,1463
831.274048,1515
831.392395,1464
831.51062,1477
831.629028,1422
831.747314,1453
831.865662,1447
831.984009,1426
832.102356,1437
832.220642,1448
832.338928,1495
832.457275,1468
832.575623,1461
832.693909,1434
832.812134,1488
832.930481,1453
833.048828,1419
833.167114,1452
833.2854,1429
833.403687,1431
833.521973,1481
833.640259,1436
833.758545,1450
833.876831,1468
833.995056,1419
834.113281,1450
834.231628,1475
834.349915,1502
834.468201,1459
834.586426,1435
834.704651,1457
834.822998,1446
834.941162,1465
835.059448,1479
835.177673,1452
835.295959,1440
835.414246,1432
835.53241,1433
835.650635,1446
835.768921,1465
835.887146,1458
836.005371,1474
836.123596,1424
836.241821,1411
836.360046,1448
836.478271,1419
836.596497,1463
836.714722,1434
836.832886,1426
836.95105,1448
837.069336,1428
837.1875,1424
837.305725,1471
837.423889,1471
837.542053,1487
837.660339,1441
837.778503,1440
837.896667,1410
838.014832,1478
838.132996,1473
838.25116,1441
838.369385,1428
838.487488,1475
838.605713,1486
838.723877,1449
838.84198,1472
838.960205,1445
839.078308,1453
839.196472,1494
839.314636,1494
839.4328,1504
839.550964,1462
839.669067,1515
839.787231,1470
839.905396,1474
840.023499,1513
840.141602,1494
840.259766,1520
840.377869,1520
840.495972,1497
840.614136,1535
840.732239,1540
840.850342,1504
840.968445,1550
841.086548,1525
841.204651,1543
841.322754,1523
841.440918,1551
841.55896,1557
841.677002,1577
841.795166,1551
841.913208,1618
842.031311,1521
842.149353,1543
842.267456,1529
842.385498,1515
842.503601,1542
842.621643,1559
842.739746,1566
842.857788,1598
842.97583,1538
843.093933,1557
843.211975,1578
843.330017,1586
843.44812,1582
843.566101,1578
843.684204,1534
843.802246,1511
843.920227,1567
844.038269,1585
844.156311,1551
844.274292,1567
844.392395,1577
844.510376,1510
844.628357,1532
844.74646,1567
844.864441,1474
844.982422,1500
845.100403,1505
845.218384,1545
845.336426,1509
845.454468,1484
845.572449,1537
845.69043,1558
845.808411,1514
845.926453,1506
846.044373,1547
846.162354,1511
846.280396,1536
846.398315,1481
846.516296,1519
846.634216,1514
846.752197,1505
846.870178,1514
846.988098,1532
847.106079,1519
847.22406,1548
847.34198,1545
847.4599,1537
847.577881,1554
847.695801,1525
847.813782,1549
847.931641,1550
848.049561,1537
848.167603,1478
848.285461,1569
848.403381,1511
848.521362,1559
848.639221,1507
848.75708,1529
848.875,1502
848.99292,1547
849.110901,1540
849.22876,1552
849.34668,1589
849.464539,1580
849.582458,1575
849.700317,1595
849.818176,1572
849.936096,1594
850.053955,1582
850.171875,1535
850.289673,1563
850.407593,1577
850.525452,1570
850.643311,1546
850.761169,1545
850.878967,1560
850.996887,1528
851.114746,1568
851.232544,1534
851.350403,1544
851.468262,1563
851.58606,1585
851.703979,1503
851.821777,1507
851.939636,1545
852.057434,1545
852.175232,1548
852.293091,1584
852.410889,1589
852.528687,1582
852.646545,1613
852.764343,1603
852.88208,1578
852.999939,1623
853.117676,1598
853.235535,1555
853.353271,1579
853.471069,1572
853.588928,1532
853.706604,1566
853.824402,1529
853.9422,1511
854.059998,1515
854.177734,1553
854.295532,1503
854.413269,1585
854.531006,1552
854.648804,1523
854.766541,1528
854.884277,1554
855.002014,1542
855.119751,1527
855.237549,1525
855.355225,1543
855.473022,1527
855.590698,1606
855.708435,1514
855.826172,1526
855.943848,1510
856.061646,1529
856.179321,1510
856.296997,1546
856.414795,1576
856.53241,1534
856.650085,1551
856.767822,1593
856.885559,1578
857.003174,1599
857.120911,1574
857.238586,1599
857.356201,1551
857.473938,1564
857.591614,1581
857.709351,1574
857.826965,1576
857.944641,1584
858.062317,1602
858.179993,1566
858.297668,1535
858.415283,1607
858.532959,1582
858.650574,1604
858.768188,1599
858.885803,1622
859.003479,1592
859.121094,1558
859.23877,1533
859.356384,1571
859.473999,1561
859.591675,1533
859.709229,1545
859.826843,1508
859.944458,1503
860.062012,1497
860.179626,1508
860.297302,1553
860.414856,1526
860.532471,1490
860.650024,1503
860.767639,1530
860.885193,1498
861.002808,1487
861.120361,1481
861.237976,1480
861.35553,1499
861.473022,1511
861.590698,1532
861.708191,1526
861.825745,1539
861.943298,1502
862.060852,1497
862.178406,1481
862.295959,1467
862.413513,1493
862.531006,1480
862.64856,1464
862.766113,1519
862.883667,1468
863.00116,1430
863.118713,1479
863.236206,1473
863.353699,1492
863.471252,1504
863.588745,1496
863.706177,1504
863.82373,1477
863.941162,1496
864.058716,1466
864.176208,1495
864.29364,1511
864.411194,1447
864.528687,1500
864.646118,1481
864.763611,1471
864.881042,1488
864.998535,1462
865.116028,1502
865.233459,1490
865.350891,1492
865.468384,1484
865.585754,1430
865.703308,1488
865.820679,1478
865.938171,1472
866.055542,1494
866.173035,1467
866.290466,1452
866.407837,1450
866.52533,1484
866.6427,1484
866.760071,1476
866.877563,1501
866.994934,1492
867.112305,1457
867.229736,1462
867.347107,1490
867.464539,1461
867.58197,1503
867.699341,1507
867.81665,1551
867.934082,1538
868.051453,1527
868.168823,1504
868.286194,1480
868.403564,1497
868.520935,1490
868.638306,1495
868.755676,1482
868.872986,1541
868.990295,1517
869.107727,1513
869.225037,1518
869.342346,1540
869.459717,1561
869.577026,1521
869.694336,1522
869.811707,1548
869.929016,1533
870.046326,1561
870.163635,1577
870.280945,1571
870.398254,1585
870.515564,1581
870.632812,1572
870.750183,1583
870.867432,1584
870.984741,1614
871.102051,1596
871.219299,1617
871.336609,1637
871.453918,1624
871.571106,1670
871.688416,1660
871.805664,1598
871.922852,1634
872.040222,1634
872.157471,1680
872.274719,1662
872.391968,1649
872.509155,1622
872.626465,1621
872.743652,1594
872.860962,1620
872.978149,1639
873.095337,1560
873.212646,1631
873.329834,1664
873.44696,1589
873.564209,1562
873.681396,1629
873.798645,1601
873.915894,1592
874.03302,1570
874.150208,1603
874.267456,1667
874.384583,1688
874.501831,1640
874.618958,1627
874.736145,1690
874.853333,1677
874.970459,1666
875.087646,1658
875.204834,1628
875.32196,1661
875.439148,1613
875.556274,1597
875.673401,1611
875.790527,1606
875.907715,1588
876.024841,1578
876.141968,1601
876.259094,1539
876.376282,1577
876.493347,1579
876.610474,1596
876.7276,1558
876.844727,1533
876.961853,1598
877.078918,1574
877.195984,1514
877.313171,1562
877.430237,1540
877.547302,1587
877.664368,1559
877.781433,1527
877.898499,1536
878.015625,1518
878.13269,1546
878.249695,1540
878.366821,1550
878.483887,1484
878.600952,1488
878.717957,1504
878.834961,1523
878.952087,1530
879.069092,1524
879.186157,1507
879.303162,1503
879.420227,1487
879.537231,1515
879.654236,1493
879.77124,1506
879.888306,1458
880.005249,1509
880.122314,1527
880.239319,1476
880.356323,1473
880.473328,1490
880.590271,1483
880.707275,1414
880.824341,1452
880.941284,1510
881.058228,1514
881.175232,1489
881.292236,1471
881.40918,1453
881.526123,1450
881.643066,1431
881.760071,1463
881.877014,1487
881.993958,1510
882.11084,1478
882.227783,1490
882.344727,1513
882.46167,1465
882.578613,1451
882.695618,1516
882.812439,1504
882.929382,1451
883.046326,1471
883.163208,1490
883.280151,1475
883.397034,1451
883.513916,1480
883.630798,1504
883.747742,1533
883.864563,1525
883.981506,1516
884.098389,1530
884.21521,1523
884.332153,1578
884.448975,1579
884.565796,1584
884.682678,1605
884.7995,1707
884.916443,1707
885.033264,1799
885.150085,1765
885.266968,1845
885.383789,1844
885.500671,1842
885.617493,1892
885.734314,1894
885.851196,1891
885.967896,1788
886.084717,1786
886.201599,1844
886.318359,1824
886.435181,1811
886.552002,1809
886.668762,1819
886.785645,1765
886.902344,1746
887.019165,1710
887.135925,1740
887.252747,1677
887.369446,1671
887.486267,1710
887.603027,1615
887.719788,1617
887.836548,1581
887.953247,1558
888.070068,1564
888.186829,1551
888.303528,1529
888.420288,1581
888.536987,1492
888.653687,1504
888.770447,1489
888.887146,1469
889.003967,1482
889.120667,1493
889.237305,1501
889.354065,1483
889.470703,1460
889.587463,1406
889.704163,1501
889.820862,1446
889.937561,1456
890.054199,1480
890.170837,1437
890.287598,1457
890.404236,1446
890.520874,1461
890.637634,1482
890.754211,1467
890.87085,1447
890.987549,1437
891.104187,1472
891.220886,1454
891.337463,1460
891.454102,1508
891.57074,1495
891.687378,1489
891.804077,1477
891.920654,1487
892.037231,1490
892.15387,1488
892.270447,1441
892.387085,1475
892.503723,1502
892.6203,1445
892.736877,1513
892.853516,1469
892.970032,1482
893.08667,1475
893.203186,1458
893.319763,1486
893.43634,1483
893.552917,1451
893.669556,1500
893.786011,1441
893.902588,1483
894.019165,1462
894.135681,1491
894.252197,1470
894.368835,1456
894.485291,1482
894.601868,1455
894.718384,1471
894.8349,1491
894.951355,1505
895.067932,1453
895.184448,1461
895.300964,1449
895.417419,1463
895.533936,1441
895.650452,1424
895.766907,1432
895.883423,1434
895.999878,1429
896.116333,1468
896.232849,1423
896.349304,1454
896.465759,1447
896.582214,1465
896.698669,1431
896.815125,1491
896.931641,1456
897.048035,1446
897.164551,1477
897.280884,1462
897.397339,1433
897.513794,1469
897.630249,1485
897.746582,1466
897.863098,1434
897.979431,1448
898.095886,1484
898.212341,1531
898.328674,1477
898.445129,1512
898.561462,1499
898.677795,1506
898.794312,1530
898.910645,1467
899.026978,1476
899.143433,1479
899.259766,1480
899.37616,1460
899.492493,1495
899.608765,1473
899.725159,1474
899.841553,1511
899.957947,1488
900.07428,1526
900.190552,1479
900.306946,1494
900.423157,1479
900.53949,1465
900.655884,1521
900.772156,1484
900.888489,1500
901.004822,1473
901.121033,1514
901.237366,1492
901.353699,1532
901.46991,1524
901.586304,1530
901.702515,1555
901.818787,1551
901.93512,1579
902.051331,1613
902.167603,1619
902.283875,1654
902.400085,1619
902.516418,1680
902.632629,1736
902.74884,1693
902.865112,1723
902.981384,1696
903.097595,1682
903.213867,1687
903.330017,1671
903.446289,1632
903.5625,1588
903.67865,1570
903.794922,1617
903.911072,1623
904.027344,1613
904.143494,1557
904.259705,1597
904.375916,1580
904.492065,1541
904.608215,1529
904.724426,1544
904.840576,1553
904.956726,1506
905.072876,1503
905.189087,1512
905.305176,1535
905.421387,1488
905.537537,1533
905.653687,1490
905.769775,1493
905.885925,1519
906.002014,1511
906.118164,1533
906.234314,1456
906.350403,1499
906.466492,1502
906.582642,1483
906.69873,1475
906.814758,1471
906.930908,1518
907.046936,1465
907.163086,1475
907.279175,1533
907.395264,1499
907.511353,1431
907.62738,1512
907.743408,1469
907.859497,1477
907.975525,1482
908.091553,1477
908.207703,1456
908.32373,1451
908.439758,1489
908.555786,1469
908.671814,1529
908.787842,1508
908.90387,1535
909.019775,1458
909.135864,1479
909.251892,1468
909.367859,1440
909.483826,1464
909.599854,1521
909.715881,1493
909.831848,1465
909.947815,1538
910.063782,1493
910.179749,1525
910.295776,1495
910.411743,1513
910.527649,1527
910.643616,1525
910.759583,1493
910.875488,1485
910.991455,1483
911.107361,1497
911.223267,1461
911.339294,1494
911.4552,1487
911.571106,1507
911.687073,1510
911.802979,1474
911.918823,1462
912.034729,1495
912.150635,1471
912.266602,1468
912.382446,1432
912.498352,1445
912.614197,1472
912.730103,1486
912.846008,1516
792.44574,3701
792.56488,3596
792.68396,3486
792.80304,3451
792.92218,3296
793.041199,3247
793.160339,3178
793.279419,3192
793.398499,3052
793.517578,3006
793.636658,2925
793.755737,2918
793.874817,2791
793.993896,2851
794.112976,2765
794.232056,2744
794.351074,2684
794.470215,2620
794.589233,2651
794.708313,2662
794.827393,2561
794.946411,2537
795.065552,2510
795.18457,2446
795.303589,2466
795.422668,2424
795.541687,2415
795.660767,2373
795.779846,2376
795.898865,2431
796.017883,2338
796.136963,2304
796.255981,2318
796.375061,2336
796.49408,2300
796.613037,2325
796.732117,2251
796.851135,2240
796.970154,2178
797.089233,2219
797.208191,2155
797.327271,2128
797.446228,2135
797.565186,2115
797.684265,2144
797.803223,2082
797.922241,2131
798.04126,2107
798.160278,2084
798.279297,2112
798.398315,2081
798.517273,2115
798.636292,2084
798.75531,2012
798.874268,2141
798.993286,2038
799.112244,2070
799.231323,2021
799.350281,2013
799.469238,2043
799.588257,2043
799.707153,1988
799.826111,2017
799.945129,2007
800.064087,2053
800.183044,1982
800.302063,2054
800.421021,1956
800.539978,1958
800.658936,1974
800.777893,1954
800.896912,1958
801.015747,1929
801.134705,1908
801.253723,1910
801.37262,1933
801.491638,1982
801.610535,1903
801.729492,1887
801.84845,1854
801.967407,1930
802.086243,1899
802.205261,1876
802.324158,1871
802.443115,1940
802.562073,1909
802.680969,1887
802.799927,1865
802.918762,1894
803.037659,1877
803.156677,1868
803.275574,1864
803.39447,1869
803.513428,1857
803.632263,1866
803.751221,1884
803.870117,1878
803.989014,1861
804.107971,1861
804.226746,1848
804.345642,1835
804.4646,1864
804.583496,1874
804.702393,1829
804.821228,1799
804.940125,1853
805.059021,1876
805.177917,1861
805.296814,1836
805.415649,1832
805.534546,1856
805.653442,1813
805.772278,1837
805.891113,1824
806.01001,1816
806.128906,1847
806.247742,1793
806.366577,1803
806.485413,1850
806.604309,1810
806.723145,1816
806.84198,1824
806.960876,1824
807.079712,1793
807.198486,1830
807.317383,1822
807.436218,1798
807.554993,1801
807.673889,1811
807.792725,1799
807.91156,1788
808.030396,1806
808.14917,1757
808.268005,1748
808.386841,1782
808.505676,1803
808.624451,1794
808.743286,1777
808.862122,1799
808.980896,1806
809.099731,1804
809.218506,1742
809.337341,1766
809.456116,1808
809.57489,1770
809.693726,1846
809.8125,1843
809.931274,1856
810.050049,1774
810.168884,1793
810.287659,1754
810.406372,1799
810.525269,1822
810.643982,1785
810.762756,1789
810.881531,1792
811.000305,1795
811.11908,1793
811.237854,1830
811.356567,1815
811.475403,1796
811.594116,1805
811.71283,1840
811.831604,1810
811.950378,1769
812.069153,1829
812.187927,1784
812.30658,1859
812.425415,1818
812.544128,1768
812.662781,1799
812.781616,1798
812.900269,1772
813.019043,1759
813.137756,1801
813.256531,1764
813.375244,1819
813.493896,1796
813.612671,1803
813.731384,1725
813.850037,1772
813.96875,1787
814.087524,1721
814.206238,1717
814.324951,1783
814.443604,1717
814.562256,1723
814.68103,1730
814.799683,1753
814.918335,1799
815.037109,1767
815.155762,1770
815.274475,1769
815.393188,1713
815.511841,1749
815.630554,1729
815.749146,1768
815.867859,1719
815.986572,1724
816.105164,1746
816.223877,1718
816.342529,1704
816.461182,1719
816.579895,1743
816.698486,1692
816.817139,1719
816.935791,1756
817.054504,1727
817.173096,1696
817.291748,1699
817.4104,1732
817.529053,1728
817.647644,1685
817.766235,1674
817.884949,1702
818.00354,1685
818.122192,1678
818.240845,1648
818.359436,1649
818.478088,1631
818.59668,1610
818.715271,1650
818.833923,1607
818.952515,1602
819.071106,1603
819.189758,1608
819.30835,1556
819.426941,1583
819.545532,1546
819.664124,1576
819.782715,1589
819.901306,1591
820.019897,1604
820.138489,1563
820.25708,1546
820.375671,1592
820.494202,1547
820.612732,1584
820.731384,1558
820.849915,1547
820.968506,1590
821.087097,1555
821.205627,1523
821.324158,1569
821.442749,1527
821.561279,1583
821.679871,1520
821.798401,1516
821.916931,1498
822.035461,1547
822.154053,1494
822.272583,1509
822.391174,1456
822.509583,1526
822.628174,1478
822.746704,1536
822.865234,1493
822.983765,1490
823.102295,1513
823.220825,1476
823.339294,1462
823.457825,1516
823.576355,1449
823.694824,1508
823.813354,1504
823.931885,1458
824.050354,1518
824.168884,1481
824.287354,1494
824.405823,1500
824.524353,1533
824.642822,1493
824.761353,1519
824.879822,1471
824.998291,1544
825.116699,1541
825.235291,1536
825.353699,1518
825.472168,1453
825.590637,1506
825.709106,1501
825.827576,1518
825.946045,1452
826.064453,1507
826.182983,1449
826.301392,1427
826.4198,1482
826.53833,1461
826.656738,1426
826.775208,1432
826.893677,1462
827.012024,1469
827.130493,1460
827.248962,1439
827.36731,1462
827.485779,1477
827.604248,1485
827.722595,1471
827.841064,1442
827.959412,1445
828.077942,1451
828.196289,1456
828.314636,1441
828.433105,1455
828.551514,1472
828.669861,1465
828.78833,1397
828.906677,1452
829.025085,1390
829.143433,1442
829.261841,1443
829.38031,1410
829.498657,1435
829.617004,1410
829.735413,1405
829.85376,1442
829.972107,1405
830.090515,1419
830.208862,1460
830.327209,1406
830.445557,1408
830.563904,1420
830.682312,1406
830.800659,1456
830.919006,1459
831.037354,1455
831.155701,1492
831.274048,1495
831.392395,1476
831.51062,1479
831.629028,1428
831.747314,1491
831.865662,1482
831.984009,1458
832.102356,1502
832.220642,1492
832.338928,1474
832.457275,1524
832.575623,1516
832.693909,1479
832.812134,1466
832.930481,1450
833.048828,1457
833.167114,1458
833.2854,1449
833.403687,1446
833.521973,1474
833.640259,1447
833.758545,1456
833.876831,1464
833.995056,1468
834.113281,1441
834.231628,1503
834.349915,1442
834.468201,1472
834.586426,1492
834.704651,1428
834.822998,1464
834.941162,1516
835.059448,1487
835.177673,1502
835.295959,1441
835.414246,1471
835.53241,1433
835.650635,1459
835.768921,1421
835.887146,1472
836.005371,1417
836.123596,1433
836.241821,1483
836.360046,1436
836.478271,1464
836.596497,1455
836.714722,1441
836.832886,1455
836.95105,1451
837.069336,1470
837.1875,1435
837.305725,1489
837.423889,1452
837.542053,1455
837.660339,1453
837.778503,1437
837.896667,1476
838.014832,1463
838.132996,1463
838.25116,1443
838.369385,1492
838.487488,1485
838.605713,1501
838.723877,1475
838.84198,1482
838.960205,1489
839.078308,1498
839.196472,1465
839.314636,1504
839.4328,1538
839.550964,1482
839.669067,1468
839.787231,1487
839.905396,1525
840.023499,1513
840.141602,1570
840.259766,1593
840.377869,1504
840.495972,1506
840.614136,1560
840.732239,1518
840.850342,1508
840.968445,1549
841.086548,1514
841.204651,1561
841.322754,1533
841.440918,1548
841.55896,1552
841.677002,1565
841.795166,1585
841.913208,1563
842.031311,1568
842.149353,1600
842.267456,1548
842.385498,1543
842.503601,1559
842.621643,1587
842.739746,1536
842.857788,1590
842.97583,1580
843.093933,1529
843.211975,1543
843.330017,1556
843.44812,1562
843.566101,1542
843.684204,1585
843.802246,1524
843.920227,1601
844.038269,1572
844.156311,1568
844.274292,1550
844.392395,1564
844.510376,1565
844.628357,1523
844.74646,1567
844.864441,1551
844.982422,1522
845.100403,1529
845.218384,1546
845.336426,1507
845.454468,1547
845.572449,1500
845.69043,1514
845.808411,1509
845.926453,1495
846.044373,1487
846.162354,1528
846.280396,1542
846.398315,1497
846.516296,1532
846.634216,1542
846.752197,1535
846.870178,1563
846.988098,1509
847.106079,1535
847.22406,1506
847.34198,1538
847.4599,1508
847.577881,1576
847.695801,1558
847.813782,1540
847.931641,1528
848.049561,1554
848.167603,1525
848.285461,1548
848.403381,1527
848.521362,1530
848.639221,1554
848.75708,1552
848.875,1569
848.99292,1540
849.110901,1597
849.22876,1560
849.34668,1537
849.464539,1579
849.582458,1605
849.700317,1605
849.818176,1526
849.936096,1559
850.053955,1629
850.171875,1564
850.289673,1550
850.407593,1568
850.525452,1576
850.643311,1562
850.761169,1580
850.878967,1533
850.996887,1569
851.114746,1510
851.232544,1570
851.350403,1547
851.468262,1552
851.58606,1562
851.703979,1552
851.821777,1541
851.939636,1530
852.057434,1533
852.175232,1558
852.293091,1582
852.410889,1642
852.528687,1601
852.646545,1653
852.764343,1655
852.88208,1657
852.999939,1629
853.117676,1586
853.235535,1549
853.353271,1501
853.471069,1588
853.588928,1578
853.706604,1513
853.824402,1513
853.9422,1539
854.059998,1565
854.177734,1519
854.295532,1587
854.413269,1567
854.531006,1621
854.648804,1543
854.766541,1560
854.884277,1566
855.002014,1557
855.119751,1500
855.237549,1565
855.355225,1523
855.473022,1521
855.590698,1538
855.708435,1539
855.826172,1505
855.943848,1530
856.061646,1510
856.179321,1552
856.296997,1504
856.414795,1550
856.53241,1552
856.650085,1594
856.767822,1560
856.885559,1599
857.003174,1586
857.120911,1590
857.238586,1600
857.356201,1618
857.473938,1580
857.591614,1547
857.709351,1568
857.826965,1577
857.944641,1570
858.062317,1566
858.179993,1562
858.297668,1599
858.415283,1554
858.532959,1554
858.650574,1632
858.768188,1596
858.885803,1558
859.003479,1564
859.121094,1568
859.23877,1563
859.356384,1632
859.473999,1533
859.591675,1523
859.709229,1533
859.826843,1541
859.944458,1499
860.062012,1518
860.179626,1530
860.297302,1542
860.414856,1549
860.532471,1506
860.650024,1504
860.767639,1520
860.885193,1539
861.002808,1468
861.120361,1518
861.237976,1496
861.35553,1557
861.473022,1520
861.590698,1523
861.708191,1527
861.825745,1555
861.943298,1486
862.060852,1475
862.178406,1517
862.295959,1505
862.413513,1491
862.531006,1423
862.64856,1449
862.766113,1473
862.883667,1495
863.00116,1466
863.118713,1458
863.236206,1506
863.353699,1485
863.471252,1482
863.588745,1478
863.706177,1503
863.82373,1500
863.941162,1531
864.058716,1500
864.176208,1530
864.29364,1518
864.411194,1483
864.528687,1486
864.646118,1491
864.763611,1505
864.881042,1499
864.998535,1500
865.116028,1461
865.233459,1497
865.350891,1463
865.468384,1501
865.585754,1459
865.703308,1478
865.820679,1448
865.938171,1492
866.055542,1499
866.173035,1443
866.290466,1480
866.407837,1438
866.52533,1507
866.6427,1489
866.760071,1518
866.877563,1492
866.994934,1474
867.112305,1475
867.229736,1512
867.347107,1494
867.464539,1533
867.58197,1500
867.699341,1497
867.81665,1462
867.934082,1512
868.051453,1490
868.168823,1537
868.286194,1537
868.403564,1529
868.520935,1528
868.638306,1517
868.755676,1504
868.872986,1498
868.990295,1539
869.107727,1529
869.225037,1544
869.342346,1524
869.459717,1542
869.577026,1542
869.694336,1524
869.811707,1601
869.929016,1531
870.046326,1536
870.163635,1586
870.280945,1546
870.398254,1605
870.515564,1579
870.632812,1573
870.750183,1590
870.867432,1563
870.984741,1576
871.102051,1598
871.219299,1607
871.336609,1622
871.453918,1578
871.571106,1663
871.688416,1621
871.805664,1687
871.922852,1647
872.040222,1628
872.157471,1668
872.274719,1643
872.391968,1651
872.509155,1650
872.626465,1598
872.743652,1588
872.860962,1593
872.978149,1608
873.095337,1556
873.212646,1641
873.329834,1646
873.44696,1579
873.564209,1611
873.681396,1629
873.798645,1640
873.915894,1585
874.03302,1603
874.150208,1614
874.267456,1643
874.384583,1638
874.501831,1628
874.618958,1647
874.736145,1647
874.853333,1662
874.970459,1644
875.087646,1690
875.204834,1616
875.32196,1662
875.439148,1582
875.556274,1578
875.673401,1582
875.790527,1615
875.907715,1639
876.024841,1579
876.141968,1611
876.259094,1537
876.376282,1597
876.493347,1606
876.610474,1543
876.7276,1569
876.844727,1560
876.961853,1588
877.078918,1560
877.195984,1581
877.313171,1592
877.430237,1519
877.547302,1558
877.664368,1568
877.781433,1540
877.898499,1532
878.015625,1527
878.13269,1549
878.249695,1519
878.366821,1529
878.483887,1527
878.600952,1525
878.717957,1546
878.834961,1556
878.952087,1554
879.069092,1503
879.186157,1501
879.303162,1535
879.420227,1556
879.537231,1478
879.654236,1475
879.77124,1514
879.888306,1468
880.005249,1524
880.122314,1476
880.239319,1473
880.356323,1498
880.473328,1552
880.590271,1489
880.707275,1478
880.824341,1474
880.941284,1445
881.058228,1470
881.175232,1467
881.292236,1462
881.40918,1466
881.526123,1468
881.643066,1452
881.760071,1467
881.877014,1516
881.993958,1471
882.11084,1512
882.227783,1490
882.344727,1474
882.46167,1462
882.578613,1481
882.695618,1487
882.812439,1464
882.929382,1489
883.046326,1489
883.163208,1494
883.280151,1492
883.397034,1519
883.513916,1481
883.630798,1535
883.747742,1509
883.864563,1524
883.981506,1571
884.098389,1581
884.21521,1581
884.332153,1555
884.448975,1598
884.565796,1569
884.682678,1605
884.7995,1678
884.916443,1658
885.033264,1775
885.150085,1770
885.266968,1864
885.383789,1799
885.500671,1871
885.617493,1874
885.734314,1894
885.851196,1877
885.967896,1826
886.084717,1799
886.201599,1824
886.318359,1810
886.435181,1875
886.552002,1829
886.668762,1767
886.785645,1747
886.902344,1749
887.019165,1748
887.135925,1747
887.252747,1754
887.369446,1761
887.486267,1693
887.603027,1643
887.719788,1633
887.836548,1580
887.953247,1635
888.070068,1581
888.186829,1574
888.303528,1535
888.420288,1495
888.536987,1511
888.653687,1505
888.770447,1500
888.887146,1459
889.003967,1447
889.120667,1484
889.237305,1488
889.354065,1496
889.470703,1461
889.587463,1464
889.704163,1464
889.820862,1460
889.937561,1492
890.054199,1525
890.170837,1448
890.287598,1423
890.404236,1444
890.520874,1464
890.637634,1474
890.754211,1468
890.87085,1457
890.987549,1497
891.104187,1465
891.220886,1479
891.337463,1453
891.454102,1478
891.57074,1465
891.687378,1513
891.804077,1522
891.920654,1421
892.037231,1466
892.15387,1522
892.270447,1472
892.387085,1476
892.503723,1466
892.6203,1455
892.736877,1489
892.853516,1433
892.970032,1484
893.08667,1464
893.203186,1460
893.319763,1454
893.43634,1471
893.552917,1469
893.669556,1490
893.786011,1454
893.902588,1512
894.019165,1461
894.135681,1493
894.252197,1435
894.368835,1459
894.485291,1508
894.601868,1479
894.718384,1510
894.8349,1516
894.951355,1444
895.067932,1465
895.184448,1434
895.300964,1492
895.417419,1470
895.533936,1474
895.650452,1479
895.766907,1477
895.883423,1446
895.999878,1474
896.116333,1456
896.232849,1476
896.349304,1426
896.465759,1466
896.582214,1470
896.698669,1501
896.815125,1522
896.931641,1463
897.048035,1439
897.164551,1466
897.280884,1469
897.397339,1457
897.513794,1503
897.630249,1492
897.746582,1476
897.863098,1500
897.979431,1448
898.095886,1475
898.212341,1463
898.328674,1531
898.445129,1460
898.561462,1490
898.677795,1495
898.794312,1498
898.910645,1489
899.026978,1465
899.143433,1516
899.259766,1509
899.37616,1483
899.492493,1569
899.608765,1510
899.725159,1487
899.841553,1520
899.957947,1491
900.07428,1507
900.190552,1487
900.306946,1485
900.423157,1502
900.53949,1503
900.655884,1495
900.772156,1541
900.888489,1485
901.004822,1485
901.121033,1505
901.237366,1498
901.353699,1496
901.46991,1505
901.586304,1598
901.702515,1584
901.818787,1618
901.93512,1550
902.051331,1630
902.167603,1585
902.283875,1644
902.400085,1688
902.516418,1680
902.632629,1685
902.74884,1718
902.865112,1735
902.981384,1743
903.097595,1709
903.213867,1677
903.330017,1664
903.446289,1719
903.5625,1641
903.67865,1649
903.794922,1614
903.911072,1640
904.027344,1589
904.143494,1591
904.259705,1581
904.375916,1560
904.492065,1559
904.608215,1563
904.724426,1560
904.840576,1568
904.956726,1534
905.072876,1518
905.189087,1502
905.305176,1532
905.421387,1533
905.537537,1518
905.653687,1504
905.769775,1514
905.885925,1505
906.002014,1502
906.118164,1502
906.234314,1501
906.350403,1503
906.466492,1501
906.582642,1527
906.69873,1491
906.814758,1496
906.930908,1454
907.046936,1460
907.163086,1551
907.279175,1499
907.395264,1502
907.511353,1504
907.62738,1471
907.743408,1451
907.859497,1508
907.975525,1498
908.091553,1483
908.207703,1513
908.32373,1457
908.439758,1505
908.555786,1523
908.671814,1477
908.787842,1483
908.90387,1516
909.019775,1509
909.135864,1499
909.251892,1529
909.367859,1541
909.483826,1512
909.599854,1508
909.715881,1483
909.831848,1512
909.947815,1498
910.063782,1480
910.179749,1528
910.295776,1509
910.411743,1539
910.527649,1517
910.643616,1530
910.759583,1512
910.875488,1527
910.991455,1489
911.107361,1478
911.223267,1489
911.339294,1533
911.4552,1497
911.571106,1480
911.687073,1465
911.802979,1529
911.918823,1493
912.034729,1542
912.150635,1493
912.266602,1480
912.382446,1475
912.498352,1480
912.614197,1466
912.730103,1468
912.846008,1504
