792.44574,1609
792.56488,1622
792.68396,1610
792.80304,1582
792.92218,1573
793.041199,1559
793.160339,1498
793.279419,1573
793.398499,1557
793.517578,1544
793.636658,1524
793.755737,1600
793.874817,1528
793.993896,1576
794.112976,1561
794.232056,1492
794.351074,1500
794.470215,1510
794.589233,1541
794.708313,1475
794.827393,1487
794.946411,1474
795.065552,1474
795.18457,1513
795.303589,1536
795.422668,1449
795.541687,1514
795.660767,1490
795.779846,1470
795.898865,1479
796.017883,1493
796.136963,1478
796.255981,1505
796.375061,1470
796.49408,1461
796.613037,1484
796.732117,1483
796.851135,1441
796.970154,1478
797.089233,1492
797.208191,1467
797.327271,1504
797.446228,1446
797.565186,1438
797.684265,1495
797.803223,1482
797.922241,1451
798.04126,1443
798.160278,1433
798.279297,1459
798.398315,1435
798.517273,1417
798.636292,1432
798.75531,1478
798.874268,1461
798.993286,1457
799.112244,1445
799.231323,1478
799.350281,1464
799.469238,1481
799.588257,1438
799.707153,1498
799.826111,1445
799.945129,1432
800.064087,1435
800.183044,1454
800.302063,1434
800.421021,1487
800.539978,1460
800.658936,1446
800.777893,1468
800.896912,1441
801.015747,1413
801.134705,1426
801.253723,1453
801.37262,1469
801.491638,1441
801.610535,1494
801.729492,1477
801.84845,1437
801.967407,1444
802.086243,1426
802.205261,1444
802.324158,1456
802.443115,1384
802.562073,1463
802.680969,1434
802.799927,1436
802.918762,1420
803.037659,1465
803.156677,1383
803.275574,1423
803.39447,1416
803.513428,1415
803.632263,1456
803.751221,1439
803.870117,1440
803.989014,1413
804.107971,1429
804.226746,1458
804.345642,1407
804.4646,1455
804.583496,1460
804.702393,1427
804.821228,1430
804.940125,1445
805.059021,1452
805.177917,1478
805.296814,1398
805.415649,1414
805.534546,1455
805.653442,1436
805.772278,1428
805.891113,1439
806.01001,1434
806.128906,1433
806.247742,1420
806.366577,1441
806.485413,1444
806.604309,1441
806.723145,1420
806.84198,1476
806.960876,1414
807.079712,1429
807.198486,1457
807.317383,1417
807.436218,1410
807.554993,1387
807.673889,1424
807.792725,1389
807.91156,1424
808.030396,1414
808.14917,1422
808.268005,1407
808.386841,1475
808.505676,1390
808.624451,1434
808.743286,1381
808.862122,1433
808.980896,1438
809.099731,1433
809.218506,1446
809.337341,1401
809.456116,1380
809.57489,1443
809.693726,1405
809.8125,1444
809.931274,1402
810.050049,1431
810.168884,1461
810.287659,1432
810.406372,1381
810.525269,1385
810.643982,1387
810.762756,1427
810.881531,1363
811.000305,1411
811.11908,1414
811.237854,1401
811.356567,1411
811.475403,1401
811.594116,1451
811.71283,1425
811.831604,1398
811.950378,1416
812.069153,1437
812.187927,1424
812.30658,1437
812.425415,1425
812.544128,1433
812.662781,1423
812.781616,1435
812.900269,1407
813.019043,1390
813.137756,1415
813.256531,1407
813.375244,1400
813.493896,1392
813.612671,1405
813.731384,1403
813.850037,1375
813.96875,1380
814.087524,1414
814.206238,1377
814.324951,1412
814.443604,1420
814.562256,1384
814.68103,1376
814.799683,1405
814.918335,1380
815.037109,1382
815.155762,1419
815.274475,1403
815.393188,1397
815.511841,1391
815.630554,1397
815.749146,1390
815.867859,1413
815.986572,1396
816.105164,1423
816.223877,1400
816.342529,1393
816.461182,1381
816.579895,1408
816.698486,1394
816.817139,1347
816.935791,1410
817.054504,1397
817.173096,1389
817.291748,1382
817.4104,1352
817.529053,1423
817.647644,1311
817.766235,1330
817.884949,1370
818.00354,1371
818.122192,1361
818.240845,1331
818.359436,1366
818.478088,1380
818.59668,1336
818.715271,1331
818.833923,1333
818.952515,1381
819.071106,1334
819.189758,1330
819.30835,1345
819.426941,1362
819.545532,1364
819.664124,1386
819.782715,1377
819.901306,1318
820.019897,1320
820.138489,1350
820.25708,1369
820.375671,1295
820.494202,1321
820.612732,1346
820.731384,1322
820.849915,1327
820.968506,1307
821.087097,1317
821.205627,1333
821.324158,1326
821.442749,1314
821.561279,1283
821.679871,1282
821.798401,1300
821.916931,1337
822.035461,1338
822.154053,1312
822.272583,1306
822.391174,1313
822.509583,1311
822.628174,1355
822.746704,1323
822.865234,1330
822.983765,1345
823.102295,1321
823.220825,1285
823.339294,1318
823.457825,1271
823.576355,1323
823.694824,1304
823.813354,1333
823.931885,1318
824.050354,1322
824.168884,1303
824.287354,1313
824.405823,1298
824.524353,1280
824.642822,1295
824.761353,1290
824.879822,1337
824.998291,1294
825.116699,1325
825.235291,1327
825.353699,1314
825.472168,1305
825.590637,1328
825.709106,1315
825.827576,1282
825.946045,1278
826.064453,1299
826.182983,1306
826.301392,1287
826.4198,1280
826.53833,1332
826.656738,1354
826.775208,1246
826.893677,1293
827.012024,1295
827.130493,1271
827.248962,1322
827.36731,1292
827.485779,1328
827.604248,1296
827.722595,1293
827.841064,1322
827.959412,1301
828.077942,1283
828.196289,1273
828.314636,1267
828.433105,1284
828.551514,1271
828.669861,1245
828.78833,1283
828.906677,1257
829.025085,1264
829.143433,1303
829.261841,1238
829.38031,1251
829.498657,1263
829.617004,1306
829.735413,1300
829.85376,1287
829.972107,1286
830.090515,1280
830.208862,1320
830.327209,1253
830.445557,1252
830.563904,1287
830.682312,1272
830.800659,1289
830.919006,1311
831.037354,1276
831.155701,1274
831.274048,1291
831.392395,1315
831.51062,1344
831.629028,1263
831.747314,1283
831.865662,1231
831.984009,1309
832.102356,1268
832.220642,1272
832.338928,1293
832.457275,1253
832.575623,1287
832.693909,1241
832.812134,1315
832.930481,1296
833.048828,1263
833.167114,1283
833.2854,1283
833.403687,1273
833.521973,1268
833.640259,1308
833.758545,1276
833.876831,1274
833.995056,1273
834.113281,1286
834.231628,1312
834.349915,1302
834.468201,1303
834.586426,1258
834.704651,1309
834.822998,1276
834.941162,1258
835.059448,1283
835.177673,1273
835.295959,1272
835.414246,1273
835.53241,1286
835.650635,1234
835.768921,1259
835.887146,1302
836.005371,1296
836.123596,1257
836.241821,1262
836.360046,1280
836.478271,1278
836.596497,1260
836.714722,1264
836.832886,1249
836.95105,1292
837.069336,1242
837.1875,1309
837.305725,1261
837.423889,1276
837.542053,1253
837.660339,1292
837.778503,1278
837.896667,1287
838.014832,1263
838.132996,1300
838.25116,1293
838.369385,1259
838.487488,1251
838.605713,1266
838.723877,1250
838.84198,1321
838.960205,1293
839.078308,1293
839.196472,1293
839.314636,1295
839.4328,1297
839.550964,1273
839.669067,1234
839.787231,1287
839.905396,1255
840.023499,1261
840.141602,1297
840.259766,1282
840.377869,1248
840.495972,1278
840.614136,1279
840.732239,1264
840.850342,1276
840.968445,1285
841.086548,1278
841.204651,1327
841.322754,1237
841.440918,1259
841.55896,1272
841.677002,1260
841.795166,1239
841.913208,1254
842.031311,1244
842.149353,1297
842.267456,1230
842.385498,1231
842.503601,1311
842.621643,1276
842.739746,1259
842.857788,1253
842.97583,1241
843.093933,1270
843.211975,1276
843.330017,1282
843.44812,1278
843.566101,1267
843.684204,1255
843.802246,1264
843.920227,1296
844.038269,1227
844.156311,1256
844.274292,1242
844.392395,1270
844.510376,1276
844.628357,1238
844.74646,1247
844.864441,1236
844.982422,1286
845.100403,1248
845.218384,1276
845.336426,1242
845.454468,1301
845.572449,1280
845.69043,1217
845.808411,1264
845.926453,1236
846.044373,1260
846.162354,1295
846.280396,1230
846.398315,1255
846.516296,1262
846.634216,1238
846.752197,1255
846.870178,1256
846.988098,1250
847.106079,1318
847.22406,1258
847.34198,1278
847.4599,1233
847.577881,1264
847.695801,1264
847.813782,1256
847.931641,1270
848.049561,1285
848.167603,1206
848.285461,1237
848.403381,1257
848.521362,1243
848.639221,1276
848.75708,1270
848.875,1261
848.99292,1289
849.110901,1234
849.22876,1232
849.34668,1274
849.464539,1288
849.582458,1248
849.700317,1222
849.818176,1254
849.936096,1277
850.053955,1258
850.171875,1226
850.289673,1272
850.407593,1232
850.525452,1278
850.643311,1257
850.761169,1256
850.878967,1278
850.996887,1273
851.114746,1286
851.232544,1244
851.350403,1265
851.468262,1276
851.58606,1284
851.703979,1257
851.821777,1281
851.939636,1296
852.057434,1249
852.175232,1263
852.293091,1252
852.410889,1283
852.528687,1277
852.646545,1258
852.764343,1289
852.88208,1301
852.999939,1267
853.117676,1294
853.235535,1250
853.353271,1289
853.471069,1293
853.588928,1247
853.706604,1298
853.824402,1280
853.9422,1294
854.059998,1270
854.177734,1240
854.295532,1261
854.413269,1241
854.531006,1287
854.648804,1276
854.766541,1263
854.884277,1297
855.002014,1304
855.119751,1264
855.237549,1239
855.355225,1257
855.473022,1255
855.590698,1305
855.708435,1317
855.826172,1288
855.943848,1309
856.061646,1296
856.179321,1263
856.296997,1289
856.414795,1283
856.53241,1258
856.650085,1269
856.767822,1302
856.885559,1281
857.003174,1281
857.120911,1259
857.238586,1295
857.356201,1297
857.473938,1227
857.591614,1289
857.709351,1279
857.826965,1263
857.944641,1266
858.062317,1286
858.179993,1230
858.297668,1252
858.415283,1262
858.532959,1288
858.650574,1226
858.768188,1272
858.885803,1260
859.003479,1262
859.121094,1279
859.23877,1269
859.356384,1295
859.473999,1234
859.591675,1269
859.709229,1245
859.826843,1267
859.944458,1283
860.062012,1272
860.179626,1257
860.297302,1255
860.414856,1275
860.532471,1272
860.650024,1262
860.767639,1296
860.885193,1256
861.002808,1272
861.120361,1280
861.237976,1302
861.35553,1269
861.473022,1300
861.590698,1292
861.708191,1273
861.825745,1291
861.943298,1263
862.060852,1288
862.178406,1266
862.295959,1283
862.413513,1255
862.531006,1252
862.64856,1277
862.766113,1256
862.883667,1239
863.00116,1245
863.118713,1263
863.236206,1273
863.353699,1270
863.471252,1236
863.588745,1296
863.706177,1284
863.82373,1273
863.941162,1287
864.058716,1293
864.176208,1266
864.29364,1289
864.411194,1289
864.528687,1307
864.646118,1268
864.763611,1259
864.881042,1271
864.998535,1280
865.116028,1265
865.233459,1291
865.350891,1242
865.468384,1281
865.585754,1235
865.703308,1311
865.820679,1258
865.938171,1296
866.055542,1296
866.173035,1265
866.290466,1277
866.407837,1303
866.52533,1300
866.6427,1324
866.760071,1279
866.877563,1306
866.994934,1310
867.112305,1253
867.229736,1269
867.347107,1281
867.464539,1274
867.58197,1258
867.699341,1324
867.81665,1264
867.934082,1307
868.051453,1269
868.168823,1300
868.286194,1295
868.403564,1269
868.520935,1294
868.638306,1264
868.755676,1274
868.872986,1298
868.990295,1306
869.107727,1315
869.225037,1290
869.342346,1264
869.459717,1269
869.577026,1260
869.694336,1247
869.811707,1262
869.929016,1285
870.046326,1311
870.163635,1296
870.280945,1299
870.398254,1273
870.515564,1307
870.632812,1267
870.750183,1290
870.867432,1274
870.984741,1286
871.102051,1291
871.219299,1290
871.336609,1305
871.453918,1259
871.571106,1287
871.688416,1318
871.805664,1309
871.922852,1263
872.040222,1284
872.157471,1313
872.274719,1283
872.391968,1271
872.509155,1301
872.626465,1250
872.743652,1295
872.860962,1237
872.978149,1301
873.095337,1289
873.212646,1296
873.329834,1283
873.44696,1301
873.564209,1300
873.681396,1272
873.798645,1264
873.915894,1303
874.03302,1296
874.150208,1289
874.267456,1288
874.384583,1290
874.501831,1263
874.618958,1280
874.736145,1278
874.853333,1294
874.970459,1318
875.087646,1317
875.204834,1267
875.32196,1316
875.439148,1283
875.556274,1303
875.673401,1337
875.790527,1282
875.907715,1264
876.024841,1293
876.141968,1302
876.259094,1302
876.376282,1287
876.493347,1320
876.610474,1274
876.7276,1317
876.844727,1289
876.961853,1315
877.078918,1292
877.195984,1325
877.313171,1342
877.430237,1298
877.547302,1298
877.664368,1263
877.781433,1260
877.898499,1270
878.015625,1286
878.13269,1299
878.249695,1296
878.366821,1312
878.483887,1334
878.600952,1241
878.717957,1287
878.834961,1323
878.952087,1310
879.069092,1273
879.186157,1347
879.303162,1291
879.420227,1284
879.537231,1314
879.654236,1293
879.77124,1299
879.888306,1318
880.005249,1306
880.122314,1260
880.239319,1283
880.356323,1288
880.473328,1283
880.590271,1292
880.707275,1267
880.824341,1301
880.941284,1304
881.058228,1307
881.175232,1323
881.292236,1295
881.40918,1298
881.526123,1287
881.643066,1283
881.760071,1312
881.877014,1272
881.993958,1350
882.11084,1286
882.227783,1271
882.344727,1285
882.46167,1286
882.578613,1326
882.695618,1310
882.812439,1326
882.929382,1287
883.046326,1245
883.163208,1276
883.280151,1277
883.397034,1300
883.513916,1289
883.630798,1361
883.747742,1298
883.864563,1335
883.981506,1308
884.098389,1284
884.21521,1319
884.332153,1319
884.448975,1336
884.565796,1310
884.682678,1312
884.7995,1313
884.916443,1310
885.033264,1303
885.150085,1324
885.266968,1312
885.383789,1329
885.500671,1305
885.617493,1327
885.734314,1310
885.851196,1343
885.967896,1338
886.084717,1329
886.201599,1282
886.318359,1314
886.435181,1362
886.552002,1325
886.668762,1318
886.785645,1322
886.902344,1316
887.019165,1309
887.135925,1345
887.252747,1309
887.369446,1329
887.486267,1260
887.603027,1289
887.719788,1319
887.836548,1343
887.953247,1350
888.070068,1341
888.186829,1303
888.303528,1336
888.420288,1328
888.536987,1312
888.653687,1349
888.770447,1309
888.887146,1361
889.003967,1304
889.120667,1305
889.237305,1332
889.354065,1322
889.470703,1318
889.587463,1287
889.704163,1321
889.820862,1316
889.937561,1307
890.054199,1320
890.170837,1337
890.287598,1316
890.404236,1294
890.520874,1347
890.637634,1321
890.754211,1355
890.87085,1334
890.987549,1336
891.104187,1328
891.220886,1323
891.337463,1363
891.454102,1368
891.57074,1326
891.687378,1353
891.804077,1340
891.920654,1338
892.037231,1355
892.15387,1331
892.270447,1360
892.387085,1338
892.503723,1315
892.6203,1342
892.736877,1312
892.853516,1363
892.970032,1347
893.08667,1332
893.203186,1320
893.319763,1340
893.43634,1336
893.552917,1304
893.669556,1358
893.786011,1299
893.902588,1321
894.019165,1351
894.135681,1346
894.252197,1355
894.368835,1371
894.485291,1315
894.601868,1356
894.718384,1306
894.8349,1361
894.951355,1335
895.067932,1348
895.184448,1329
895.300964,1336
895.417419,1346
895.533936,1349
895.650452,1343
895.766907,1406
895.883423,1333
895.999878,1347
896.116333,1379
896.232849,1367
896.349304,1355
896.465759,1328
896.582214,1357
896.698669,1358
896.815125,1383
896.931641,1337
897.048035,1374
897.164551,1309
897.280884,1360
897.397339,1319
897.513794,1330
897.630249,1289
897.746582,1331
897.863098,1342
897.979431,1351
898.095886,1336
898.212341,1351
898.328674,1346
898.445129,1370
898.561462,1367
898.677795,1349
898.794312,1338
898.910645,1376
899.026978,1321
899.143433,1348
899.259766,1351
899.37616,1327
899.492493,1371
899.608765,1328
899.725159,1365
899.841553,1336
899.957947,1339
900.07428,1343
900.190552,1367
900.306946,1393
900.423157,1343
900.53949,1387
900.655884,1338
900.772156,1367
900.888489,1381
901.004822,1338
901.121033,1341
901.237366,1350
901.353699,1369
901.46991,1367
901.586304,1342
901.702515,1360
901.818787,1317
901.93512,1361
902.051331,1392
902.167603,1426
902.283875,1379
902.400085,1340
902.516418,1356
902.632629,1351
902.74884,1386
902.865112,1376
902.981384,1361
903.097595,1392
903.213867,1358
903.330017,1396
903.446289,1337
903.5625,1376
903.67865,1358
903.794922,1391
903.911072,1346
904.027344,1393
904.143494,1335
904.259705,1378
904.375916,1351
904.492065,1369
904.608215,1389
904.724426,1368
904.840576,1380
904.956726,1397
905.072876,1360
905.189087,1392
905.305176,1378
905.421387,1359
905.537537,1383
905.653687,1362
905.769775,1402
905.885925,1360
906.002014,1367
906.118164,1372
906.234314,1379
906.350403,1399
906.466492,1373
906.582642,1354
906.69873,1344
906.814758,1395
906.930908,1385
907.046936,1353
907.163086,1377
907.279175,1371
907.395264,1355
907.511353,1391
907.62738,1371
907.743408,1349
907.859497,1350
907.975525,1369
908.091553,1366
908.207703,1371
908.32373,1376
908.439758,1363
908.555786,1371
908.671814,1358
908.787842,1383
908.90387,1354
909.019775,1339
909.135864,1388
909.251892,1380
909.367859,1372
909.483826,1381
909.599854,1410
909.715881,1365
909.831848,1395
909.947815,1380
910.063782,1382
910.179749,1407
910.295776,1424
910.411743,1382
910.527649,1441
910.643616,1387
910.759583,1388
910.875488,1383
910.991455,1367
911.107361,1398
911.223267,1370
911.339294,1383
911.4552,1362
911.571106,1397
911.687073,1367
911.802979,1388
911.918823,1356
912.034729,1379
912.150635,1403
912.266602,1389
912.382446,1380
912.498352,1315
912.614197,1358
912.730103,1395
912.846008,1391
792.44574,1630
792.56488,1676
792.68396,1665
792.80304,1632
792.92218,1562
793.041199,1623
793.160339,1559
793.279419,1589
793.398499,1629
793.517578,1622
793.636658,1572
793.755737,1511
793.874817,1579
793.993896,1614
794.112976,1592
794.232056,1550
794.351074,1544
794.470215,1505
794.589233,1549
794.708313,1524
794.827393,1553
794.946411,1566
795.065552,1531
795.18457,1571
795.303589,1541
795.422668,1547
795.541687,1504
795.660767,1554
795.779846,1535
795.898865,1530
796.017883,1531
796.136963,1571
796.255981,1472
796.375061,1528
796.49408,1532
796.613037,1521
796.732117,1531
796.851135,1502
796.970154,1490
797.089233,1517
797.208191,1466
797.327271,1499
797.446228,1504
797.565186,1525
797.684265,1488
797.803223,1498
797.922241,1548
798.04126,1501
798.160278,1503
798.279297,1527
798.398315,1485
798.517273,1481
798.636292,1475
798.75531,1482
798.874268,1484
798.993286,1506
799.112244,1473
799.231323,1448
799.350281,1471
799.469238,1521
799.588257,1454
799.707153,1480
799.826111,1465
799.945129,1479
800.064087,1469
800.183044,1476
800.302063,1452
800.421021,1454
800.539978,1509
800.658936,1445
800.777893,1534
800.896912,1467
801.015747,1458
801.134705,1471
801.253723,1506
801.37262,1494
801.491638,1466
801.610535,1445
801.729492,1473
801.84845,1455
801.967407,1465
802.086243,1468
802.205261,1453
802.324158,1495
802.443115,1440
802.562073,1494
802.680969,1476
802.799927,1454
802.918762,1436
803.037659,1455
803.156677,1491
803.275574,1488
803.39447,1487
803.513428,1476
803.632263,1503
803.751221,1412
803.870117,1463
803.989014,1441
804.107971,1427
804.226746,1446
804.345642,1477
804.4646,1470
804.583496,1411
804.702393,1464
804.821228,1485
804.940125,1496
805.059021,1438
805.177917,1482
805.296814,1421
805.415649,1446
805.534546,1435
805.653442,1481
805.772278,1465
805.891113,1506
806.01001,1459
806.128906,1437
806.247742,1456
806.366577,1470
806.485413,1465
806.604309,1443
806.723145,1460
806.84198,1447
806.960876,1439
807.079712,1449
807.198486,1443
807.317383,1448
807.436218,1436
807.554993,1467
807.673889,1491
807.792725,1500
807.91156,1451
808.030396,1453
808.14917,1448
808.268005,1476
808.386841,1438
808.505676,1468
808.624451,1420
808.743286,1453
808.862122,1407
808.980896,1440
809.099731,1450
809.218506,1444
809.337341,1432
809.456116,1466
809.57489,1446
809.693726,1462
809.8125,1486
809.931274,1481
810.050049,1431
810.168884,1483
810.287659,1457
810.406372,1435
810.525269,1421
810.643982,1446
810.762756,1483
810.881531,1414
811.000305,1465
811.11908,1431
811.237854,1447
811.356567,1463
811.475403,1485
811.594116,1468
811.71283,1462
811.831604,1421
811.950378,1418
812.069153,1431
812.187927,1453
812.30658,1460
812.425415,1437
812.544128,1431
812.662781,1387
812.781616,1435
812.900269,1412
813.019043,1436
813.137756,1433
813.256531,1437
813.375244,1416
813.493896,1428
813.612671,1454
813.731384,1426
813.850037,1403
813.96875,1403
814.087524,1422
814.206238,1394
814.324951,1433
814.443604,1390
814.562256,1408
814.68103,1430
814.799683,1417
814.918335,1432
815.037109,1431
815.155762,1410
815.274475,1423
815.393188,1432
815.511841,1422
815.630554,1404
815.749146,1381
815.867859,1382
815.986572,1406
816.105164,1372
816.223877,1424
816.342529,1412
816.461182,1443
816.579895,1467
816.698486,1439
816.817139,1414
816.935791,1408
817.054504,1416
817.173096,1411
817.291748,1449
817.4104,1455
817.529053,1405
817.647644,1430
817.766235,1396
817.884949,1402
818.00354,1371
818.122192,1435
818.240845,1414
818.359436,1344
818.478088,1401
818.59668,1369
818.715271,1345
818.833923,1373
818.952515,1377
819.071106,1374
819.189758,1380
819.30835,1389
819.426941,1372
819.545532,1365
819.664124,1345
819.782715,1360
819.901306,1345
820.019897,1376
820.138489,1389
820.25708,1392
820.375671,1346
820.494202,1378
820.612732,1368
820.731384,1386
820.849915,1300
820.968506,1327
821.087097,1347
821.205627,1427
821.324158,1345
821.442749,1318
821.561279,1363
821.679871,1327
821.798401,1361
821.916931,1335
822.035461,1349
822.154053,1388
822.272583,1330
822.391174,1386
822.509583,1325
822.628174,1309
822.746704,1366
822.865234,1286
822.983765,1349
823.102295,1332
823.220825,1333
823.339294,1321
823.457825,1352
823.576355,1333
823.694824,1334
823.813354,1376
823.931885,1317
824.050354,1341
824.168884,1330
824.287354,1334
824.405823,1354
824.524353,1333
824.642822,1339
824.761353,1292
824.879822,1331
824.998291,1327
825.116699,1355
825.235291,1338
825.353699,1331
825.472168,1361
825.590637,1343
825.709106,1337
825.827576,1348
825.946045,1314
826.064453,1365
826.182983,1320
826.301392,1323
826.4198,1303
826.53833,1309
826.656738,1329
826.775208,1296
826.893677,1306
827.012024,1293
827.130493,1338
827.248962,1331
827.36731,1330
827.485779,1327
827.604248,1331
827.722595,1320
827.841064,1300
827.959412,1294
828.077942,1303
828.196289,1354
828.314636,1289
828.433105,1319
828.551514,1323
828.669861,1334
828.78833,1254
828.906677,1331
829.025085,1309
829.143433,1255
829.261841,1347
829.38031,1302
829.498657,1279
829.617004,1325
829.735413,1352
829.85376,1299
829.972107,1316
830.090515,1283
830.208862,1333
830.327209,1324
830.445557,1320
830.563904,1342
830.682312,1284
830.800659,1312
830.919006,1290
831.037354,1351
831.155701,1316
831.274048,1294
831.392395,1310
831.51062,1334
831.629028,1295
831.747314,1354
831.865662,1293
831.984009,1320
832.102356,1317
832.220642,1283
832.338928,1283
832.457275,1290
832.575623,1299
832.693909,1310
832.812134,1297
832.930481,1296
833.048828,1308
833.167114,1287
833.2854,1295
833.403687,1293
833.521973,1315
833.640259,1298
833.758545,1326
833.876831,1316
833.995056,1310
834.113281,1347
834.231628,1351
834.349915,1315
834.468201,1283
834.586426,1295
834.704651,1320
834.822998,1267
834.941162,1284
835.059448,1299
835.177673,1302
835.295959,1282
835.414246,1288
835.53241,1307
835.650635,1273
835.768921,1309
835.887146,1294
836.005371,1306
836.123596,1283
836.241821,1302
836.360046,1292
836.478271,1279
836.596497,1293
836.714722,1283
836.832886,1295
836.95105,1274
837.069336,1328
837.1875,1302
837.305725,1301
837.423889,1315
837.542053,1267
837.660339,1322
837.778503,1298
837.896667,1321
838.014832,1281
838.132996,1306
838.25116,1304
838.369385,1273
838.487488,1317
838.605713,1285
838.723877,1300
838.84198,1299
838.960205,1297
839.078308,1271
839.196472,1316
839.314636,1313
839.4328,1289
839.550964,1347
839.669067,1303
839.787231,1309
839.905396,1309
840.023499,1259
840.141602,1297
840.259766,1309
840.377869,1319
840.495972,1282
840.614136,1261
840.732239,1280
840.850342,1300
840.968445,1313
841.086548,1267
841.204651,1297
841.322754,1306
841.440918,1279
841.55896,1299
841.677002,1335
841.795166,1286
841.913208,1294
842.031311,1294
842.149353,1293
842.267456,1307
842.385498,1301
842.503601,1304
842.621643,1325
842.739746,1268
842.857788,1308
842.97583,1311
843.093933,1331
843.211975,1281
843.330017,1295
843.44812,1262
843.566101,1285
843.684204,1295
843.802246,1272
843.920227,1286
844.038269,1290
844.156311,1310
844.274292,1288
844.392395,1290
844.510376,1269
844.628357,1306
844.74646,1287
844.864441,1293
844.982422,1312
845.100403,1283
845.218384,1307
845.336426,1337
845.454468,1268
845.572449,1308
845.69043,1291
845.808411,1260
845.926453,1305
846.044373,1305
846.162354,1281
846.280396,1286
846.398315,1313
846.516296,1304
846.634216,1269
846.752197,1290
846.870178,1302
846.988098,1263
847.106079,1284
847.22406,1237
847.34198,1275
847.4599,1255
847.577881,1291
847.695801,1290
847.813782,1332
847.931641,1314
848.049561,1286
848.167603,1252
848.285461,1251
848.403381,1281
848.521362,1322
848.639221,1299
848.75708,1278
848.875,1340
848.99292,1320
849.110901,1250
849.22876,1292
849.34668,1298
849.464539,1283
849.582458,1306
849.700317,1286
849.818176,1309
849.936096,1323
850.053955,1322
850.171875,1307
850.289673,1317
850.407593,1266
850.525452,1299
850.643311,1299
850.761169,1279
850.878967,1281
850.996887,1264
851.114746,1272
851.232544,1280
851.350403,1281
851.468262,1309
851.58606,1252
851.703979,1289
851.821777,1281
851.939636,1293
852.057434,1259
852.175232,1270
852.293091,1255
852.410889,1290
852.528687,1289
852.646545,1290
852.764343,1320
852.88208,1304
852.999939,1279
853.117676,1319
853.235535,1310
853.353271,1291
853.471069,1305
853.588928,1271
853.706604,1309
853.824402,1271
853.9422,1280
854.059998,1293
854.177734,1305
854.295532,1289
854.413269,1293
854.531006,1275
854.648804,1284
854.766541,1320
854.884277,1300
855.002014,1291
855.119751,1286
855.237549,1296
855.355225,1326
855.473022,1296
855.590698,1290
855.708435,1316
855.826172,1263
855.943848,1311
856.061646,1292
856.179321,1297
856.296997,1283
856.414795,1306
856.53241,1284
856.650085,1334
856.767822,1308
856.885559,1295
857.003174,1287
857.120911,1334
857.238586,1314
857.356201,1295
857.473938,1311
857.591614,1258
857.709351,1303
857.826965,1294
857.944641,1286
858.062317,1296
858.179993,1294
858.297668,1307
858.415283,1330
858.532959,1226
858.650574,1321
858.768188,1268
858.885803,1287
859.003479,1298
859.121094,1318
859.23877,1302
859.356384,1300
859.473999,1307
859.591675,1277
859.709229,1316
859.826843,1298
859.944458,1296
860.062012,1299
860.179626,1262
860.297302,1309
860.414856,1288
860.532471,1314
860.650024,1344
860.767639,1273
860.885193,1269
861.002808,1298
861.120361,1275
861.237976,1291
861.35553,1349
861.473022,1255
861.590698,1315
861.708191,1303
861.825745,1293
861.943298,1302
862.060852,1282
862.178406,1335
862.295959,1321
862.413513,1307
862.531006,1288
862.64856,1308
862.766113,1256
862.883667,1298
863.00116,1266
863.118713,1287
863.236206,1306
863.353699,1288
863.471252,1261
863.588745,1323
863.706177,1273
863.82373,1293
863.941162,1315
864.058716,1302
864.176208,1309
864.29364,1273
864.411194,1272
864.528687,1290
864.646118,1294
864.763611,1335
864.881042,1323
864.998535,1301
865.116028,1305
865.233459,1309
865.350891,1285
865.468384,1311
865.585754,1270
865.703308,1310
865.820679,1260
865.938171,1293
866.055542,1309
866.173035,1300
866.290466,1297
866.407837,1287
866.52533,1320
866.6427,1299
866.760071,1302
866.877563,1311
866.994934,1324
867.112305,1290
867.229736,1310
867.347107,1274
867.464539,1282
867.58197,1333
867.699341,1293
867.81665,1286
867.934082,1293
868.051453,1313
868.168823,1322
868.286194,1306
868.403564,1300
868.520935,1292
868.638306,1339
868.755676,1280
868.872986,1310
868.990295,1319
869.107727,1292
869.225037,1341
869.342346,1299
869.459717,1318
869.577026,1332
869.694336,1326
869.811707,1322
869.929016,1327
870.046326,1335
870.163635,1328
870.280945,1345
870.398254,1299
870.515564,1308
870.632812,1300
870.750183,1356
870.867432,1309
870.984741,1302
871.102051,1326
871.219299,1292
871.336609,1354
871.453918,1320
871.571106,1361
871.688416,1327
871.805664,1292
871.922852,1277
872.040222,1317
872.157471,1362
872.274719,1334
872.391968,1349
872.509155,1326
872.626465,1317
872.743652,1301
872.860962,1338
872.978149,1339
873.095337,1281
873.212646,1306
873.329834,1287
873.44696,1323
873.564209,1304
873.681396,1311
873.798645,1319
873.915894,1327
874.03302,1299
874.150208,1313
874.267456,1311
874.384583,1343
874.501831,1312
874.618958,1298
874.736145,1321
874.853333,1298
874.970459,1323
875.087646,1293
875.204834,1341
875.32196,1326
875.439148,1302
875.556274,1326
875.673401,1317
875.790527,1321
875.907715,1257
876.024841,1319
876.141968,1315
876.259094,1290
876.376282,1306
876.493347,1320
876.610474,1376
876.7276,1341
876.844727,1322
876.961853,1325
877.078918,1336
877.195984,1323
877.313171,1335
877.430237,1952
877.547302,3962
877.664368,1281
877.781433,1311
877.898499,1325
878.015625,1300
878.13269,1326
878.249695,1363
878.366821,1314
878.483887,1300
878.600952,1323
878.717957,1325
878.834961,1290
878.952087,1289
879.069092,1326
879.186157,1351
879.303162,1295
879.420227,1342
879.537231,1318
879.654236,1347
879.77124,1309
879.888306,1301
880.005249,1345
880.122314,1333
880.239319,1331
880.356323,1305
880.473328,1336
880.590271,1324
880.707275,1349
880.824341,1310
880.941284,1346
881.058228,1365
881.175232,1318
881.292236,1310
881.40918,1318
881.526123,1337
881.643066,1322
881.760071,1325
881.877014,1336
881.993958,1328
882.11084,1305
882.227783,1291
882.344727,1318
882.46167,1349
882.578613,1321
882.695618,1352
882.812439,1363
882.929382,1284
883.046326,1367
883.163208,1337
883.280151,1300
883.397034,1339
883.513916,1318
883.630798,1330
883.747742,1335
883.864563,1330
883.981506,1345
884.098389,1280
884.21521,1310
884.332153,1344
884.448975,1379
884.565796,1351
884.682678,1283
884.7995,1333
884.916443,1322
885.033264,1384
885.150085,1371
885.266968,1357
885.383789,1315
885.500671,1356
885.617493,1378
885.734314,1363
885.851196,1396
885.967896,1373
886.084717,1292
886.201599,1403
886.318359,1374
886.435181,1328
886.552002,1348
886.668762,1365
886.785645,1360
886.902344,1405
887.019165,1373
887.135925,1364
887.252747,1336
887.369446,1379
887.486267,1340
887.603027,1349
887.719788,1383
887.836548,1347
887.953247,1362
888.070068,1350
888.186829,1382
888.303528,1304
888.420288,1378
888.536987,1333
888.653687,1364
888.770447,1308
888.887146,1365
889.003967,1343
889.120667,1359
889.237305,1351
889.354065,1339
889.470703,1345
889.587463,1364
889.704163,1347
889.820862,1347
889.937561,1333
890.054199,1355
890.170837,1362
890.287598,1323
890.404236,1386
890.520874,1356
890.637634,1338
890.754211,1366
890.87085,1329
890.987549,1357
891.104187,1345
891.220886,1368
891.337463,1384
891.454102,1362
891.57074,1390
891.687378,1341
891.804077,1369
891.920654,1337
892.037231,1353
892.15387,1375
892.270447,1367
892.387085,1366
892.503723,1377
892.6203,1349
892.736877,1317
892.853516,1379
892.970032,1382
893.08667,1383
893.203186,1384
893.319763,1371
893.43634,1345
893.552917,1363
893.669556,1339
893.786011,1403
893.902588,1384
894.019165,1347
894.135681,1360
894.252197,1329
894.368835,1379
894.485291,1344
894.601868,1377
894.718384,1358
894.8349,1398
894.951355,1381
895.067932,1373
895.184448,1409
895.300964,1381
895.417419,1373
895.533936,1390
895.650452,1395
895.766907,1388
895.883423,1372
895.999878,1384
896.116333,1403
896.232849,1397
896.349304,1354
896.465759,1402
896.582214,1346
896.698669,1350
896.815125,1361
896.931641,1382
897.048035,1382
897.164551,1368
897.280884,1325
897.397339,1395
897.513794,1323
897.630249,1355
897.746582,1377
897.863098,1402
897.979431,1391
898.095886,1384
898.212341,1423
898.328674,1390
898.445129,1412
898.561462,1403
898.677795,1392
898.794312,1396
898.910645,1397
899.026978,1397
899.143433,1391
899.259766,1398
899.37616,1354
899.492493,1372
899.608765,1372
899.725159,1377
899.841553,1396
899.957947,1399
900.07428,1367
900.190552,1373
900.306946,1343
900.423157,1383
900.53949,1360
900.655884,1385
900.772156,1363
900.888489,1438
901.004822,1361
901.121033,1353
901.237366,1386
901.353699,1400
901.46991,1379
901.586304,1397
901.702515,1347
901.818787,1419
901.93512,1386
902.051331,1440
902.167603,1410
902.283875,1418
902.400085,1369
902.516418,1397
902.632629,1361
902.74884,1383
902.865112,1390
902.981384,1432
903.097595,1390
903.213867,1422
903.330017,1385
903.446289,1428
903.5625,1400
903.67865,1387
903.794922,1387
903.911072,1426
904.027344,1459
904.143494,1393
904.259705,1439
904.375916,1431
904.492065,1439
904.608215,1379
904.724426,1417
904.840576,1379
904.956726,1370
905.072876,1385
905.189087,1375
905.305176,1370
905.421387,1418
905.537537,1426
905.653687,1404
905.769775,1399
905.885925,1411
906.002014,1426
906.118164,1378
906.234314,1389
906.350403,1394
906.466492,1417
906.582642,1382
906.69873,1403
906.814758,1398
906.930908,1380
907.046936,1396
907.163086,1402
907.279175,1427
907.395264,1414
907.511353,1419
907.62738,1426
907.743408,1376
907.859497,1460
907.975525,1449
908.091553,1417
908.207703,1419
908.32373,1427
908.439758,1406
908.555786,1434
908.671814,1346
908.787842,1400
908.90387,1374
909.019775,1428
909.135864,1439
909.251892,1403
909.367859,1382
909.483826,1409
909.599854,1438
909.715881,1425
909.831848,1393
909.947815,1431
910.063782,1417
910.179749,1414
910.295776,1423
910.411743,1373
910.527649,1450
910.643616,1432
910.759583,1433
910.875488,1471
910.991455,1411
911.107361,1414
911.223267,1416
911.339294,1408
911.4552,1425
911.571106,1406
911.687073,1445
911.802979,1461
911.918823,1389
912.034729,1440
912.150635,1402
912.266602,1420
912.382446,1435
912.498352,1404
912.614197,1410
912.730103,1431
912.846008,1443
792.44574,1697
792.56488,1683
792.68396,1690
792.80304,1674
792.92218,1622
793.041199,1621
793.160339,1599
793.279419,1613
793.398499,1594
793.517578,1607
793.636658,1585
793.755737,1605
793.874817,1581
793.993896,1590
794.112976,1597
794.232056,1543
794.351074,1575
794.470215,1609
794.589233,1623
794.708313,1563
794.827393,1572
794.946411,1522
795.065552,1563
795.18457,1572
795.303589,1578
795.422668,1539
795.541687,1551
795.660767,1557
795.779846,1511
795.898865,1535
796.017883,1547
796.136963,1507
796.255981,1567
796.375061,1532
796.49408,1554
796.613037,1503
796.732117,1544
796.851135,1493
796.970154,1531
797.089233,1497
797.208191,1489
797.327271,1528
797.446228,1466
797.565186,1516
797.684265,1484
797.803223,1550
797.922241,1553
798.04126,1481
798.160278,1526
798.279297,1501
798.398315,1492
798.517273,1510
798.636292,1490
798.75531,1523
798.874268,1499
798.993286,1516
799.112244,1498
799.231323,1504
799.350281,1476
799.469238,1507
799.588257,1447
799.707153,1527
799.826111,1535
799.945129,1494
800.064087,1506
800.183044,1478
800.302063,1528
800.421021,1469
800.539978,1513
800.658936,1477
800.777893,1531
800.896912,1490
801.015747,1487
801.134705,1453
801.253723,1493
801.37262,1494
801.491638,1484
801.610535,1484
801.729492,1440
801.84845,1481
801.967407,1500
802.086243,1502
802.205261,1473
802.324158,1474
802.443115,1476
802.562073,1481
802.680969,1501
802.799927,1481
802.918762,1531
803.037659,1487
803.156677,1499
803.275574,1464
803.39447,1453
803.513428,1446
803.632263,1481
803.751221,1506
803.870117,1467
803.989014,1480
804.107971,1461
804.226746,1489
804.345642,1452
804.4646,1487
804.583496,1471
804.702393,1460
804.821228,1506
804.940125,1460
805.059021,1438
805.177917,1503
805.296814,1499
805.415649,1469
805.534546,1469
805.653442,1442
805.772278,1488
805.891113,1525
806.01001,1513
806.128906,1464
806.247742,1438
806.366577,1445
806.485413,1498
806.604309,1462
806.723145,1441
806.84198,1468
806.960876,1467
807.079712,1501
807.198486,1463
807.317383,1442
807.436218,1434
807.554993,1471
807.673889,1444
807.792725,1483
807.91156,1464
808.030396,1474
808.14917,1429
808.268005,1453
808.386841,1456
808.505676,1464
808.624451,1455
808.743286,1444
808.862122,1497
808.980896,1473
809.099731,1472
809.218506,1446
809.337341,1450
809.456116,1448
809.57489,1480
809.693726,1466
809.8125,1451
809.931274,1441
810.050049,1458
810.168884,1432
810.287659,1472
810.406372,1454
810.525269,1447
810.643982,1440
810.762756,1468
810.881531,1447
811.000305,1486
811.11908,1449
811.237854,1449
811.356567,1448
811.475403,1472
811.594116,1459
811.71283,1434
811.831604,1449
811.950378,1450
812.069153,1416
812.187927,1467
812.30658,1487
812.425415,1437
812.544128,1419
812.662781,1455
812.781616,1435
812.900269,1450
813.019043,1448
813.137756,1424
813.256531,1428
813.375244,1454
813.493896,1428
813.612671,1453
813.731384,1462
813.850037,1433
813.96875,1445
814.087524,1457
814.206238,1471
814.324951,1407
814.443604,1451
814.562256,1419
814.68103,1421
814.799683,1439
814.918335,1467
815.037109,1437
815.155762,1419
815.274475,1382
815.393188,1395
815.511841,1445
815.630554,1428
815.749146,1437
815.867859,1439
815.986572,1444
816.105164,1426
816.223877,1441
816.342529,1417
816.461182,1439
816.579895,1419
816.698486,1412
816.817139,1422
816.935791,1424
817.054504,1435
817.173096,1449
817.291748,1423
817.4104,1400
817.529053,1426
817.647644,1393
817.766235,1397
817.884949,1441
818.00354,1446
818.122192,1428
818.240845,1341
818.359436,1398
818.478088,1445
818.59668,1432
818.715271,1389
818.833923,1410
818.952515,1397
819.071106,1383
819.189758,1390
819.30835,1401
819.426941,1371
819.545532,1401
819.664124,1346
819.782715,1372
819.901306,1399
820.019897,1382
820.138489,1391
820.25708,1398
820.375671,1393
820.494202,1369
820.612732,1358
820.731384,1375
820.849915,1372
820.968506,1347
821.087097,1355
821.205627,1393
821.324158,1385
821.442749,1381
821.561279,1382
821.679871,1302
821.798401,1370
821.916931,1368
822.035461,1356
822.154053,1365
822.272583,1351
822.391174,1338
822.509583,1326
822.628174,1384
822.746704,1337
822.865234,1321
822.983765,1316
823.102295,1351
823.220825,1377
823.339294,1340
823.457825,1354
823.576355,1349
823.694824,1380
823.813354,1349
823.931885,1342
824.050354,1373
824.168884,1319
824.287354,1376
824.405823,1347
824.524353,1348
824.642822,1362
824.761353,1360
824.879822,1351
824.998291,1348
825.116699,1339
825.235291,1372
825.353699,1350
825.472168,1294
825.590637,1358
825.709106,1338
825.827576,1368
825.946045,1335
826.064453,1358
826.182983,1307
826.301392,1360
826.4198,1362
826.53833,1326
826.656738,1317
826.775208,1328
826.893677,1297
827.012024,1345
827.130493,1336
827.248962,1367
827.36731,1311
827.485779,1335
827.604248,1341
827.722595,1329
827.841064,1333
827.959412,1317
828.077942,1375
828.196289,1313
828.314636,1298
828.433105,1335
828.551514,1319
828.669861,1361
828.78833,1319
828.906677,1332
829.025085,1306
829.143433,1340
829.261841,1321
829.38031,1313
829.498657,1323
829.617004,1332
829.735413,1310
829.85376,1300
829.972107,1331
830.090515,1337
830.208862,1315
830.327209,1350
830.445557,1279
830.563904,1327
830.682312,1332
830.800659,1322
830.919006,1309
831.037354,1309
831.155701,1295
831.274048,1335
831.392395,1305
831.51062,1352
831.629028,1283
831.747314,1313
831.865662,1306
831.984009,1347
832.102356,1323
832.220642,1307
832.338928,1294
832.457275,1305
832.575623,1320
832.693909,1310
832.812134,1286
832.930481,1295
833.048828,1302
833.167114,1335
833.2854,1290
833.403687,1329
833.521973,1325
833.640259,1297
833.758545,1296
833.876831,1314
833.995056,1322
834.113281,1339
834.231628,1328
834.349915,1307
834.468201,1290
834.586426,1315
834.704651,1277
834.822998,1327
834.941162,1310
835.059448,1303
835.177673,1323
835.295959,1312
835.414246,1322
835.53241,1313
835.650635,1299
835.768921,1305
835.887146,1308
836.005371,1295
836.123596,1325
836.241821,1305
836.360046,1324
836.478271,1335
836.596497,1317
836.714722,1296
836.832886,1342
836.95105,1340
837.069336,1290
837.1875,1313
837.305725,1337
837.423889,1286
837.542053,1328
837.660339,1301
837.778503,1329
837.896667,1275
838.014832,1274
838.132996,1315
838.25116,1326
838.369385,1368
838.487488,1347
838.605713,1312
838.723877,1329
838.84198,1320
838.960205,1265
839.078308,1272
839.196472,1294
839.314636,1338
839.4328,1314
839.550964,1298
839.669067,1309
839.787231,1311
839.905396,1311
840.023499,1322
840.141602,1294
840.259766,1299
840.377869,1316
840.495972,1271
840.614136,1282
840.732239,1298
840.850342,1285
840.968445,1277
841.086548,1322
841.204651,1322
841.322754,1326
841.440918,1289
841.55896,1302
841.677002,1332
841.795166,1313
841.913208,1246
842.031311,1320
842.149353,1304
842.267456,1268
842.385498,1305
842.503601,1286
842.621643,1299
842.739746,1297
842.857788,1260
842.97583,1280
843.093933,1305
843.211975,1317
843.330017,1303
843.44812,1297
843.566101,1294
843.684204,1261
843.802246,1331
843.920227,1299
844.038269,1278
844.156311,1296
844.274292,1329
844.392395,1287
844.510376,1317
844.628357,1331
844.74646,1297
844.864441,1292
844.982422,1261
845.100403,1325
845.218384,1274
845.336426,1303
845.454468,1317
845.572449,1271
845.69043,1301
845.808411,1290
845.926453,1293
846.044373,1274
846.162354,1309
846.280396,1304
846.398315,1276
846.516296,1288
846.634216,1284
846.752197,1252
846.870178,1334
846.988098,1325
847.106079,1287
847.22406,1247
847.34198,1327
847.4599,1298
847.577881,1360
847.695801,1306
847.813782,1316
847.931641,1284
848.049561,1311
848.167603,1305
848.285461,1293
848.403381,1292
848.521362,1334
848.639221,1321
848.75708,1277
848.875,1281
848.99292,1316
849.110901,1288
849.22876,1274
849.34668,1267
849.464539,1340
849.582458,1291
849.700317,1279
849.818176,1339
849.936096,1289
850.053955,1306
850.171875,1276
850.289673,1278
850.407593,1326
850.525452,1314
850.643311,1311
850.761169,1299
850.878967,1283
850.996887,1274
851.114746,1301
851.232544,1291
851.350403,1287
851.468262,1285
851.58606,1261
851.703979,1292
851.821777,1256
851.939636,1302
852.057434,1315
852.175232,1268
852.293091,1288
852.410889,1320
852.528687,1307
852.646545,1316
852.764343,1275
852.88208,1304
852.999939,1332
853.117676,1334
853.235535,1294
853.353271,1267
853.471069,1349
853.588928,1284
853.706604,1294
853.824402,1315
853.9422,1325
854.059998,1284
854.177734,1285
854.295532,1330
854.413269,1280
854.531006,1275
854.648804,1311
854.766541,1288
854.884277,1310
855.002014,1318
855.119751,1293
855.237549,1313
855.355225,1317
855.473022,1293
855.590698,1319
855.708435,1266
855.826172,1318
855.943848,1329
856.061646,1314
856.179321,1340
856.296997,1325
856.414795,1291
856.53241,1297
856.650085,1307
856.767822,1249
856.885559,1288
857.003174,1325
857.120911,1336
857.238586,1290
857.356201,1293
857.473938,1308
857.591614,1315
857.709351,1317
857.826965,1301
857.944641,1316
858.062317,1325
858.179993,1312
858.297668,1345
858.415283,1328
858.532959,1309
858.650574,1326
858.768188,1317
858.885803,1295
859.003479,1299
859.121094,1299
859.23877,1341
859.356384,1316
859.473999,1352
859.591675,1315
859.709229,1378
859.826843,1268
859.944458,1276
860.062012,1271
860.179626,1321
860.297302,1335
860.414856,1319
860.532471,1298
860.650024,1308
860.767639,1314
860.885193,1334
861.002808,1319
861.120361,1307
861.237976,1334
861.35553,1285
861.473022,1288
861.590698,1283
861.708191,1301
861.825745,1284
861.943298,1327
862.060852,1314
862.178406,1280
862.295959,1274
862.413513,1323
862.531006,1290
862.64856,1322
862.766113,1311
862.883667,1337
863.00116,1299
863.118713,1279
863.236206,1316
863.353699,1284
863.471252,1302
863.588745,1310
863.706177,1326
863.82373,1310
863.941162,1300
864.058716,1295
864.176208,1307
864.29364,1301
864.411194,1321
864.528687,1287
864.646118,1340
864.763611,1304
864.881042,1315
864.998535,1308
865.116028,1326
865.233459,1280
865.350891,1258
865.468384,1317
865.585754,1357
865.703308,1290
865.820679,1320
865.938171,1338
866.055542,1261
866.173035,1304
866.290466,1318
866.407837,1313
866.52533,1285
866.6427,1284
866.760071,1294
866.877563,1294
866.994934,1278
867.112305,1315
867.229736,1308
867.347107,1348
867.464539,1261
867.58197,1324
867.699341,1274
867.81665,1351
867.934082,1289
868.051453,1327
868.168823,1302
868.286194,1327
868.403564,1298
868.520935,1293
868.638306,1315
868.755676,1287
868.872986,1285
868.990295,1350
869.107727,1291
869.225037,1304
869.342346,1334
869.459717,1312
869.577026,1332
869.694336,1309
869.811707,1311
869.929016,1336
870.046326,1278
870.163635,1321
870.280945,1318
870.398254,1309
870.515564,1333
870.632812,1333
870.750183,1321
870.867432,1263
870.984741,1307
871.102051,1361
871.219299,1303
871.336609,1331
871.453918,1346
871.571106,1331
871.688416,1315
871.805664,1343
871.922852,1338
872.040222,1326
872.157471,1341
872.274719,1330
872.391968,1326
872.509155,1314
872.626465,1296
872.743652,1353
872.860962,1315
872.978149,1322
873.095337,1344
873.212646,1318
873.329834,1288
873.44696,1315
873.564209,1297
873.681396,1311
873.798645,1307
873.915894,1324
874.03302,1321
874.150208,1334
874.267456,1304
874.384583,1296
874.501831,1309
874.618958,1341
874.736145,1296
874.853333,1293
874.970459,1299
875.087646,1316
875.204834,1325
875.32196,1309
875.439148,1325
875.556274,1298
875.673401,1312
875.790527,1382
875.907715,1310
876.024841,1299
876.141968,1320
876.259094,1322
876.376282,1341
876.493347,1342
876.610474,1376
876.7276,1341
876.844727,1366
876.961853,1301
877.078918,1347
877.195984,1315
877.313171,1380
877.430237,1348
877.547302,1359
877.664368,1319
877.781433,1319
877.898499,1287
878.015625,1310
878.13269,1352
878.249695,1344
878.366821,1340
878.483887,1346
878.600952,1304
878.717957,1329
878.834961,1328
878.952087,1319
879.069092,1377
879.186157,1353
879.303162,1315
879.420227,1338
879.537231,1318
879.654236,1311
879.77124,1328
879.888306,1298
880.005249,1332
880.122314,1328
880.239319,1314
880.356323,1333
880.473328,1317
880.590271,1319
880.707275,1333
880.824341,1294
880.941284,1360
881.058228,1330
881.175232,1336
881.292236,1332
881.40918,1300
881.526123,1372
881.643066,1314
881.760071,1320
881.877014,1387
881.993958,1347
882.11084,1368
882.227783,1341
882.344727,1374
882.46167,1313
882.578613,1331
882.695618,1360
882.812439,1340
882.929382,1328
883.046326,1300
883.163208,1375
883.280151,1338
883.397034,1347
883.513916,1349
883.630798,1344
883.747742,1297
883.864563,1334
883.981506,1368
884.098389,1361
884.21521,1361
884.332153,1326
884.448975,1326
884.565796,1356
884.682678,1416
884.7995,1347
884.916443,1372
885.033264,1356
885.150085,1373
885.266968,1350
885.383789,1391
885.500671,1386
885.617493,1394
885.734314,1356
885.851196,1363
885.967896,1362
886.084717,1352
886.201599,1350
886.318359,1333
886.435181,1411
886.552002,1346
886.668762,1394
886.785645,1336
886.902344,1365
887.019165,1372
887.135925,1352
887.252747,1353
887.369446,1345
887.486267,1361
887.603027,1422
887.719788,1349
887.836548,1353
887.953247,1372
888.070068,1401
888.186829,1391
888.303528,1350
888.420288,1399
888.536987,1373
888.653687,1344
888.770447,1369
888.887146,1372
889.003967,1373
889.120667,1386
889.237305,1325
889.354065,1359
889.470703,1429
889.587463,1290
889.704163,1345
889.820862,1342
889.937561,1373
890.054199,1367
890.170837,1386
890.287598,1339
890.404236,1361
890.520874,1379
890.637634,1399
890.754211,1365
890.87085,1358
890.987549,1352
891.104187,1404
891.220886,1388
891.337463,1356
891.454102,1389
891.57074,1363
891.687378,1380
891.804077,1395
891.920654,1393
892.037231,1359
892.15387,1377
892.270447,1364
892.387085,1380
892.503723,1344
892.6203,1380
892.736877,1369
892.853516,1387
892.970032,1393
893.08667,1377
893.203186,1425
893.319763,1354
893.43634,1384
893.552917,1408
893.669556,1416
893.786011,1382
893.902588,1431
894.019165,1355
894.135681,1401
894.252197,1395
894.368835,1393
894.485291,1391
894.601868,1405
894.718384,1374
894.8349,1345
894.951355,1389
895.067932,1380
895.184448,1411
895.300964,1380
895.417419,1371
895.533936,1374
895.650452,1409
895.766907,1392
895.883423,1407
895.999878,1378
896.116333,1391
896.232849,1432
896.349304,1418
896.465759,1393
896.582214,1395
896.698669,1415
896.815125,1400
896.931641,1398
897.048035,1382
897.164551,1426
897.280884,1386
897.397339,1378
897.513794,1410
897.630249,1424
897.746582,1404
897.863098,1393
897.979431,1356
898.095886,1382
898.212341,1403
898.328674,1356
898.445129,1417
898.561462,1412
898.677795,1427
898.794312,1368
898.910645,1381
899.026978,1386
899.143433,1414
899.259766,1398
899.37616,1397
899.492493,1409
899.608765,1411
899.725159,1406
899.841553,1409
899.957947,1342
900.07428,1451
900.190552,1430
900.306946,1364
900.423157,1439
900.53949,1397
900.655884,1395
900.772156,1407
900.888489,1403
901.004822,1409
901.121033,1430
901.237366,1386
901.353699,1403
901.46991,1422
901.586304,1398
901.702515,1382
901.818787,1399
901.93512,1417
902.051331,1400
902.167603,1452
902.283875,1404
902.400085,1456
902.516418,1385
902.632629,1410
902.74884,1410
902.865112,1421
902.981384,1406
903.097595,1402
903.213867,1438
903.330017,1394
903.446289,1418
903.5625,1369
903.67865,1414
903.794922,1409
903.911072,1432
904.027344,1414
904.143494,1462
904.259705,1399
904.375916,1472
904.492065,1406
904.608215,1408
904.724426,1417
904.840576,1425
904.956726,1382
905.072876,1426
905.189087,1398
905.305176,1396
905.421387,1397
905.537537,1392
905.653687,1434
905.769775,1398
905.885925,1401
906.002014,1430
906.118164,1440
906.234314,1433
906.350403,1417
906.466492,1455
906.582642,1425
906.69873,1444
906.814758,1422
906.930908,1422
907.046936,1416
907.163086,1405
907.279175,1400
907.395264,1420
907.511353,1432
907.62738,1411
907.743408,1438
907.859497,1425
907.975525,1453
908.091553,1426
908.207703,1434
908.32373,1453
908.439758,1446
908.555786,1406
908.671814,1447
908.787842,1438
908.90387,1412
909.019775,1438
909.135864,1408
909.251892,1413
909.367859,1424
909.483826,1418
909.599854,1415
909.715881,1422
909.831848,1451
909.947815,1406
910.063782,1434
910.179749,1470
910.295776,1441
910.411743,1435
910.527649,1406
910.643616,1440
910.759583,1415
910.875488,1442
910.991455,1435
911.107361,1437
911.223267,1416
911.339294,1445
911.4552,1468
911.571106,1411
911.687073,1452
911.802979,1447
911.918823,1425
912.034729,1485
912.150635,1461
912.266602,1404
912.382446,1445
912.498352,1438
912.614197,1415
912.730103,1445
912.846008,1414
