792.44574,2128
792.56488,2097
792.68396,2128
792.80304,2128
792.92218,2077
793.041199,2013
793.160339,2051
793.279419,2105
793.398499,2107
793.517578,2018
793.636658,1990
793.755737,2052
793.874817,2063
793.993896,2060
794.112976,2047
794.232056,2003
794.351074,2033
794.470215,1964
794.589233,2004
794.708313,1960
794.827393,1930
794.946411,1977
795.065552,1994
795.18457,1950
795.303589,1934
795.422668,1979
795.541687,2004
795.660767,1973
795.779846,1865
795.898865,1957
796.017883,1955
796.136963,1915
796.255981,1899
796.375061,1943
796.49408,1911
796.613037,1945
796.732117,1885
796.851135,1889
796.970154,1961
797.089233,1904
797.208191,1958
797.327271,1905
797.446228,1864
797.565186,1861
797.684265,1909
797.803223,1889
797.922241,1894
798.04126,1875
798.160278,1890
798.279297,1919
798.398315,1904
798.517273,1903
798.636292,1901
798.75531,1879
798.874268,1913
798.993286,1959
799.112244,1910
799.231323,1915
799.350281,1914
799.469238,1863
799.588257,1879
799.707153,1892
799.826111,1873
799.945129,1878
800.064087,1918
800.183044,1916
800.302063,1955
800.421021,1918
800.539978,1934
800.658936,1898
800.777893,1966
800.896912,1927
801.015747,1903
801.134705,1951
801.253723,1934
801.37262,1958
801.491638,1883
801.610535,1893
801.729492,1932
801.84845,1906
801.967407,1920
802.086243,1990
802.205261,1905
802.324158,1968
802.443115,1956
802.562073,1946
802.680969,1967
802.799927,1976
802.918762,1951
803.037659,1997
803.156677,1980
803.275574,1993
803.39447,1956
803.513428,2027
803.632263,1991
803.751221,1979
803.870117,2050
803.989014,1974
804.107971,2035
804.226746,2077
804.345642,2013
804.4646,2068
804.583496,1994
804.702393,1979
804.821228,1995
804.940125,2046
805.059021,2046
805.177917,2045
805.296814,2022
805.415649,2071
805.534546,2064
805.653442,2050
805.772278,2116
805.891113,2100
806.01001,2125
806.128906,2064
806.247742,2032
806.366577,2130
806.485413,2070
806.604309,2072
806.723145,2155
806.84198,2068
806.960876,2089
807.079712,2072
807.198486,2120
807.317383,2162
807.436218,2058
807.554993,2083
807.673889,2115
807.792725,2149
807.91156,2114
808.030396,2103
808.14917,2102
808.268005,2132
808.386841,2160
808.505676,2132
808.624451,2123
808.743286,2128
808.862122,2112
808.980896,2131
809.099731,2092
809.218506,2111
809.337341,2183
809.456116,2128
809.57489,2169
809.693726,2192
809.8125,2184
809.931274,2161
810.050049,2194
810.168884,2151
810.287659,2195
810.406372,2177
810.525269,2197
810.643982,2213
810.762756,2217
810.881531,2188
811.000305,2224
811.11908,2203
811.237854,2217
811.356567,2129
811.475403,2203
811.594116,2178
811.71283,2193
811.831604,2161
811.950378,2142
812.069153,2222
812.187927,2186
812.30658,2208
812.425415,2173
812.544128,2161
812.662781,2185
812.781616,2209
812.900269,2194
813.019043,2147
813.137756,2174
813.256531,2219
813.375244,2181
813.493896,2158
813.612671,2215
813.731384,2238
813.850037,2196
813.96875,2196
814.087524,2154
814.206238,2196
814.324951,2101
814.443604,2186
814.562256,2169
814.68103,2182
814.799683,2113
814.918335,2144
815.037109,2128
815.155762,2142
815.274475,2087
815.393188,2161
815.511841,2141
815.630554,2121
815.749146,2066
815.867859,2086
815.986572,2063
816.105164,2057
816.223877,2075
816.342529,2083
816.461182,2134
816.579895,2098
816.698486,2113
816.817139,2086
816.935791,2116
817.054504,2116
817.173096,2124
817.291748,2051
817.4104,2095
817.529053,2057
817.647644,1970
817.766235,1939
817.884949,1923
818.00354,1922
818.122192,1833
818.240845,1858
818.359436,1818
818.478088,1748
818.59668,1717
818.715271,1768
818.833923,1724
818.952515,1652
819.071106,1693
819.189758,1635
819.30835,1597
819.426941,1593
819.545532,1562
819.664124,1571
819.782715,1596
819.901306,1520
820.019897,1518
820.138489,1581
820.25708,1507
820.375671,1562
820.494202,1523
820.612732,1474
820.731384,1504
820.849915,1532
820.968506,1524
821.087097,1496
821.205627,1549
821.324158,1459
821.442749,1497
821.561279,1495
821.679871,1411
821.798401,1486
821.916931,1452
822.035461,1447
822.154053,1496
822.272583,1455
822.391174,1478
822.509583,1458
822.628174,1459
822.746704,1502
822.865234,1483
822.983765,1453
823.102295,1477
823.220825,1494
823.339294,1410
823.457825,1466
823.576355,1487
823.694824,1469
823.813354,1498
823.931885,1484
824.050354,1469
824.168884,1470
824.287354,1494
824.405823,1501
824.524353,1504
824.642822,1502
824.761353,1447
824.879822,1480
824.998291,1489
825.116699,1456
825.235291,1448
825.353699,1480
825.472168,1377
825.590637,1467
825.709106,1416
825.827576,1429
825.946045,1457
826.064453,1430
826.182983,1415
826.301392,1438
826.4198,1407
826.53833,1401
826.656738,1389
826.775208,1402
826.893677,1408
827.012024,1377
827.130493,1357
827.248962,1371
827.36731,1346
827.485779,1382
827.604248,1374
827.722595,1345
827.841064,1377
827.959412,1361
828.077942,1333
828.196289,1364
828.314636,1377
828.433105,1342
828.551514,1368
828.669861,1358
828.78833,1369
828.906677,1363
829.025085,1340
829.143433,1342
829.261841,1350
829.38031,1350
829.498657,1337
829.617004,1352
829.735413,1325
829.85376,1319
829.972107,1380
830.090515,1362
830.208862,1369
830.327209,1353
830.445557,1385
830.563904,1374
830.682312,1333
830.800659,1333
830.919006,1360
831.037354,1359
831.155701,1386
831.274048,1357
831.392395,1345
831.51062,1353
831.629028,1340
831.747314,1346
831.865662,1333
831.984009,1371
832.102356,1370
832.220642,1354
832.338928,1326
832.457275,1352
832.575623,1319
832.693909,1361
832.812134,1372
832.930481,1368
833.048828,1346
833.167114,1348
833.2854,1312
833.403687,1372
833.521973,1359
833.640259,1343
833.758545,1346
833.876831,1374
833.995056,1334
834.113281,1327
834.231628,1336
834.349915,1329
834.468201,1345
834.586426,1314
834.704651,1414
834.822998,1327
834.941162,1356
835.059448,1394
835.177673,1356
835.295959,1406
835.414246,1304
835.53241,1363
835.650635,1360
835.768921,1306
835.887146,1360
836.005371,1381
836.123596,1364
836.241821,1359
836.360046,1404
836.478271,1411
836.596497,1380
836.714722,1435
836.832886,1403
836.95105,1451
837.069336,1438
837.1875,1416
837.305725,1427
837.423889,1434
837.542053,1399
837.660339,1465
837.778503,1433
837.896667,1419
838.014832,1420
838.132996,1455
838.25116,1406
838.369385,1418
838.487488,1389
838.605713,1408
838.723877,1456
838.84198,1437
838.960205,1383
839.078308,1441
839.196472,1433
839.314636,1390
839.4328,1437
839.550964,1391
839.669067,1392
839.787231,1416
839.905396,1412
840.023499,1356
840.141602,1412
840.259766,1415
840.377869,1395
840.495972,1390
840.614136,1406
840.732239,1437
840.850342,1409
840.968445,1424
841.086548,1357
841.204651,1407
841.322754,1390
841.440918,1404
841.55896,1391
841.677002,1343
841.795166,1326
841.913208,1352
842.031311,1377
842.149353,1340
842.267456,1328
842.385498,1348
842.503601,1328
842.621643,1364
842.739746,1352
842.857788,1324
842.97583,1357
843.093933,1314
843.211975,1302
843.330017,1309
843.44812,1297
843.566101,1319
843.684204,1303
843.802246,1292
843.920227,1342
844.038269,1323
844.156311,1332
844.274292,1320
844.392395,1364
844.510376,1354
844.628357,1306
844.74646,1297
844.864441,1307
844.982422,1334
845.100403,1342
845.218384,1313
845.336426,1339
845.454468,1362
845.572449,1307
845.69043,1308
845.808411,1319
845.926453,1352
846.044373,1319
846.162354,1304
846.280396,1296
846.398315,1338
846.516296,1337
846.634216,1344
846.752197,1282
846.870178,1342
846.988098,1312
847.106079,1248
847.22406,1322
847.34198,1305
847.4599,1306
847.577881,1376
847.695801,1332
847.813782,1348
847.931641,1334
848.049561,1329
848.167603,1326
848.285461,1316
848.403381,1290
848.521362,1329
848.639221,1345
848.75708,1315
848.875,1298
848.99292,1344
849.110901,1318
849.22876,1345
849.34668,1330
849.464539,1344
849.582458,1304
849.700317,1310
849.818176,1311
849.936096,1369
850.053955,1336
850.171875,1328
850.289673,1355
850.407593,1300
850.525452,1343
850.643311,1312
850.761169,1300
850.878967,1295
850.996887,1346
851.114746,1310
851.232544,1331
851.350403,1320
851.468262,1346
851.58606,1331
851.703979,1368
851.821777,1320
851.939636,1340
852.057434,1336
852.175232,1325
852.293091,1329
852.410889,1342
852.528687,1316
852.646545,1359
852.764343,1346
852.88208,1396
852.999939,1349
853.117676,1300
853.235535,1344
853.353271,1395
853.471069,1342
853.588928,1330
853.706604,1330
853.824402,1329
853.9422,1338
854.059998,1363
854.177734,1344
854.295532,1312
854.413269,1345
854.531006,1378
854.648804,1338
854.766541,1349
854.884277,1379
855.002014,1367
855.119751,1400
855.237549,1344
855.355225,1408
855.473022,1372
855.590698,1370
855.708435,1372
855.826172,1416
855.943848,1359
856.061646,1398
856.179321,1385
856.296997,1374
856.414795,1386
856.53241,1413
856.650085,1404
856.767822,1335
856.885559,1364
857.003174,1387
857.120911,1408
857.238586,1368
857.356201,1421
857.473938,1355
857.591614,1366
857.709351,1357
857.826965,1400
857.944641,1389
858.062317,1349
858.179993,1406
858.297668,1396
858.415283,1330
858.532959,1380
858.650574,1313
858.768188,1341
858.885803,1385
859.003479,1382
859.121094,1367
859.23877,1321
859.356384,1371
859.473999,1342
859.591675,1370
859.709229,1363
859.826843,1364
859.944458,1371
860.062012,1389
860.179626,1352
860.297302,1356
860.414856,1370
860.532471,1393
860.650024,1384
860.767639,1346
860.885193,1379
861.002808,1372
861.120361,1368
861.237976,1407
861.35553,1331
861.473022,1406
861.590698,1359
861.708191,1364
861.825745,1380
861.943298,1320
862.060852,1373
862.178406,1333
862.295959,1358
862.413513,1349
862.531006,1370
862.64856,1330
862.766113,1362
862.883667,1378
863.00116,1379
863.118713,1416
863.236206,1390
863.353699,1395
863.471252,1370
863.588745,1338
863.706177,1376
863.82373,1367
863.941162,1355
864.058716,1344
864.176208,1362
864.29364,1372
864.411194,1366
864.528687,1390
864.646118,1421
864.763611,1370
864.881042,1372
864.998535,1382
865.116028,1421
865.233459,1383
865.350891,1375
865.468384,1410
865.585754,1426
865.703308,1396
865.820679,1396
865.938171,1402
866.055542,1365
866.173035,1410
866.290466,1387
866.407837,1389
866.52533,1395
866.6427,1416
866.760071,1387
866.877563,1412
866.994934,1387
867.112305,1388
867.229736,1401
867.347107,1397
867.464539,1421
867.58197,1426
867.699341,1400
867.81665,1396
867.934082,1414
868.051453,1371
868.168823,1396
868.286194,1359
868.403564,1358
868.520935,1414
868.638306,1392
868.755676,1393
868.872986,1433
868.990295,1423
869.107727,1413
869.225037,1416
869.342346,1425
869.459717,1401
869.577026,1403
869.694336,1403
869.811707,1390
869.929016,1385
870.046326,1417
870.163635,1388
870.280945,1407
870.398254,1415
870.515564,1418
870.632812,1443
870.750183,1392
870.867432,1399
870.984741,1409
871.102051,1384
871.219299,1458
871.336609,1395
871.453918,1378
871.571106,1401
871.688416,1452
871.805664,1410
871.922852,1377
872.040222,1396
872.157471,1385
872.274719,1395
872.391968,1399
872.509155,1390
872.626465,1390
872.743652,1437
872.860962,1417
872.978149,1389
873.095337,1360
873.212646,1414
873.329834,1397
873.44696,1420
873.564209,1401
873.681396,1411
873.798645,1412
873.915894,1396
874.03302,1416
874.150208,1357
874.267456,1379
874.384583,1432
874.501831,1398
874.618958,1361
874.736145,1396
874.853333,1383
874.970459,1401
875.087646,1420
875.204834,1388
875.32196,1420
875.439148,1368
875.556274,1429
875.673401,1405
875.790527,1383
875.907715,1440
876.024841,1405
876.141968,1412
876.259094,1434
876.376282,1438
876.493347,1390
876.610474,1425
876.7276,1405
876.844727,1391
876.961853,1400
877.078918,1451
877.195984,1365
877.313171,1423
877.430237,1451
877.547302,1410
877.664368,1422
877.781433,1416
877.898499,1401
878.015625,1426
878.13269,1425
878.249695,1465
878.366821,1421
878.483887,1400
878.600952,1414
878.717957,1423
878.834961,1429
878.952087,1428
879.069092,1414
879.186157,1408
879.303162,1457
879.420227,1464
879.537231,1417
879.654236,1433
879.77124,1457
879.888306,1401
880.005249,1448
880.122314,1422
880.239319,1440
880.356323,1423
880.473328,1415
880.590271,1421
880.707275,1389
880.824341,1398
880.941284,1440
881.058228,1436
881.175232,1411
881.292236,1450
881.40918,1445
881.526123,1422
881.643066,1415
881.760071,1432
881.877014,1403
881.993958,1446
882.11084,1427
882.227783,1391
882.344727,1453
882.46167,1434
882.578613,1452
882.695618,1423
882.812439,1486
882.929382,1450
883.046326,1406
883.163208,1455
883.280151,1472
883.397034,1451
883.513916,1463
883.630798,1427
883.747742,1437
883.864563,1445
883.981506,1416
884.098389,1479
884.21521,1441
884.332153,1491
884.448975,1421
884.565796,1498
884.682678,1463
884.7995,1446
884.916443,1475
885.033264,1478
885.150085,1490
885.266968,1479
885.383789,1462
885.500671,1449
885.617493,1456
885.734314,1443
885.851196,1487
885.967896,1460
886.084717,1434
886.201599,1441
886.318359,1449
886.435181,1466
886.552002,1461
886.668762,1491
886.785645,1437
886.902344,1422
887.019165,1451
887.135925,1438
887.252747,1483
887.369446,1442
887.486267,1465
887.603027,1443
887.719788,1451
887.836548,1434
887.953247,1457
888.070068,1456
888.186829,1475
888.303528,1443
888.420288,1444
888.536987,1452
888.653687,1515
888.770447,1465
888.887146,1434
889.003967,1518
889.120667,1500
889.237305,1543
889.354065,1469
889.470703,1466
889.587463,1507
889.704163,1510
889.820862,1473
889.937561,1521
890.054199,1430
890.170837,1477
890.287598,1481
890.404236,1478
890.520874,1507
890.637634,1476
890.754211,1504
890.87085,1472
890.987549,1536
891.104187,1494
891.220886,1497
891.337463,1495
891.454102,1492
891.57074,1520
891.687378,1448
891.804077,1524
891.920654,1472
892.037231,1530
892.15387,1476
892.270447,1472
892.387085,1482
892.503723,1498
892.6203,1524
892.736877,1515
892.853516,1502
892.970032,1498
893.08667,1512
893.203186,1503
893.319763,1500
893.43634,1503
893.552917,1482
893.669556,1489
893.786011,1486
893.902588,1492
894.019165,1489
894.135681,1505
894.252197,1506
894.368835,1518
894.485291,1497
894.601868,1512
894.718384,1539
894.8349,1506
894.951355,1519
895.067932,1524
895.184448,1496
895.300964,1502
895.417419,1518
895.533936,1514
895.650452,1529
895.766907,1528
895.883423,1553
895.999878,1515
896.116333,1529
896.232849,1502
896.349304,1558
896.465759,1533
896.582214,1529
896.698669,1516
896.815125,1526
896.931641,1544
897.048035,1520
897.164551,1559
897.280884,1514
897.397339,1498
897.513794,1520
897.630249,1531
897.746582,1485
897.863098,1532
897.979431,1512
898.095886,1509
898.212341,1548
898.328674,1571
898.445129,1507
898.561462,1510
898.677795,1537
898.794312,1544
898.910645,1516
899.026978,1533
899.143433,1490
899.259766,1520
899.37616,1522
899.492493,1520
899.608765,1487
899.725159,1524
899.841553,1565
899.957947,1551
900.07428,1523
900.190552,1525
900.306946,1547
900.423157,1561
900.53949,1571
900.655884,1523
900.772156,1534
900.888489,1537
901.004822,1534
901.121033,1525
901.237366,1593
901.353699,1516
901.46991,1538
901.586304,1511
901.702515,1571
901.818787,1561
901.93512,1549
902.051331,1526
902.167603,1553
902.283875,1529
902.400085,1546
902.516418,1543
902.632629,1520
902.74884,1530
902.865112,1522
902.981384,1542
903.097595,1563
903.213867,1540
903.330017,1553
903.446289,1551
903.5625,1558
903.67865,1565
903.794922,1591
903.911072,1551
904.027344,1541
904.143494,1552
904.259705,1549
904.375916,1540
904.492065,1567
904.608215,1589
904.724426,1578
904.840576,1515
904.956726,1616
905.072876,1568
905.189087,1536
905.305176,1553
905.421387,1563
905.537537,1526
905.653687,1529
905.769775,1605
905.885925,1540
906.002014,1602
906.118164,1549
906.234314,1590
906.350403,1596
906.466492,1564
906.582642,1527
906.69873,1576
906.814758,1575
906.930908,1574
907.046936,1558
907.163086,1563
907.279175,1590
907.395264,1601
907.511353,1560
907.62738,1570
907.743408,1593
907.859497,1588
907.975525,1552
908.091553,1561
908.207703,1565
908.32373,1547
908.439758,1572
908.555786,1539
908.671814,1565
908.787842,1556
908.90387,1537
909.019775,1569
909.135864,1563
909.251892,1587
909.367859,1618
909.483826,1531
909.599854,1537
909.715881,1542
909.831848,1605
909.947815,1530
910.063782,1560
910.179749,1523
910.295776,1547
910.411743,1568
910.527649,1566
910.643616,1577
910.759583,1598
910.875488,1595
910.991455,1579
911.107361,1610
911.223267,1593
911.339294,1555
911.4552,1601
911.571106,1538
911.687073,1605
911.802979,1590
911.918823,1594
912.034729,1541
912.150635,1582
912.266602,1513
912.382446,1610
912.498352,1551
912.614197,1574
912.730103,1559
912.846008,1578
792.44574,2178
792.56488,2131
792.68396,2147
792.80304,2121
792.92218,2145
793.041199,2100
793.160339,2099
793.279419,2078
793.398499,2037
793.517578,2095
793.636658,2042
793.755737,2079
793.874817,2072
793.993896,2065
794.112976,2022
794.232056,2051
794.351074,2071
794.470215,2018
794.589233,2028
794.708313,2049
794.827393,2041
794.946411,1990
795.065552,1971
795.18457,1960
795.303589,2020
795.422668,1971
795.541687,1978
795.660767,2005
795.779846,1987
795.898865,1962
796.017883,1952
796.136963,1969
796.255981,1938
796.375061,1936
796.49408,1963
796.613037,1985
796.732117,1984
796.851135,1972
796.970154,1954
797.089233,1906
797.208191,1907
797.327271,1931
797.446228,1929
797.565186,1934
797.684265,1988
797.803223,1976
797.922241,1914
798.04126,1946
798.160278,1958
798.279297,1920
798.398315,1929
798.517273,1974
798.636292,1940
798.75531,1969
798.874268,1934
798.993286,1961
799.112244,1929
799.231323,1940
799.350281,1958
799.469238,1958
799.588257,1946
799.707153,1874
799.826111,1933
799.945129,1923
800.064087,1963
800.183044,1922
800.302063,1940
800.421021,1949
800.539978,1939
800.658936,1945
800.777893,1946
800.896912,1948
801.015747,1961
801.134705,1939
801.253723,1962
801.37262,1981
801.491638,1904
801.610535,1950
801.729492,1975
801.84845,1995
801.967407,1960
802.086243,2031
802.205261,1945
802.324158,2013
802.443115,2008
802.562073,1982
802.680969,2000
802.799927,1954
802.918762,1982
803.037659,2002
803.156677,1995
803.275574,2048
803.39447,2033
803.513428,2044
803.632263,2009
803.751221,2001
803.870117,2018
803.989014,2020
804.107971,2049
804.226746,2032
804.345642,2012
804.4646,2057
804.583496,2020
804.702393,2034
804.821228,2062
804.940125,2042
805.059021,2034
805.177917,2141
805.296814,2037
805.415649,2077
805.534546,2033
805.653442,2046
805.772278,2047
805.891113,2092
806.01001,2137
806.128906,2140
806.247742,2138
806.366577,2101
806.485413,2117
806.604309,2154
806.723145,2125
806.84198,2144
806.960876,2114
807.079712,2099
807.198486,2121
807.317383,2121
807.436218,2120
807.554993,2184
807.673889,2205
807.792725,2102
807.91156,2132
808.030396,2163
808.14917,2174
808.268005,2148
808.386841,2192
808.505676,2149
808.624451,2157
808.743286,2220
808.862122,2134
808.980896,2166
809.099731,2158
809.218506,2171
809.337341,2182
809.456116,2171
809.57489,2159
809.693726,2214
809.8125,2231
809.931274,2202
810.050049,2253
810.168884,2232
810.287659,2205
810.406372,2204
810.525269,2246
810.643982,2246
810.762756,2198
810.881531,2222
811.000305,2206
811.11908,2253
811.237854,2220
811.356567,2295
811.475403,2208
811.594116,2229
811.71283,2187
811.831604,2207
811.950378,2251
812.069153,2222
812.187927,2230
812.30658,2187
812.425415,2189
812.544128,2212
812.662781,2261
812.781616,2192
812.900269,2289
813.019043,2221
813.137756,2187
813.256531,2220
813.375244,2228
813.493896,2195
813.612671,2225
813.731384,2227
813.850037,2209
813.96875,2231
814.087524,2211
814.206238,2173
814.324951,2221
814.443604,2254
814.562256,2199
814.68103,2179
814.799683,2107
814.918335,2180
815.037109,2166
815.155762,2174
815.274475,2131
815.393188,2181
815.511841,2150
815.630554,2119
815.749146,2179
815.867859,2143
815.986572,2114
816.105164,2064
816.223877,2128
816.342529,2137
816.461182,2102
816.579895,2079
816.698486,2166
816.817139,2151
816.935791,2118
817.054504,2169
817.173096,2101
817.291748,2123
817.4104,2088
817.529053,2078
817.647644,2029
817.766235,1920
817.884949,1967
818.00354,1922
818.122192,1887
818.240845,1869
818.359436,1811
818.478088,1790
818.59668,1757
818.715271,1745
818.833923,1730
818.952515,1682
819.071106,1686
819.189758,1667
819.30835,1589
819.426941,1618
819.545532,1579
819.664124,1629
819.782715,1567
819.901306,1572
820.019897,1568
820.138489,1578
820.25708,1552
820.375671,1548
820.494202,1537
820.612732,1534
820.731384,1496
820.849915,1557
820.968506,1492
821.087097,1527
821.205627,1548
821.324158,1517
821.442749,1524
821.561279,1489
821.679871,1480
821.798401,1461
821.916931,1527
822.035461,1488
822.154053,1450
822.272583,1477
822.391174,1459
822.509583,1503
822.628174,1447
822.746704,1504
822.865234,1473
822.983765,1448
823.102295,1509
823.220825,1470
823.339294,1490
823.457825,1485
823.576355,1472
823.694824,1466
823.813354,1484
823.931885,1519
824.050354,1497
824.168884,1513
824.287354,1504
824.405823,1552
824.524353,1515
824.642822,1530
824.761353,1510
824.879822,1474
824.998291,1487
825.116699,1507
825.235291,1470
825.353699,1438
825.472168,1473
825.590637,1445
825.709106,1487
825.827576,1482
825.946045,1411
826.064453,1476
826.182983,1423
826.301392,1446
826.4198,1412
826.53833,1399
826.656738,1412
826.775208,1370
826.893677,1391
827.012024,1447
827.130493,1383
827.248962,1389
827.36731,1368
827.485779,1396
827.604248,1385
827.722595,1398
827.841064,1390
827.959412,1379
828.077942,1388
828.196289,1454
828.314636,1403
828.433105,1377
828.551514,1422
828.669861,1376
828.78833,1342
828.906677,1365
829.025085,1417
829.143433,1390
829.261841,1368
829.38031,1424
829.498657,1409
829.617004,1422
829.735413,1377
829.85376,1375
829.972107,1410
830.090515,1368
830.208862,1405
830.327209,1395
830.445557,1384
830.563904,1389
830.682312,1357
830.800659,1357
830.919006,1349
831.037354,1378
831.155701,1394
831.274048,1373
831.392395,1400
831.51062,1354
831.629028,1343
831.747314,1383
831.865662,1355
831.984009,1360
832.102356,1356
832.220642,1347
832.338928,1379
832.457275,1377
832.575623,1341
832.693909,1371
832.812134,1317
832.930481,1341
833.048828,1355
833.167114,1356
833.2854,1385
833.403687,1392
833.521973,1425
833.640259,1370
833.758545,1347
833.876831,1355
833.995056,1366
834.113281,1352
834.231628,1348
834.349915,1369
834.468201,1388
834.586426,1351
834.704651,1393
834.822998,1351
834.941162,1384
835.059448,1384
835.177673,1383
835.295959,1335
835.414246,1386
835.53241,1360
835.650635,1364
835.768921,1394
835.887146,1374
836.005371,1406
836.123596,1392
836.241821,1382
836.360046,1412
836.478271,1419
836.596497,1451
836.714722,1434
836.832886,1479
836.95105,4789
837.069336,1415
837.1875,1463
837.305725,1450
837.423889,1487
837.542053,1485
837.660339,1463
837.778503,1471
837.896667,1471
838.014832,1479
838.132996,1430
838.25116,1458
838.369385,1486
838.487488,1452
838.605713,1448
838.723877,1447
838.84198,1465
838.960205,1427
839.078308,1417
839.196472,1450
839.314636,1415
839.4328,1457
839.550964,1383
839.669067,1437
839.787231,1425
839.905396,1374
840.023499,1387
840.141602,1424
840.259766,1412
840.377869,1402
840.495972,1445
840.614136,1409
840.732239,1407
840.850342,1377
840.968445,1413
841.086548,1391
841.204651,1423
841.322754,1341
841.440918,1368
841.55896,1347
841.677002,1441
841.795166,1390
841.913208,1399
842.031311,1367
842.149353,1412
842.267456,1368
842.385498,1367
842.503601,1423
842.621643,1379
842.739746,1354
842.857788,1367
842.97583,1306
843.093933,1351
843.211975,1368
843.330017,1316
843.44812,1382
843.566101,1330
843.684204,1351
843.802246,1324
843.920227,1354
844.038269,1370
844.156311,1369
844.274292,1341
844.392395,1349
844.510376,1356
844.628357,1325
844.74646,1335
844.864441,1377
844.982422,1300
845.100403,1359
845.218384,1345
845.336426,1331
845.454468,1332
845.572449,1352
845.69043,1308
845.808411,1338
845.926453,1365
846.044373,1338
846.162354,1353
846.280396,1339
846.398315,1345
846.516296,1374
846.634216,1383
846.752197,1314
846.870178,1311
846.988098,1352
847.106079,1321
847.22406,1343
847.34198,1341
847.4599,1369
847.577881,1339
847.695801,1351
847.813782,1345
847.931641,1318
848.049561,1388
848.167603,1361
848.285461,1334
848.403381,1303
848.521362,1360
848.639221,1371
848.75708,1328
848.875,1385
848.99292,1339
849.110901,1364
849.22876,1319
849.34668,1385
849.464539,1352
849.582458,1326
849.700317,1343
849.818176,1284
849.936096,1353
850.053955,1318
850.171875,1328
850.289673,1364
850.407593,1343
850.525452,1356
850.643311,1402
850.761169,1310
850.878967,1355
850.996887,1365
851.114746,1329
851.232544,1325
851.350403,1381
851.468262,1396
851.58606,1345
851.703979,1378
851.821777,1385
851.939636,1354
852.057434,1378
852.175232,1405
852.293091,1342
852.410889,1330
852.528687,1356
852.646545,1393
852.764343,1352
852.88208,1371
852.999939,1395
853.117676,1400
853.235535,1359
853.353271,1368
853.471069,1368
853.588928,1349
853.706604,1365
853.824402,1359
853.9422,1384
854.059998,1394
854.177734,1387
854.295532,1376
854.413269,1368
854.531006,1399
854.648804,1377
854.766541,1376
854.884277,1390
855.002014,1378
855.119751,1413
855.237549,1397
855.355225,1405
855.473022,1394
855.590698,1411
855.708435,1443
855.826172,1390
855.943848,1449
856.061646,1409
856.179321,1395
856.296997,1422
856.414795,1406
856.53241,1396
856.650085,1445
856.767822,1392
856.885559,1385
857.003174,1416
857.120911,1408
857.238586,1402
857.356201,1375
857.473938,1393
857.591614,1408
857.709351,1389
857.826965,1417
857.944641,1368
858.062317,1392
858.179993,1350
858.297668,1383
858.415283,1399
858.532959,1388
858.650574,1357
858.768188,1407
858.885803,1379
859.003479,1398
859.121094,1374
859.23877,1384
859.356384,1407
859.473999,1414
859.591675,1383
859.709229,1400
859.826843,1394
859.944458,1368
860.062012,1405
860.179626,1379
860.297302,1418
860.414856,1346
860.532471,1323
860.650024,1372
860.767639,1389
860.885193,1383
861.002808,1379
861.120361,1423
861.237976,1370
861.35553,1413
861.473022,1370
861.590698,1408
861.708191,1352
861.825745,1399
861.943298,1349
862.060852,1326
862.178406,1392
862.295959,1400
862.413513,1374
862.531006,1425
862.64856,1388
862.766113,1415
862.883667,1388
863.00116,1388
863.118713,1401
863.236206,1411
863.353699,1419
863.471252,1379
863.588745,1402
863.706177,1396
863.82373,1402
863.941162,1356
864.058716,1382
864.176208,1435
864.29364,1446
864.411194,1421
864.528687,1395
864.646118,1409
864.763611,1362
864.881042,1419
864.998535,1378
865.116028,1403
865.233459,1393
865.350891,1375
865.468384,1400
865.585754,1431
865.703308,1432
865.820679,1389
865.938171,1454
866.055542,1417
866.173035,1403
866.290466,1420
866.407837,1452
866.52533,1414
866.6427,1424
866.760071,1434
866.877563,1480
866.994934,1400
867.112305,1436
867.229736,1394
867.347107,1437
867.464539,1420
867.58197,1419
867.699341,1437
867.81665,1404
867.934082,1372
868.051453,1465
868.168823,1462
868.286194,1445
868.403564,1391
868.520935,1438
868.638306,1422
868.755676,1426
868.872986,1457
868.990295,1421
869.107727,1419
869.225037,1418
869.342346,1419
869.459717,1415
869.577026,1454
869.694336,1402
869.811707,1409
869.929016,1441
870.046326,1418
870.163635,1392
870.280945,1416
870.398254,1426
870.515564,1410
870.632812,1432
870.750183,1451
870.867432,1451
870.984741,1445
871.102051,1403
871.219299,1411
871.336609,1415
871.453918,1397
871.571106,1416
871.688416,1454
871.805664,1428
871.922852,1399
872.040222,1436
872.157471,1415
872.274719,1436
872.391968,1381
872.509155,1398
872.626465,1422
872.743652,1421
872.860962,1451
872.978149,1379
873.095337,1430
873.212646,1449
873.329834,1446
873.44696,1432
873.564209,1458
873.681396,1398
873.798645,1440
873.915894,1392
874.03302,1418
874.150208,1426
874.267456,1417
874.384583,1411
874.501831,1387
874.618958,1438
874.736145,1417
874.853333,1403
874.970459,1393
875.087646,1460
875.204834,1456
875.32196,1436
875.439148,1447
875.556274,1412
875.673401,1466
875.790527,1385
875.907715,1452
876.024841,1391
876.141968,1399
876.259094,1449
876.376282,1460
876.493347,1489
876.610474,1449
876.7276,1435
876.844727,1442
876.961853,1478
877.078918,1435
877.195984,1448
877.313171,1453
877.430237,1418
877.547302,1500
877.664368,1446
877.781433,1401
877.898499,1414
878.015625,1478
878.13269,1407
878.249695,1446
878.366821,1459
878.483887,1457
878.600952,1486
878.717957,1379
878.834961,1463
878.952087,1459
879.069092,1465
879.186157,1445
879.303162,1442
879.420227,1449
879.537231,1426
879.654236,1439
879.77124,1414
879.888306,1425
880.005249,1441
880.122314,1441
880.239319,1429
880.356323,1436
880.473328,1441
880.590271,1441
880.707275,1441
880.824341,1438
880.941284,1478
881.058228,1440
881.175232,1434
881.292236,1427
881.40918,1462
881.526123,1449
881.643066,1470
881.760071,1450
881.877014,1467
881.993958,1400
882.11084,1441
882.227783,1478
882.344727,1471
882.46167,1404
882.578613,1466
882.695618,1422
882.812439,1494
882.929382,1439
883.046326,1453
883.163208,1430
883.280151,1528
883.397034,1448
883.513916,1446
883.630798,1452
883.747742,1436
883.864563,1445
883.981506,1433
884.098389,1455
884.21521,1483
884.332153,1455
884.448975,1471
884.565796,1444
884.682678,1445
884.7995,1481
884.916443,1483
885.033264,1471
885.150085,1455
885.266968,1448
885.383789,1511
885.500671,1482
885.617493,1478
885.734314,1474
885.851196,1448
885.967896,1500
886.084717,1455
886.201599,1448
886.318359,1519
886.435181,1467
886.552002,1495
886.668762,1498
886.785645,1461
886.902344,1525
887.019165,1481
887.135925,1519
887.252747,1505
887.369446,1469
887.486267,1505
887.603027,1516
887.719788,1465
887.836548,1486
887.953247,1476
888.070068,1515
888.186829,1484
888.303528,1487
888.420288,1526
888.536987,1513
888.653687,1477
888.770447,1480
888.887146,1516
889.003967,1456
889.120667,1490
889.237305,1499
889.354065,1546
889.470703,1518
889.587463,1510
889.704163,1509
889.820862,1503
889.937561,1492
890.054199,1493
890.170837,1517
890.287598,1518
890.404236,1489
890.520874,1488
890.637634,1547
890.754211,1554
890.87085,1537
890.987549,1495
891.104187,1517
891.220886,1514
891.337463,1562
891.454102,1504
891.57074,1517
891.687378,1506
891.804077,1527
891.920654,1503
892.037231,1512
892.15387,1490
892.270447,1484
892.387085,1502
892.503723,1519
892.6203,1528
892.736877,1528
892.853516,1478
892.970032,1552
893.08667,1520
893.203186,1507
893.319763,1535
893.43634,1532
893.552917,1545
893.669556,1555
893.786011,1547
893.902588,1533
894.019165,1528
894.135681,1547
894.252197,1569
894.368835,1583
894.485291,1552
894.601868,1563
894.718384,1542
894.8349,1552
894.951355,1562
895.067932,1546
895.184448,1536
895.300964,1538
895.417419,1542
895.533936,1534
895.650452,1492
895.766907,1533
895.883423,1591
895.999878,1557
896.116333,1532
896.232849,1545
896.349304,1518
896.465759,1535
896.582214,1525
896.698669,1549
896.815125,1591
896.931641,1513
897.048035,1558
897.164551,1573
897.280884,1529
897.397339,1580
897.513794,1545
897.630249,1596
897.746582,1522
897.863098,1579
897.979431,1563
898.095886,1584
898.212341,1581
898.328674,1572
898.445129,1590
898.561462,1520
898.677795,1557
898.794312,1579
898.910645,1511
899.026978,1575
899.143433,1565
899.259766,1525
899.37616,1567
899.492493,1551
899.608765,1566
899.725159,1530
899.841553,1558
899.957947,1535
900.07428,1578
900.190552,1563
900.306946,1563
900.423157,1586
900.53949,1549
900.655884,1564
900.772156,1555
900.888489,1567
901.004822,1578
901.121033,1537
901.237366,1595
901.353699,1574
901.46991,1565
901.586304,1541
901.702515,1560
901.818787,1576
901.93512,1564
902.051331,1521
902.167603,1570
902.283875,1569
902.400085,1566
902.516418,1560
902.632629,1542
902.74884,1622
902.865112,1567
902.981384,1587
903.097595,1573
903.213867,1558
903.330017,1574
903.446289,1573
903.5625,1602
903.67865,1547
903.794922,1606
903.911072,1579
904.027344,1584
904.143494,1589
904.259705,1584
904.375916,1598
904.492065,1603
904.608215,1608
904.724426,1591
904.840576,1535
904.956726,1600
905.072876,1597
905.189087,1546
905.305176,1589
905.421387,1604
905.537537,1635
905.653687,1564
905.769775,1546
905.885925,1610
906.002014,1567
906.118164,1585
906.234314,1578
906.350403,1603
906.466492,1606
906.582642,1597
906.69873,1576
906.814758,1628
906.930908,1607
907.046936,1571
907.163086,1585
907.279175,1616
907.395264,1598
907.511353,1585
907.62738,1642
907.743408,1586
907.859497,1606
907.975525,1609
908.091553,1604
908.207703,1617
908.32373,1567
908.439758,1619
908.555786,1598
908.671814,1602
908.787842,1580
908.90387,1563
909.019775,1629
909.135864,1573
909.251892,1580
909.367859,1590
909.483826,1554
909.599854,1632
909.715881,1623
909.831848,1600
909.947815,1553
910.063782,1618
910.179749,1620
910.295776,1599
910.411743,1632
910.527649,1643
910.643616,1610
910.759583,1621
910.875488,1600
910.991455,1608
911.107361,1626
911.223267,1569
911.339294,1601
911.4552,1584
911.571106,1574
911.687073,1616
911.802979,1603
911.918823,1627
912.034729,1592
912.150635,1654
912.266602,1640
912.382446,1620
912.498352,1583
912.614197,1580
912.730103,1585
912.846008,1588
792.44574,2217
792.56488,2174
792.68396,2194
792.80304,2160
792.92218,2124
793.041199,2092
793.160339,2116
793.279419,2058
793.398499,2094
793.517578,2074
793.636658,2051
793.755737,2067
793.874817,2019
793.993896,2080
794.112976,2085
794.232056,2020
794.351074,2046
794.470215,2024
794.589233,2027
794.708313,1950
794.827393,2002
794.946411,1987
795.065552,2018
795.18457,1996
795.303589,2047
795.422668,2042
795.541687,2021
795.660767,2027
795.779846,1999
795.898865,1956
796.017883,1995
796.136963,1975
796.255981,1967
796.375061,1967
796.49408,1968
796.613037,2016
796.732117,1968
796.851135,1977
796.970154,1972
797.089233,1967
797.208191,1894
797.327271,1954
797.446228,1944
797.565186,1917
797.684265,1991
797.803223,1979
797.922241,1950
798.04126,1953
798.160278,1944
798.279297,1964
798.398315,1939
798.517273,1933
798.636292,1947
798.75531,1944
798.874268,1985
798.993286,1950
799.112244,1942
799.231323,1934
799.350281,1882
799.469238,1947
799.588257,1966
799.707153,2018
799.826111,1942
799.945129,1930
800.064087,1981
800.183044,2005
800.302063,1900
800.421021,1914
800.539978,1962
800.658936,1975
800.777893,1976
800.896912,1969
801.015747,1992
801.134705,1956
801.253723,1953
801.37262,2010
801.491638,1952
801.610535,1957
801.729492,2001
801.84845,1966
801.967407,1980
802.086243,2023
802.205261,2000
802.324158,1984
802.443115,2041
802.562073,2039
802.680969,2058
802.799927,2012
802.918762,2047
803.037659,2112
803.156677,2023
803.275574,1979
803.39447,2048
803.513428,2020
803.632263,2030
803.751221,2079
803.870117,2047
803.989014,2054
804.107971,2052
804.226746,2043
804.345642,2057
804.4646,2056
804.583496,2065
804.702393,2104
804.821228,1997
804.940125,2076
805.059021,2062
805.177917,2129
805.296814,2054
805.415649,2102
805.534546,2102
805.653442,2092
805.772278,2130
805.891113,2116
806.01001,2127
806.128906,2147
806.247742,2054
806.366577,2110
806.485413,2123
806.604309,2113
806.723145,2040
806.84198,2183
806.960876,2094
807.079712,2086
807.198486,2161
807.317383,2158
807.436218,2125
807.554993,2098
807.673889,2158
807.792725,2169
807.91156,2142
808.030396,2143
808.14917,2133
808.268005,2123
808.386841,2160
808.505676,2145
808.624451,2179
808.743286,2176
808.862122,2202
808.980896,2217
809.099731,2171
809.218506,2160
809.337341,2180
809.456116,2156
809.57489,2237
809.693726,2214
809.8125,2150
809.931274,2224
810.050049,2272
810.168884,2225
810.287659,2199
810.406372,2247
810.525269,2219
810.643982,2184
810.762756,2235
810.881531,2230
811.000305,2233
811.11908,2237
811.237854,2244
811.356567,2241
811.475403,2192
811.594116,2201
811.71283,2193
811.831604,2221
811.950378,2239
812.069153,2246
812.187927,2190
812.30658,2198
812.425415,2269
812.544128,2251
812.662781,2256
812.781616,2237
812.900269,2228
813.019043,2231
813.137756,2217
813.256531,2201
813.375244,2184
813.493896,2184
813.612671,2257
813.731384,2183
813.850037,2193
813.96875,2213
814.087524,2212
814.206238,2220
814.324951,2232
814.443604,2228
814.562256,2210
814.68103,2170
814.799683,2183
814.918335,2187
815.037109,2155
815.155762,2245
815.274475,2187
815.393188,2246
815.511841,2182
815.630554,2086
815.749146,2112
815.867859,2137
815.986572,2114
816.105164,2096
816.223877,2125
816.342529,2120
816.461182,2155
816.579895,2089
816.698486,2106
816.817139,2125
816.935791,2181
817.054504,2148
817.173096,2141
817.291748,2133
817.4104,2085
817.529053,2006
817.647644,2044
817.766235,2038
817.884949,1990
818.00354,1936
818.122192,1874
818.240845,1891
818.359436,1811
818.478088,1781
818.59668,1734
818.715271,1740
818.833923,1698
818.952515,1692
819.071106,1670
819.189758,1674
819.30835,1661
819.426941,1615
819.545532,1614
819.664124,1603
819.782715,1572
819.901306,1600
820.019897,1599
820.138489,1598
820.25708,1540
820.375671,1582
820.494202,1535
820.612732,1504
820.731384,1548
820.849915,1537
820.968506,1527
821.087097,1547
821.205627,1514
821.324158,1524
821.442749,1483
821.561279,1480
821.679871,1522
821.798401,1545
821.916931,1442
822.035461,1517
822.154053,1509
822.272583,1497
822.391174,1484
822.509583,1468
822.628174,1432
822.746704,1451
822.865234,1506
822.983765,1530
823.102295,1517
823.220825,1555
823.339294,1495
823.457825,1464
823.576355,1488
823.694824,1484
823.813354,1485
823.931885,1487
824.050354,1482
824.168884,1529
824.287354,1528
824.405823,1502
824.524353,1514
824.642822,1533
824.761353,1526
824.879822,1553
824.998291,1468
825.116699,1488
825.235291,1488
825.353699,1501
825.472168,1467
825.590637,1444
825.709106,1484
825.827576,1417
825.946045,1451
826.064453,1454
826.182983,1463
826.301392,1419
826.4198,1456
826.53833,1405
826.656738,1431
826.775208,1380
826.893677,1426
827.012024,1448
827.130493,1410
827.248962,1392
827.36731,1372
827.485779,1369
827.604248,1394
827.722595,1360
827.841064,1388
827.959412,1390
828.077942,1400
828.196289,1381
828.314636,1380
828.433105,1402
828.551514,1355
828.669861,1374
828.78833,1372
828.906677,1371
829.025085,1377
829.143433,1353
829.261841,1370
829.38031,1389
829.498657,1363
829.617004,1414
829.735413,1377
829.85376,1383
829.972107,1308
830.090515,1387
830.208862,1386
830.327209,1357
830.445557,1395
830.563904,1382
830.682312,1360
830.800659,1379
830.919006,1359
831.037354,1355
831.155701,1351
831.274048,1366
831.392395,1360
831.51062,1357
831.629028,1405
831.747314,1400
831.865662,1408
831.984009,1418
832.102356,1378
832.220642,1384
832.338928,1371
832.457275,1387
832.575623,1349
832.693909,1366
832.812134,1351
832.930481,1375
833.048828,1367
833.167114,1370
833.2854,1397
833.403687,1358
833.521973,1397
833.640259,1335
833.758545,1364
833.876831,1392
833.995056,1365
834.113281,1372
834.231628,1422
834.349915,1384
834.468201,1373
834.586426,1412
834.704651,1371
834.822998,1378
834.941162,1394
835.059448,1385
835.177673,1367
835.295959,1380
835.414246,1393
835.53241,1388
835.650635,1381
835.768921,1364
835.887146,1380
836.005371,1418
836.123596,1384
836.241821,1412
836.360046,1450
836.478271,1464
836.596497,1421
836.714722,1455
836.832886,1461
836.95105,1450
837.069336,1464
837.1875,1471
837.305725,1466
837.423889,1458
837.542053,1440
837.660339,1488
837.778503,1470
837.896667,1459
838.014832,1466
838.132996,1490
838.25116,1459
838.369385,1474
838.487488,1476
838.605713,1451
838.723877,1482
838.84198,1456
838.960205,1418
839.078308,1427
839.196472,1447
839.314636,1442
839.4328,1430
839.550964,1422
839.669067,1414
839.787231,1436
839.905396,1403
840.023499,1401
840.141602,1409
840.259766,1458
840.377869,1446
840.495972,1426
840.614136,1412
840.732239,1412
840.850342,1406
840.968445,1463
841.086548,1381
841.204651,1420
841.322754,1423
841.440918,1404
841.55896,1374
841.677002,1390
841.795166,1381
841.913208,1371
842.031311,1398
842.149353,1371
842.267456,1358
842.385498,1386
842.503601,1353
842.621643,1335
842.739746,1421
842.857788,1361
842.97583,1425
843.093933,1314
843.211975,1331
843.330017,1325
843.44812,1331
843.566101,1372
843.684204,1350
843.802246,1321
843.920227,1376
844.038269,1365
844.156311,1398
844.274292,1359
844.392395,1370
844.510376,1357
844.628357,1332
844.74646,1335
844.864441,1331
844.982422,1373
845.100403,1341
845.218384,1353
845.336426,1330
845.454468,1348
845.572449,1329
845.69043,1386
845.808411,1343
845.926453,1364
846.044373,1348
846.162354,1362
846.280396,1361
846.398315,1336
846.516296,1360
846.634216,1343
846.752197,1346
846.870178,1349
846.988098,1321
847.106079,1367
847.22406,1361
847.34198,1336
847.4599,1369
847.577881,1369
847.695801,1379
847.813782,1310
847.931641,1365
848.049561,1357
848.167603,1365
848.285461,1344
848.403381,1357
848.521362,1322
848.639221,1340
848.75708,1354
848.875,1376
848.99292,1359
849.110901,1356
849.22876,1321
849.34668,1382
849.464539,1331
849.582458,1355
849.700317,1371
849.818176,1357
849.936096,1315
850.053955,1358
850.171875,1319
850.289673,1330
850.407593,1348
850.525452,1378
850.643311,1361
850.761169,1357
850.878967,1337
850.996887,1347
851.114746,1312
851.232544,1343
851.350403,1336
851.468262,1387
851.58606,1367
851.703979,1367
851.821777,1332
851.939636,1355
852.057434,1338
852.175232,1341
852.293091,1350
852.410889,1374
852.528687,1412
852.646545,1363
852.764343,1332
852.88208,1360
852.999939,1407
853.117676,1364
853.235535,1395
853.353271,1375
853.471069,1384
853.588928,1397
853.706604,1372
853.824402,1398
853.9422,1358
854.059998,1391
854.177734,1343
854.295532,1392
854.413269,1340
854.531006,1416
854.648804,1401
854.766541,1355
854.884277,1390
855.002014,1383
855.119751,1375
855.237549,1401
855.355225,1405
855.473022,1392
855.590698,1395
855.708435,1393
855.826172,1385
855.943848,1373
856.061646,1390
856.179321,1391
856.296997,1387
856.414795,1383
856.53241,1414
856.650085,1419
856.767822,1373
856.885559,1386
857.003174,1452
857.120911,1361
857.238586,1424
857.356201,1406
857.473938,1418
857.591614,1395
857.709351,1436
857.826965,1373
857.944641,1430
858.062317,1405
858.179993,1400
858.297668,1382
858.415283,1412
858.532959,1397
858.650574,1401
858.768188,1405
858.885803,1415
859.003479,1394
859.121094,1409
859.23877,1403
859.356384,1394
859.473999,1414
859.591675,1386
859.709229,1416
859.826843,1413
859.944458,1372
860.062012,1383
860.179626,1324
860.297302,1393
860.414856,1407
860.532471,1385
860.650024,1411
860.767639,1361
860.885193,1412
861.002808,1395
861.120361,1404
861.237976,1395
861.35553,1400
861.473022,1367
861.590698,1383
861.708191,1395
861.825745,1377
861.943298,1405
862.060852,1380
862.178406,1390
862.295959,1377
862.413513,1390
862.531006,1346
862.64856,1402
862.766113,1409
862.883667,1394
863.00116,1360
863.118713,1407
863.236206,1404
863.353699,1391
863.471252,1395
863.588745,1426
863.706177,1379
863.82373,1425
863.941162,1429
864.058716,1400
864.176208,1432
864.29364,1393
864.411194,1407
864.528687,1398
864.646118,1402
864.763611,1402
864.881042,1454
864.998535,1404
865.116028,1432
865.233459,1419
865.350891,1376
865.468384,1414
865.585754,1461
865.703308,1402
865.820679,1453
865.938171,1413
866.055542,1432
866.173035,1418
866.290466,1394
866.407837,1418
866.52533,1424
866.6427,1411
866.760071,1435
866.877563,1422
866.994934,1406
867.112305,1429
867.229736,1427
867.347107,1421
867.464539,1435
867.58197,1460
867.699341,1438
867.81665,1428
867.934082,1422
868.051453,1441
868.168823,1425
868.286194,1441
868.403564,1434
868.520935,1407
868.638306,1411
868.755676,1451
868.872986,1411
868.990295,1448
869.107727,1431
869.225037,1426
869.342346,1401
869.459717,1475
869.577026,1462
869.694336,1434
869.811707,1437
869.929016,1404
870.046326,1458
870.163635,1443
870.280945,1490
870.398254,1438
870.515564,1413
870.632812,1463
870.750183,1492
870.867432,1431
870.984741,1424
871.102051,1432
871.219299,1429
871.336609,1434
871.453918,1454
871.571106,1453
871.688416,1435
871.805664,1418
871.922852,1460
872.040222,1449
872.157471,1451
872.274719,1458
872.391968,1416
872.509155,1405
872.626465,1393
872.743652,1439
872.860962,1426
872.978149,1394
873.095337,1439
873.212646,1449
873.329834,1410
873.44696,1410
873.564209,1478
873.681396,1416
873.798645,1440
873.915894,1454
874.03302,1413
874.150208,1426
874.267456,1421
874.384583,1455
874.501831,1417
874.618958,1432
874.736145,1465
874.853333,1420
874.970459,1430
875.087646,1439
875.204834,1454
875.32196,1428
875.439148,1421
875.556274,1434
875.673401,1485
875.790527,1460
875.907715,1446
876.024841,1441
876.141968,1451
876.259094,1443
876.376282,1438
876.493347,1453
876.610474,1429
876.7276,1451
876.844727,1480
876.961853,1428
877.078918,1475
877.195984,1438
877.313171,1457
877.430237,1439
877.547302,1474
877.664368,1480
877.781433,1459
877.898499,1477
878.015625,1449
878.13269,1403
878.249695,1505
878.366821,1426
878.483887,1490
878.600952,1434
878.717957,1472
878.834961,1455
878.952087,1481
879.069092,1450
879.186157,1444
879.303162,1447
879.420227,1466
879.537231,1473
879.654236,1457
879.77124,1455
879.888306,1468
880.005249,1461
880.122314,1432
880.239319,1460
880.356323,1443
880.473328,1453
880.590271,1456
880.707275,1471
880.824341,1427
880.941284,1498
881.058228,1429
881.175232,1455
881.292236,1512
881.40918,1464
881.526123,1462
881.643066,1487
881.760071,1470
881.877014,1448
881.993958,1469
882.11084,1469
882.227783,1450
882.344727,1470
882.46167,1425
882.578613,1452
882.695618,1513
882.812439,1490
882.929382,1488
883.046326,1442
883.163208,1505
883.280151,1491
883.397034,1437
883.513916,1459
883.630798,1454
883.747742,1484
883.864563,1471
883.981506,1466
884.098389,1444
884.21521,1450
884.332153,1461
884.448975,1479
884.565796,1462
884.682678,1499
884.7995,1505
884.916443,1518
885.033264,1479
885.150085,1495
885.266968,1508
885.383789,1500
885.500671,1461
885.617493,1500
885.734314,1502
885.851196,1461
885.967896,1522
886.084717,1473
886.201599,1449
886.318359,1537
886.435181,1475
886.552002,1516
886.668762,1510
886.785645,1481
886.902344,1541
887.019165,1459
887.135925,1517
887.252747,1474
887.369446,1488
887.486267,1508
887.603027,1465
887.719788,1501
887.836548,1477
887.953247,1495
888.070068,1499
888.186829,1475
888.303528,1492
888.420288,1546
888.536987,1477
888.653687,1485
888.770447,1508
888.887146,1510
889.003967,1459
889.120667,1494
889.237305,1521
889.354065,1508
889.470703,1489
889.587463,1469
889.704163,1495
889.820862,1526
889.937561,1522
890.054199,1526
890.170837,1577
890.287598,1500
890.404236,1528
890.520874,1491
890.637634,1528
890.754211,1503
890.87085,1528
890.987549,1542
891.104187,1553
891.220886,1534
891.337463,1509
891.454102,1501
891.57074,1498
891.687378,1548
891.804077,1498
891.920654,1537
892.037231,1503
892.15387,1566
892.270447,1526
892.387085,1529
892.503723,1529
892.6203,1534
892.736877,1510
892.853516,1527
892.970032,1531
893.08667,1506
893.203186,1533
893.319763,1529
893.43634,1532
893.552917,1519
893.669556,1518
893.786011,1455
893.902588,1537
894.019165,1537
894.135681,1542
894.252197,1572
894.368835,1537
894.485291,1532
894.601868,1554
894.718384,1535
894.8349,1522
894.951355,1580
895.067932,1555
895.184448,1569
895.300964,1532
895.417419,1557
895.533936,1539
895.650452,1557
895.766907,1542
895.883423,1577
895.999878,1543
896.116333,1580
896.232849,1578
896.349304,1596
896.465759,1564
896.582214,1566
896.698669,1570
896.815125,1544
896.931641,1532
897.048035,1544
897.164551,1538
897.280884,1539
897.397339,1544
897.513794,1551
897.630249,1556
897.746582,1584
897.863098,1569
897.979431,1574
898.095886,1587
898.212341,1580
898.328674,1584
898.445129,1620
898.561462,1551
898.677795,1556
898.794312,1566
898.910645,1542
899.026978,1569
899.143433,1597
899.259766,1575
899.37616,1533
899.492493,1568
899.608765,1612
899.725159,1588
899.841553,1559
899.957947,1536
900.07428,1538
900.190552,1571
900.306946,1566
900.423157,1572
900.53949,1583
900.655884,1588
900.772156,1630
900.888489,1595
901.004822,1625
901.121033,1550
901.237366,1544
901.353699,1537
901.46991,1619
901.586304,1581
901.702515,1581
901.818787,1538
901.93512,1531
902.051331,1600
902.167603,1536
902.283875,1587
902.400085,1588
902.516418,1641
902.632629,1604
902.74884,1594
902.865112,1626
902.981384,1601
903.097595,1584
903.213867,1574
903.330017,1614
903.446289,1610
903.5625,1602
903.67865,1585
903.794922,1594
903.911072,1597
904.027344,1591
904.143494,1609
904.259705,1565
904.375916,1584
904.492065,1579
904.608215,1635
904.724426,1606
904.840576,1601
904.956726,1607
905.072876,1651
905.189087,1568
905.305176,1564
905.421387,1544
905.537537,1588
905.653687,1588
905.769775,1600
905.885925,1615
906.002014,1620
906.118164,1598
906.234314,1611
906.350403,1567
906.466492,1578
906.582642,1590
906.69873,1615
906.814758,1571
906.930908,1608
907.046936,1595
907.163086,1598
907.279175,1591
907.395264,1609
907.511353,1574
907.62738,1584
907.743408,1585
907.859497,1623
907.975525,1583
908.091553,1615
908.207703,1610
908.32373,1564
908.439758,1611
908.555786,1624
908.671814,1613
908.787842,1595
908.90387,1642
909.019775,1618
909.135864,1564
909.251892,1578
909.367859,1623
909.483826,1618
909.599854,1601
909.715881,1616
909.831848,1650
909.947815,1603
910.063782,1643
910.179749,1586
910.295776,1697
910.411743,1577
910.527649,1672
910.643616,1629
910.759583,1625
910.875488,1600
910.991455,1675
911.107361,1570
911.223267,1656
911.339294,1593
911.4552,1588
911.571106,1576
911.687073,1648
911.802979,1594
911.918823,1596
912.034729,1588
912.150635,1607
912.266602,1654
912.382446,1616
912.498352,1622
912.614197,1599
912.730103,1634
912.846008,1579
