792.44574,2120
792.56488,2129
792.68396,2137
792.80304,2115
792.92218,2084
793.041199,1990
793.160339,2063
793.279419,2047
793.398499,2011
793.517578,1998
793.636658,1966
793.755737,1983
793.874817,2002
793.993896,2009
794.112976,2013
794.232056,1991
794.351074,1938
794.470215,1974
794.589233,1973
794.708313,1941
794.827393,1951
794.946411,1940
795.065552,1950
795.18457,1971
795.303589,1969
795.422668,1895
795.541687,1906
795.660767,1870
795.779846,1895
795.898865,1946
796.017883,1939
796.136963,1857
796.255981,1905
796.375061,1914
796.49408,1889
796.613037,1927
796.732117,1912
796.851135,1888
796.970154,1860
797.089233,1882
797.208191,1835
797.327271,1871
797.446228,1861
797.565186,1887
797.684265,1898
797.803223,1874
797.922241,1876
798.04126,1883
798.160278,1856
798.279297,1872
798.398315,1855
798.517273,1879
798.636292,1844
798.75531,1908
798.874268,1847
798.993286,1876
799.112244,1889
799.231323,1912
799.350281,1921
799.469238,1852
799.588257,1819
799.707153,1888
799.826111,1894
799.945129,1917
800.064087,1883
800.183044,1852
800.302063,1863
800.421021,1930
800.539978,1893
800.658936,1895
800.777893,1893
800.896912,1902
801.015747,1844
801.134705,1881
801.253723,1903
801.37262,1896
801.491638,1943
801.610535,1923
801.729492,1938
801.84845,1861
801.967407,1917
802.086243,1944
802.205261,1926
802.324158,1890
802.443115,1906
802.562073,1894
802.680969,1969
802.799927,1912
802.918762,1961
803.037659,1927
803.156677,1925
803.275574,1963
803.39447,1954
803.513428,1921
803.632263,1965
803.751221,1970
803.870117,2003
803.989014,1992
804.107971,2012
804.226746,1969
804.345642,2016
804.4646,1994
804.583496,1993
804.702393,2013
804.821228,1975
804.940125,1963
805.059021,2014
805.177917,2021
805.296814,1948
805.415649,1999
805.534546,2016
805.653442,2026
805.772278,1999
805.891113,2073
806.01001,2018
806.128906,2075
806.247742,2060
806.366577,2073
806.485413,2062
806.604309,2010
806.723145,2014
806.84198,2068
806.960876,2060
807.079712,2075
807.198486,2049
807.317383,2056
807.436218,2031
807.554993,2093
807.673889,2088
807.792725,2064
807.91156,2107
808.030396,2045
808.14917,2031
808.268005,2022
808.386841,2097
808.505676,2153
808.624451,2073
808.743286,2072
808.862122,2077
808.980896,2091
809.099731,2127
809.218506,2128
809.337341,2071
809.456116,2074
809.57489,2136
809.693726,2072
809.8125,2146
809.931274,2128
810.050049,2084
810.168884,2155
810.287659,2152
810.406372,2142
810.525269,2152
810.643982,2124
810.762756,2178
810.881531,2096
811.000305,2094
811.11908,2170
811.237854,2130
811.356567,2170
811.475403,2136
811.594116,2162
811.71283,2123
811.831604,2127
811.950378,2104
812.069153,2126
812.187927,2110
812.30658,2122
812.425415,2164
812.544128,2192
812.662781,2141
812.781616,2154
812.900269,2125
813.019043,2145
813.137756,2157
813.256531,2175
813.375244,2141
813.493896,2138
813.612671,2144
813.731384,2090
813.850037,2157
813.96875,2160
814.087524,2095
814.206238,2112
814.324951,2117
814.443604,2062
814.562256,2110
814.68103,2156
814.799683,2095
814.918335,2091
815.037109,2091
815.155762,2086
815.274475,2118
815.393188,2108
815.511841,2090
815.630554,2079
815.749146,2083
815.867859,2064
815.986572,2073
816.105164,2064
816.223877,2064
816.342529,2039
816.461182,2055
816.579895,2078
816.698486,2028
816.817139,2060
816.935791,2099
817.054504,2039
817.173096,2024
817.291748,2039
817.4104,2044
817.529053,1969
817.647644,1986
817.766235,1923
817.884949,1888
818.00354,1837
818.122192,1824
818.240845,1803
818.359436,1784
818.478088,1738
818.59668,1700
818.715271,1713
818.833923,1682
818.952515,1645
819.071106,1633
819.189758,1594
819.30835,1585
819.426941,1599
819.545532,1569
819.664124,1582
819.782715,1542
819.901306,1522
820.019897,1535
820.138489,1497
820.25708,1505
820.375671,1531
820.494202,1503
820.612732,1479
820.731384,1504
820.849915,1493
820.968506,1481
821.087097,1466
821.205627,1468
821.324158,1412
821.442749,1481
821.561279,1434
821.679871,1441
821.798401,1446
821.916931,1464
822.035461,1428
822.154053,1499
822.272583,1440
822.391174,1418
822.509583,1430
822.628174,1411
822.746704,1428
822.865234,1413
822.983765,1434
823.102295,1467
823.220825,1433
823.339294,1416
823.457825,1444
823.576355,1428
823.694824,1414
823.813354,1449
823.931885,1470
824.050354,1460
824.168884,1458
824.287354,1486
824.405823,1468
824.524353,1464
824.642822,1461
824.761353,1492
824.879822,1439
824.998291,1461
825.116699,1483
825.235291,1411
825.353699,1499
825.472168,1397
825.590637,1439
825.709106,1428
825.827576,1369
825.946045,1376
826.064453,1441
826.182983,1375
826.301392,1382
826.4198,1388
826.53833,1355
826.656738,1388
826.775208,1371
826.893677,1393
827.012024,1368
827.130493,1367
827.248962,1352
827.36731,1386
827.485779,1368
827.604248,1376
827.722595,1323
827.841064,1318
827.959412,1334
828.077942,1342
828.196289,1339
828.314636,1321
828.433105,1354
828.551514,1339
828.669861,1342
828.78833,1317
828.906677,1345
829.025085,1345
829.143433,1341
829.261841,1341
829.38031,1342
829.498657,1338
829.617004,1360
829.735413,1327
829.85376,1297
829.972107,1311
830.090515,1328
830.208862,1328
830.327209,1345
830.445557,1320
830.563904,1321
830.682312,1304
830.800659,1328
830.919006,1312
831.037354,1307
831.155701,1326
831.274048,1314
831.392395,1304
831.51062,1325
831.629028,1337
831.747314,1298
831.865662,1304
831.984009,1330
832.102356,1342
832.220642,1295
832.338928,1287
832.457275,1316
832.575623,1272
832.693909,1312
832.812134,1289
832.930481,1313
833.048828,1315
833.167114,1279
833.2854,1331
833.403687,1330
833.521973,1350
833.640259,1298
833.758545,1310
833.876831,1356
833.995056,1344
834.113281,1326
834.231628,1314
834.349915,1311
834.468201,1317
834.586426,1340
834.704651,1335
834.822998,1301
834.941162,1347
835.059448,1320
835.177673,1345
835.295959,1305
835.414246,1338
835.53241,1336
835.650635,1323
835.768921,1329
835.887146,1327
836.005371,1362
836.123596,1326
836.241821,1337
836.360046,1374
836.478271,1351
836.596497,1388
836.714722,1382
836.832886,1405
836.95105,1382
837.069336,1392
837.1875,1402
837.305725,1394
837.423889,1398
837.542053,1415
837.660339,1415
837.778503,1398
837.896667,1413
838.014832,1396
838.132996,1389
838.25116,1400
838.369385,1394
838.487488,1424
838.605713,1382
838.723877,1431
838.84198,1353
838.960205,1392
839.078308,1389
839.196472,1334
839.314636,1401
839.4328,1350
839.550964,1421
839.669067,1358
839.787231,1374
839.905396,1365
840.023499,1394
840.141602,1388
840.259766,1370
840.377869,1392
840.495972,1373
840.614136,1363
840.732239,1368
840.850342,1389
840.968445,1348
841.086548,1330
841.204651,1296
841.322754,1363
841.440918,1329
841.55896,1356
841.677002,1359
841.795166,1321
841.913208,1326
842.031311,1331
842.149353,1296
842.267456,1306
842.385498,1278
842.503601,1286
842.621643,1290
842.739746,1277
842.857788,1295
842.97583,1315
843.093933,1336
843.211975,1310
843.330017,1282
843.44812,1291
843.566101,1321
843.684204,1290
843.802246,1294
843.920227,1315
844.038269,1291
844.156311,1319
844.274292,1306
844.392395,1275
844.510376,1336
844.628357,1313
844.74646,1277
844.864441,1306
844.982422,1277
845.100403,1341
845.218384,1296
845.336426,1276
845.454468,1328
845.572449,1305
845.69043,1294
845.808411,1274
845.926453,1272
846.044373,1276
846.162354,1275
846.280396,1257
846.398315,1286
846.516296,1283
846.634216,1248
846.752197,1303
846.870178,1279
846.988098,1292
847.106079,1278
847.22406,1290
847.34198,1307
847.4599,1306
847.577881,1261
847.695801,1249
847.813782,1307
847.931641,1315
848.049561,1268
848.167603,1265
848.285461,1247
848.403381,1324
848.521362,1255
848.639221,1263
848.75708,1285
848.875,1272
848.99292,1283
849.110901,1304
849.22876,1295
849.34668,1273
849.464539,1306
849.582458,1303
849.700317,1289
849.818176,1272
849.936096,1306
850.053955,1261
850.171875,1284
850.289673,1333
850.407593,1278
850.525452,1316
850.643311,1281
850.761169,1275
850.878967,1276
850.996887,1274
851.114746,1275
851.232544,1265
851.350403,1269
851.468262,1304
851.58606,1286
851.703979,1271
851.821777,1267
851.939636,1284
852.057434,1252
852.175232,1323
852.293091,1271
852.410889,1315
852.528687,1326
852.646545,1295
852.764343,1309
852.88208,1289
852.999939,1329
853.117676,1283
853.235535,1325
853.353271,1294
853.471069,1318
853.588928,1298
853.706604,1344
853.824402,1308
853.9422,1303
854.059998,1286
854.177734,1337
854.295532,1294
854.413269,1367
854.531006,1326
854.648804,1264
854.766541,1349
854.884277,1335
855.002014,1321
855.119751,1378
855.237549,1342
855.355225,1309
855.473022,1333
855.590698,1320
855.708435,1347
855.826172,1319
855.943848,1330
856.061646,1377
856.179321,1356
856.296997,1351
856.414795,1322
856.53241,1357
856.650085,1323
856.767822,1363
856.885559,1316
857.003174,1363
857.120911,1296
857.238586,1329
857.356201,1352
857.473938,1345
857.591614,1305
857.709351,1311
857.826965,1321
857.944641,1323
858.062317,1339
858.179993,1356
858.297668,1341
858.415283,1310
858.532959,1307
858.650574,1344
858.768188,1308
858.885803,1340
859.003479,1318
859.121094,1319
859.23877,1343
859.356384,1279
859.473999,1342
859.591675,1324
859.709229,1315
859.826843,1297
859.944458,1293
860.062012,1278
860.179626,1303
860.297302,1304
860.414856,1315
860.532471,1318
860.650024,1334
860.767639,1317
860.885193,1307
861.002808,1293
861.120361,1325
861.237976,1293
861.35553,1321
861.473022,1348
861.590698,1315
861.708191,1321
861.825745,1322
861.943298,1330
862.060852,1337
862.178406,1337
862.295959,1300
862.413513,1311
862.531006,1294
862.64856,1284
862.766113,1332
862.883667,1306
863.00116,1289
863.118713,1334
863.236206,1312
863.353699,1355
863.471252,1303
863.588745,1318
863.706177,1282
863.82373,1306
863.941162,1328
864.058716,1319
864.176208,1344
864.29364,1327
864.411194,1360
864.528687,1338
864.646118,1319
864.763611,1333
864.881042,1340
864.998535,1336
865.116028,1306
865.233459,1374
865.350891,1347
865.468384,1313
865.585754,1314
865.703308,1362
865.820679,1335
865.938171,1360
866.055542,1337
866.173035,1332
866.290466,1342
866.407837,1317
866.52533,1367
866.6427,1359
866.760071,1348
866.877563,1303
866.994934,1349
867.112305,1335
867.229736,1350
867.347107,1339
867.464539,1329
867.58197,1350
867.699341,1373
867.81665,1348
867.934082,1338
868.051453,1374
868.168823,1349
868.286194,1382
868.403564,1321
868.520935,1355
868.638306,1378
868.755676,1314
868.872986,1366
868.990295,1352
869.107727,1330
869.225037,1361
869.342346,1323
869.459717,1323
869.577026,1331
869.694336,1331
869.811707,1343
869.929016,1353
870.046326,1358
870.163635,1337
870.280945,1348
870.398254,1342
870.515564,1363
870.632812,1286
870.750183,1345
870.867432,1350
870.984741,1319
871.102051,1300
871.219299,1349
871.336609,1343
871.453918,1324
871.571106,1391
871.688416,1343
871.805664,1336
871.922852,1331
872.040222,1345
872.157471,1322
872.274719,1342
872.391968,1331
872.509155,1310
872.626465,1333
872.743652,1354
872.860962,1354
872.978149,1315
873.095337,1373
873.212646,1312
873.329834,1326
873.44696,1328
873.564209,1353
873.681396,1351
873.798645,1352
873.915894,1392
874.03302,1336
874.150208,1348
874.267456,1320
874.384583,1346
874.501831,1352
874.618958,1315
874.736145,1349
874.853333,1357
874.970459,1340
875.087646,1331
875.204834,1327
875.32196,1322
875.439148,1323
875.556274,1373
875.673401,1339
875.790527,1319
875.907715,1345
876.024841,1324
876.141968,1372
876.259094,1294
876.376282,1329
876.493347,1346
876.610474,1325
876.7276,1371
876.844727,1359
876.961853,1365
877.078918,1371
877.195984,1324
877.313171,1363
877.430237,1349
877.547302,1358
877.664368,1354
877.781433,1359
877.898499,1366
878.015625,1333
878.13269,1331
878.249695,1397
878.366821,1362
878.483887,1355
878.600952,1341
878.717957,1288
878.834961,1322
878.952087,1348
879.069092,1351
879.186157,1372
879.303162,1332
879.420227,1358
879.537231,1324
879.654236,1364
879.77124,1339
879.888306,1373
880.005249,1361
880.122314,1361
880.239319,1370
880.356323,1358
880.473328,1348
880.590271,1378
880.707275,1352
880.824341,1371
880.941284,1313
881.058228,1385
881.175232,1365
881.292236,1367
881.40918,1316
881.526123,1350
881.643066,1351
881.760071,1346
881.877014,1325
881.993958,1325
882.11084,1357
882.227783,1335
882.344727,1354
882.46167,1373
882.578613,1375
882.695618,1368
882.812439,1345
882.929382,1369
883.046326,1389
883.163208,1341
883.280151,1359
883.397034,1353
883.513916,1393
883.630798,1379
883.747742,1372
883.864563,1408
883.981506,1377
884.098389,1382
884.21521,1360
884.332153,1361
884.448975,1396
884.565796,1347
884.682678,1339
884.7995,1403
884.916443,1376
885.033264,1348
885.150085,1358
885.266968,1365
885.383789,1346
885.500671,1364
885.617493,1391
885.734314,1418
885.851196,1372
885.967896,1361
886.084717,1380
886.201599,1384
886.318359,1401
886.435181,1378
886.552002,1354
886.668762,1390
886.785645,1357
886.902344,1379
887.019165,1383
887.135925,1372
887.252747,1374
887.369446,1375
887.486267,1374
887.603027,1428
887.719788,1413
887.836548,1386
887.953247,1412
888.070068,1397
888.186829,1360
888.303528,1390
888.420288,1392
888.536987,1379
888.653687,1391
888.770447,1374
888.887146,1379
889.003967,1414
889.120667,1343
889.237305,1381
889.354065,1387
889.470703,1390
889.587463,1403
889.704163,1392
889.820862,1359
889.937561,1373
890.054199,1397
890.170837,1380
890.287598,1394
890.404236,1378
890.520874,1401
890.637634,1436
890.754211,1428
890.87085,1431
890.987549,1394
891.104187,1418
891.220886,1415
891.337463,1401
891.454102,1404
891.57074,1434
891.687378,1423
891.804077,1416
891.920654,1373
892.037231,1387
892.15387,1425
892.270447,1407
892.387085,1445
892.503723,1398
892.6203,1406
892.736877,1414
892.853516,1421
892.970032,1436
893.08667,1372
893.203186,1430
893.319763,1399
893.43634,1384
893.552917,1422
893.669556,1416
893.786011,1439
893.902588,1452
894.019165,1400
894.135681,1400
894.252197,1423
894.368835,1411
894.485291,1440
894.601868,1444
894.718384,1367
894.8349,1424
894.951355,1428
895.067932,1386
895.184448,1399
895.300964,1401
895.417419,1429
895.533936,1454
895.650452,1443
895.766907,1436
895.883423,1431
895.999878,1384
896.116333,1420
896.232849,1415
896.349304,1417
896.465759,1393
896.582214,1462
896.698669,1412
896.815125,1449
896.931641,1423
897.048035,1454
897.164551,1452
897.280884,1430
897.397339,1450
897.513794,1415
897.630249,1477
897.746582,1450
897.863098,1438
897.979431,1428
898.095886,1397
898.212341,1429
898.328674,1418
898.445129,1474
898.561462,1402
898.677795,1422
898.794312,1470
898.910645,1440
899.026978,1427
899.143433,1405
899.259766,1445
899.37616,1423
899.492493,1488
899.608765,1402
899.725159,1439
899.841553,1423
899.957947,1468
900.07428,1435
900.190552,1455
900.306946,1403
900.423157,1433
900.53949,1442
900.655884,1418
900.772156,1463
900.888489,1440
901.004822,1417
901.121033,1451
901.237366,1405
901.353699,1444
901.46991,1402
901.586304,1422
901.702515,1468
901.818787,1405
901.93512,1425
902.051331,1442
902.167603,1439
902.283875,1415
902.400085,1474
902.516418,1444
902.632629,1405
902.74884,1433
902.865112,1431
902.981384,1475
903.097595,1456
903.213867,1439
903.330017,1469
903.446289,1477
903.5625,1467
903.67865,1412
903.794922,1468
903.911072,1459
904.027344,1478
904.143494,1496
904.259705,1429
904.375916,1450
904.492065,1409
904.608215,1506
904.724426,1432
904.840576,1436
904.956726,1432
905.072876,1452
905.189087,1426
905.305176,1467
905.421387,1463
905.537537,1435
905.653687,1457
905.769775,1449
905.885925,1464
906.002014,1486
906.118164,1453
906.234314,1421
906.350403,1432
906.466492,1411
906.582642,1456
906.69873,1444
906.814758,1479
906.930908,1461
907.046936,1421
907.163086,1451
907.279175,1450
907.395264,1447
907.511353,1487
907.62738,1467
907.743408,1490
907.859497,1464
907.975525,1506
908.091553,1464
908.207703,1460
908.32373,1452
908.439758,1467
908.555786,1471
908.671814,1458
908.787842,1459
908.90387,1493
909.019775,1454
909.135864,1430
909.251892,1449
909.367859,1442
909.483826,1457
909.599854,1444
909.715881,1434
909.831848,1448
909.947815,1478
910.063782,1438
910.179749,1444
910.295776,1452
910.411743,1452
910.527649,1491
910.643616,1467
910.759583,1471
910.875488,1492
910.991455,1466
911.107361,1481
911.223267,1486
911.339294,1429
911.4552,1467
911.571106,1435
911.687073,1477
911.802979,1500
911.918823,1476
912.034729,1450
912.150635,1514
912.266602,1446
912.382446,1481
912.498352,1447
912.614197,1464
912.730103,1487
912.846008,1446
792.44574,2199
792.56488,2175
792.68396,2101
792.80304,2197
792.92218,2111
793.041199,2051
793.160339,2026
793.279419,2047
793.398499,2071
793.517578,2025
793.636658,1994
793.755737,2088
793.874817,2036
793.993896,2121
794.112976,2015
794.232056,2031
794.351074,2014
794.470215,2016
794.589233,2005
794.708313,1992
794.827393,1956
794.946411,1993
795.065552,1951
795.18457,1967
795.303589,1973
795.422668,1957
795.541687,1967
795.660767,2010
795.779846,1959
795.898865,1971
796.017883,1968
796.136963,1892
796.255981,1937
796.375061,1913
796.49408,1957
796.613037,1937
796.732117,1926
796.851135,1909
796.970154,1912
797.089233,1943
797.208191,1913
797.327271,1962
797.446228,1884
797.565186,1961
797.684265,1936
797.803223,1913
797.922241,1906
798.04126,1913
798.160278,1876
798.279297,1913
798.398315,1897
798.517273,1914
798.636292,1916
798.75531,1927
798.874268,1898
798.993286,1937
799.112244,1928
799.231323,1899
799.350281,1963
799.469238,1923
799.588257,1914
799.707153,1887
799.826111,1921
799.945129,1907
800.064087,1908
800.183044,1933
800.302063,1931
800.421021,1940
800.539978,1920
800.658936,1999
800.777893,1950
800.896912,1922
801.015747,1926
801.134705,1915
801.253723,1890
801.37262,1952
801.491638,1946
801.610535,1939
801.729492,1958
801.84845,1941
801.967407,1974
802.086243,1941
802.205261,2000
802.324158,1961
802.443115,1961
802.562073,1959
802.680969,1924
802.799927,1969
802.918762,1988
803.037659,2012
803.156677,2002
803.275574,1990
803.39447,1989
803.513428,2000
803.632263,1969
803.751221,1960
803.870117,2026
803.989014,2039
804.107971,1947
804.226746,1985
804.345642,2056
804.4646,2051
804.583496,1979
804.702393,2107
804.821228,1994
804.940125,2055
805.059021,2008
805.177917,2052
805.296814,2041
805.415649,2065
805.534546,2091
805.653442,2047
805.772278,2055
805.891113,2100
806.01001,2066
806.128906,2035
806.247742,2093
806.366577,2144
806.485413,2061
806.604309,2122
806.723145,2078
806.84198,2089
806.960876,2070
807.079712,2040
807.198486,2127
807.317383,2037
807.436218,2035
807.554993,2058
807.673889,2050
807.792725,2057
807.91156,2106
808.030396,2125
808.14917,2113
808.268005,2073
808.386841,2142
808.505676,2131
808.624451,2148
808.743286,2165
808.862122,2154
808.980896,2174
809.099731,2123
809.218506,2114
809.337341,2115
809.456116,2148
809.57489,2170
809.693726,2094
809.8125,2172
809.931274,2173
810.050049,2157
810.168884,2156
810.287659,2117
810.406372,2165
810.525269,2186
810.643982,2130
810.762756,2223
810.881531,2167
811.000305,2181
811.11908,2186
811.237854,2134
811.356567,2180
811.475403,2181
811.594116,2134
811.71283,2114
811.831604,2155
811.950378,2168
812.069153,2157
812.187927,2141
812.30658,2260
812.425415,2197
812.544128,2192
812.662781,2250
812.781616,2128
812.900269,2142
813.019043,2210
813.137756,2228
813.256531,2160
813.375244,2143
813.493896,2140
813.612671,2230
813.731384,2154
813.850037,2183
813.96875,2180
814.087524,2156
814.206238,2174
814.324951,2182
814.443604,2160
814.562256,2109
814.68103,2160
814.799683,2116
814.918335,2165
815.037109,2111
815.155762,2129
815.274475,2125
815.393188,2103
815.511841,2134
815.630554,2125
815.749146,2113
815.867859,2054
815.986572,2057
816.105164,2019
816.223877,2027
816.342529,2068
816.461182,2078
816.579895,2120
816.698486,2071
816.817139,2133
816.935791,2094
817.054504,2102
817.173096,2140
817.291748,2068
817.4104,2082
817.529053,2045
817.647644,2001
817.766235,1954
817.884949,1927
818.00354,1879
818.122192,1838
818.240845,1869
818.359436,1813
818.478088,1765
818.59668,1691
818.715271,1713
818.833923,1682
818.952515,1651
819.071106,1666
819.189758,1649
819.30835,1620
819.426941,1638
819.545532,1617
819.664124,1586
819.782715,1604
819.901306,1573
820.019897,1553
820.138489,1531
820.25708,1541
820.375671,1536
820.494202,1508
820.612732,1533
820.731384,1522
820.849915,1494
820.968506,1519
821.087097,1525
821.205627,1493
821.324158,1474
821.442749,1480
821.561279,1472
821.679871,1501
821.798401,1472
821.916931,1464
822.035461,1487
822.154053,1461
822.272583,1463
822.391174,1458
822.509583,1449
822.628174,1430
822.746704,1483
822.865234,1486
822.983765,1466
823.102295,1456
823.220825,1481
823.339294,1458
823.457825,1472
823.576355,1459
823.694824,1426
823.813354,1463
823.931885,1489
824.050354,1507
824.168884,1490
824.287354,1488
824.405823,1509
824.524353,1518
824.642822,1510
824.761353,1532
824.879822,1461
824.998291,1504
825.116699,1471
825.235291,1467
825.353699,1464
825.472168,1434
825.590637,1450
825.709106,1483
825.827576,1448
825.946045,1410
826.064453,1470
826.182983,1384
826.301392,1450
826.4198,1407
826.53833,1432
826.656738,1411
826.775208,1411
826.893677,1407
827.012024,1407
827.130493,1387
827.248962,1368
827.36731,1376
827.485779,1372
827.604248,1390
827.722595,1380
827.841064,1391
827.959412,1427
828.077942,1358
828.196289,1356
828.314636,1384
828.433105,1364
828.551514,1366
828.669861,1362
828.78833,1375
828.906677,1341
829.025085,1373
829.143433,1346
829.261841,1358
829.38031,1364
829.498657,1339
829.617004,1367
829.735413,1368
829.85376,1353
829.972107,1361
830.090515,1370
830.208862,1319
830.327209,1340
830.445557,1358
830.563904,1321
830.682312,1330
830.800659,1366
830.919006,1318
831.037354,1338
831.155701,1388
831.274048,1337
831.392395,1367
831.51062,1344
831.629028,1358
831.747314,1349
831.865662,1346
831.984009,1387
832.102356,1335
832.220642,1324
832.338928,1322
832.457275,1299
832.575623,1347
832.693909,1346
832.812134,1357
832.930481,1338
833.048828,1348
833.167114,1326
833.2854,1351
833.403687,1340
833.521973,1364
833.640259,1342
833.758545,1324
833.876831,1301
833.995056,1355
834.113281,1332
834.231628,1353
834.349915,1330
834.468201,1396
834.586426,1315
834.704651,1352
834.822998,1360
834.941162,1353
835.059448,1381
835.177673,1340
835.295959,1344
835.414246,1361
835.53241,1369
835.650635,1342
835.768921,1357
835.887146,1378
836.005371,1360
836.123596,1379
836.241821,1362
836.360046,1360
836.478271,1411
836.596497,1394
836.714722,1397
836.832886,1427
836.95105,1418
837.069336,1455
837.1875,1389
837.305725,1442
837.423889,1428
837.542053,1417
837.660339,1413
837.778503,1483
837.896667,1447
838.014832,1455
838.132996,1408
838.25116,1452
838.369385,1414
838.487488,1403
838.605713,1427
838.723877,1386
838.84198,1437
838.960205,1417
839.078308,1427
839.196472,1425
839.314636,1380
839.4328,1401
839.550964,1440
839.669067,1386
839.787231,1414
839.905396,1408
840.023499,1342
840.141602,1406
840.259766,1383
840.377869,1376
840.495972,1375
840.614136,1392
840.732239,1400
840.850342,1370
840.968445,1381
841.086548,1398
841.204651,1394
841.322754,1378
841.440918,1327
841.55896,1375
841.677002,1370
841.795166,1330
841.913208,1358
842.031311,1332
842.149353,1335
842.267456,1355
842.385498,1367
842.503601,1332
842.621643,1311
842.739746,1354
842.857788,1297
842.97583,1324
843.093933,1317
843.211975,1339
843.330017,1335
843.44812,1324
843.566101,1328
843.684204,1299
843.802246,1306
843.920227,1340
844.038269,1300
844.156311,1339
844.274292,1374
844.392395,1323
844.510376,1300
844.628357,1293
844.74646,1302
844.864441,1328
844.982422,1355
845.100403,1289
845.218384,1303
845.336426,1346
845.454468,1326
845.572449,1295
845.69043,1317
845.808411,1304
845.926453,1307
846.044373,1316
846.162354,1324
846.280396,1288
846.398315,1313
846.516296,1300
846.634216,1310
846.752197,1285
846.870178,1270
846.988098,1367
847.106079,1317
847.22406,1324
847.34198,1313
847.4599,1303
847.577881,1334
847.695801,1287
847.813782,1320
847.931641,1311
848.049561,1313
848.167603,1291
848.285461,1305
848.403381,1335
848.521362,1331
848.639221,1314
848.75708,1313
848.875,1320
848.99292,1358
849.110901,1301
849.22876,1331
849.34668,1267
849.464539,1299
849.582458,1308
849.700317,1281
849.818176,1318
849.936096,1306
850.053955,1288
850.171875,1311
850.289673,1320
850.407593,1314
850.525452,1290
850.643311,1321
850.761169,1309
850.878967,1307
850.996887,1337
851.114746,1279
851.232544,1303
851.350403,1284
851.468262,1294
851.58606,1303
851.703979,1326
851.821777,1330
851.939636,1336
852.057434,1326
852.175232,1317
852.293091,1294
852.410889,1328
852.528687,1369
852.646545,1324
852.764343,1316
852.88208,1339
852.999939,1310
853.117676,1380
853.235535,1315
853.353271,1338
853.471069,1348
853.588928,1343
853.706604,1320
853.824402,1330
853.9422,1325
854.059998,1306
854.177734,1318
854.295532,1327
854.413269,1376
854.531006,1328
854.648804,1332
854.766541,1351
854.884277,1344
855.002014,1370
855.119751,1356
855.237549,1320
855.355225,1365
855.473022,1366
855.590698,1366
855.708435,1378
855.826172,1347
855.943848,1364
856.061646,1347
856.179321,1349
856.296997,1365
856.414795,1372
856.53241,1354
856.650085,1409
856.767822,1335
856.885559,1413
857.003174,1313
857.120911,1352
857.238586,1367
857.356201,1375
857.473938,1363
857.591614,1334
857.709351,1392
857.826965,1380
857.944641,1372
858.062317,1349
858.179993,1366
858.297668,1356
858.415283,1317
858.532959,1379
858.650574,1342
858.768188,1339
858.885803,1328
859.003479,1340
859.121094,1357
859.23877,1324
859.356384,1388
859.473999,1339
859.591675,1332
859.709229,1358
859.826843,1358
859.944458,1346
860.062012,1347
860.179626,1328
860.297302,1353
860.414856,1349
860.532471,1355
860.650024,1348
860.767639,1317
860.885193,1333
861.002808,1361
861.120361,1283
861.237976,1336
861.35553,1376
861.473022,1322
861.590698,1302
861.708191,1360
861.825745,1297
861.943298,1346
862.060852,1324
862.178406,1316
862.295959,1324
862.413513,1337
862.531006,1344
862.64856,1368
862.766113,1330
862.883667,1348
863.00116,1351
863.118713,1373
863.236206,1351
863.353699,1352
863.471252,1354
863.588745,1325
863.706177,1383
863.82373,1335
863.941162,1304
864.058716,1381
864.176208,1346
864.29364,1335
864.411194,1385
864.528687,1354
864.646118,1373
864.763611,1339
864.881042,1342
864.998535,1356
865.116028,1392
865.233459,1359
865.350891,1355
865.468384,1353
865.585754,1353
865.703308,1384
865.820679,1351
865.938171,1356
866.055542,1347
866.173035,1392
866.290466,1368
866.407837,1363
866.52533,1368
866.6427,1338
866.760071,1402
866.877563,1330
866.994934,1377
867.112305,1388
867.229736,1362
867.347107,1341
867.464539,1363
867.58197,1375
867.699341,1373
867.81665,1388
867.934082,1336
868.051453,1375
868.168823,1391
868.286194,1400
868.403564,1343
868.520935,1358
868.638306,1395
868.755676,1329
868.872986,1383
868.990295,1356
869.107727,1356
869.225037,1363
869.342346,1367
869.459717,1409
869.577026,1372
869.694336,1369
869.811707,1332
869.929016,1348
870.046326,1364
870.163635,1388
870.280945,1364
870.398254,1357
870.515564,1359
870.632812,1371
870.750183,1332
870.867432,1367
870.984741,1339
871.102051,1397
871.219299,1339
871.336609,1350
871.453918,1385
871.571106,1371
871.688416,1315
871.805664,1364
871.922852,1360
872.040222,1340
872.157471,1395
872.274719,1369
872.391968,1386
872.509155,1330
872.626465,1356
872.743652,1336
872.860962,1352
872.978149,1355
873.095337,1362
873.212646,1343
873.329834,1365
873.44696,1400
873.564209,1361
873.681396,1378
873.798645,1388
873.915894,1330
874.03302,1393
874.150208,1375
874.267456,1371
874.384583,1396
874.501831,1354
874.618958,1372
874.736145,1361
874.853333,1324
874.970459,1401
875.087646,1380
875.204834,1332
875.32196,1328
875.439148,1421
875.556274,1357
875.673401,1364
875.790527,1366
875.907715,1385
876.024841,1368
876.141968,1393
876.259094,1349
876.376282,1384
876.493347,1379
876.610474,1371
876.7276,1362
876.844727,1326
876.961853,1361
877.078918,1333
877.195984,1382
877.313171,1322
877.430237,1370
877.547302,1386
877.664368,1368
877.781433,1361
877.898499,1384
878.015625,1364
878.13269,1387
878.249695,1387
878.366821,1344
878.483887,1375
878.600952,1376
878.717957,1370
878.834961,1371
878.952087,1412
879.069092,1399
879.186157,1362
879.303162,1363
879.420227,1397
879.537231,1408
879.654236,1384
879.77124,1391
879.888306,1396
880.005249,1372
880.122314,1381
880.239319,1343
880.356323,1410
880.473328,1395
880.590271,1354
880.707275,1407
880.824341,1374
880.941284,1405
881.058228,1428
881.175232,1391
881.292236,1375
881.40918,1403
881.526123,1380
881.643066,1416
881.760071,1364
881.877014,1402
881.993958,1423
882.11084,1386
882.227783,1390
882.344727,1375
882.46167,1423
882.578613,1382
882.695618,1350
882.812439,1363
882.929382,1393
883.046326,1371
883.163208,1402
883.280151,1407
883.397034,1389
883.513916,1400
883.630798,1373
883.747742,1397
883.864563,1402
883.981506,1375
884.098389,1386
884.21521,1378
884.332153,1415
884.448975,1386
884.565796,1391
884.682678,1419
884.7995,1411
884.916443,1409
885.033264,1385
885.150085,1413
885.266968,1408
885.383789,1415
885.500671,1402
885.617493,1406
885.734314,1355
885.851196,1368
885.967896,1392
886.084717,1443
886.201599,1374
886.318359,1450
886.435181,1380
886.552002,1415
886.668762,1445
886.785645,1408
886.902344,1375
887.019165,1431
887.135925,1447
887.252747,1424
887.369446,1390
887.486267,1389
887.603027,1401
887.719788,1415
887.836548,1387
887.953247,1401
888.070068,1446
888.186829,1447
888.303528,1439
888.420288,1439
888.536987,1456
888.653687,1437
888.770447,1388
888.887146,1425
889.003967,1406
889.120667,1416
889.237305,1442
889.354065,1426
889.470703,1433
889.587463,1435
889.704163,1401
889.820862,1449
889.937561,1443
890.054199,1449
890.170837,1425
890.287598,1412
890.404236,1394
890.520874,1450
890.637634,1416
890.754211,1402
890.87085,1433
890.987549,1450
891.104187,1444
891.220886,1437
891.337463,1419
891.454102,1460
891.57074,1450
891.687378,1431
891.804077,1427
891.920654,1436
892.037231,1420
892.15387,1447
892.270447,1434
892.387085,1444
892.503723,1430
892.6203,1444
892.736877,1466
892.853516,1433
892.970032,1467
893.08667,1458
893.203186,1413
893.319763,1433
893.43634,1495
893.552917,1458
893.669556,1432
893.786011,1448
893.902588,1453
894.019165,1453
894.135681,1445
894.252197,1440
894.368835,1446
894.485291,1441
894.601868,1438
894.718384,1476
894.8349,1462
894.951355,1456
895.067932,1454
895.184448,1478
895.300964,1457
895.417419,1439
895.533936,1433
895.650452,1442
895.766907,1452
895.883423,1491
895.999878,1438
896.116333,1469
896.232849,1414
896.349304,1488
896.465759,1454
896.582214,1414
896.698669,1450
896.815125,1443
896.931641,1450
897.048035,1452
897.164551,1474
897.280884,1520
897.397339,1470
897.513794,1431
897.630249,1471
897.746582,1489
897.863098,1472
897.979431,1462
898.095886,1465
898.212341,1452
898.328674,1466
898.445129,1455
898.561462,1484
898.677795,1465
898.794312,1458
898.910645,1464
899.026978,1461
899.143433,1474
899.259766,1468
899.37616,1443
899.492493,1439
899.608765,1448
899.725159,1471
899.841553,1456
899.957947,1467
900.07428,1469
900.190552,1465
900.306946,1406
900.423157,1494
900.53949,1457
900.655884,1469
900.772156,1493
900.888489,1438
901.004822,1461
901.121033,1459
901.237366,1405
901.353699,1468
901.46991,1440
901.586304,1440
901.702515,1416
901.818787,1458
901.93512,1467
902.051331,1461
902.167603,1482
902.283875,1477
902.400085,1490
902.516418,1491
902.632629,1479
902.74884,1460
902.865112,1458
902.981384,1492
903.097595,1480
903.213867,1473
903.330017,1498
903.446289,1450
903.5625,1471
903.67865,1487
903.794922,1480
903.911072,1467
904.027344,1450
904.143494,1516
904.259705,1488
904.375916,1466
904.492065,1490
904.608215,1458
904.724426,1469
904.840576,1507
904.956726,1471
905.072876,1508
905.189087,1472
905.305176,1542
905.421387,1501
905.537537,1479
905.653687,1468
905.769775,1471
905.885925,1490
906.002014,1470
906.118164,1410
906.234314,1509
906.350403,1462
906.466492,1517
906.582642,1474
906.69873,1509
906.814758,1504
906.930908,1474
907.046936,1528
907.163086,1433
907.279175,1428
907.395264,1498
907.511353,1485
907.62738,1528
907.743408,1476
907.859497,1465
907.975525,1507
908.091553,1495
908.207703,1477
908.32373,1472
908.439758,1478
908.555786,1462
908.671814,1500
908.787842,1505
908.90387,1499
909.019775,1481
909.135864,1530
909.251892,1525
909.367859,1512
909.483826,1502
909.599854,1522
909.715881,1527
909.831848,1481
909.947815,1517
910.063782,1464
910.179749,1486
910.295776,1527
910.411743,1501
910.527649,1521
910.643616,1551
910.759583,1509
910.875488,1496
910.991455,1475
911.107361,1481
911.223267,1472
911.339294,1542
911.4552,1462
911.571106,1462
911.687073,1505
911.802979,1526
911.918823,1512
912.034729,1478
912.150635,1491
912.266602,1510
912.382446,1517
912.498352,1495
912.614197,1452
912.730103,1530
912.846008,1505
792.44574,2124
792.56488,2182
792.68396,2175
792.80304,2156
792.92218,2073
793.041199,2080
793.160339,2119
793.279419,2145
793.398499,2108
793.517578,2069
793.636658,2019
793.755737,2068
793.874817,2067
793.993896,2006
794.112976,2045
794.232056,1982
794.351074,2014
794.470215,2079
794.589233,1991
794.708313,1973
794.827393,1965
794.946411,1984
795.065552,1989
795.18457,1972
795.303589,1990
795.422668,2031
795.541687,1989
795.660767,1962
795.779846,1916
795.898865,1965
796.017883,1980
796.136963,1953
796.255981,1910
796.375061,1955
796.49408,2021
796.613037,1910
796.732117,1970
796.851135,1909
796.970154,1909
797.089233,1913
797.208191,1945
797.327271,1944
797.446228,1873
797.565186,1953
797.684265,1913
797.803223,1942
797.922241,1884
798.04126,1940
798.160278,1926
798.279297,1917
798.398315,1943
798.517273,1910
798.636292,1940
798.75531,1926
798.874268,1921
798.993286,1917
799.112244,1867
799.231323,1912
799.350281,1926
799.469238,1923
799.588257,1878
799.707153,1954
799.826111,1883
799.945129,1940
800.064087,1986
800.183044,1963
800.302063,1958
800.421021,1966
800.539978,1894
800.658936,1948
800.777893,1897
800.896912,1923
801.015747,1938
801.134705,1921
801.253723,1974
801.37262,1938
801.491638,1922
801.610535,1931
801.729492,1980
801.84845,1968
801.967407,1999
802.086243,2015
802.205261,1960
802.324158,1973
802.443115,1956
802.562073,1972
802.680969,1941
802.799927,1975
802.918762,1944
803.037659,1970
803.156677,1962
803.275574,2002
803.39447,2027
803.513428,2041
803.632263,1962
803.751221,1965
803.870117,2010
803.989014,1994
804.107971,2001
804.226746,2099
804.345642,1980
804.4646,2044
804.583496,2037
804.702393,2055
804.821228,2004
804.940125,2010
805.059021,2052
805.177917,1978
805.296814,2087
805.415649,2095
805.534546,2056
805.653442,2080
805.772278,2062
805.891113,2124
806.01001,2046
806.128906,2086
806.247742,2069
806.366577,2033
806.485413,2120
806.604309,2071
806.723145,2096
806.84198,2067
806.960876,2095
807.079712,2063
807.198486,2049
807.317383,2097
807.436218,2107
807.554993,2079
807.673889,2154
807.792725,2119
807.91156,2130
808.030396,2124
808.14917,2162
808.268005,2097
808.386841,2132
808.505676,2094
808.624451,2100
808.743286,2125
808.862122,2174
808.980896,2131
809.099731,2131
809.218506,2114
809.337341,2162
809.456116,2110
809.57489,2127
809.693726,2120
809.8125,2135
809.931274,2087
810.050049,2152
810.168884,2168
810.287659,2176
810.406372,2171
810.525269,2228
810.643982,2195
810.762756,2186
810.881531,2215
811.000305,2192
811.11908,2153
811.237854,2127
811.356567,2119
811.475403,2236
811.594116,2153
811.71283,2151
811.831604,2197
811.950378,2175
812.069153,2193
812.187927,2189
812.30658,2216
812.425415,2245
812.544128,2139
812.662781,2181
812.781616,2186
812.900269,2165
813.019043,2207
813.137756,2210
813.256531,2213
813.375244,2138
813.493896,2232
813.612671,2180
813.731384,2201
813.850037,2181
813.96875,2192
814.087524,2202
814.206238,2178
814.324951,2164
814.443604,2138
814.562256,2184
814.68103,2176
814.799683,2151
814.918335,2193
815.037109,2154
815.155762,2216
815.274475,2175
815.393188,2131
815.511841,2139
815.630554,2032
815.749146,2050
815.867859,2072
815.986572,2050
816.105164,2055
816.223877,2110
816.342529,2067
816.461182,2118
816.579895,2035
816.698486,2115
816.817139,2122
816.935791,2136
817.054504,2058
817.173096,2131
817.291748,2127
817.4104,2046
817.529053,2022
817.647644,2009
817.766235,1945
817.884949,1928
818.00354,1875
818.122192,1860
818.240845,1829
818.359436,1791
818.478088,1797
818.59668,1733
818.715271,1725
818.833923,1725
818.952515,1700
819.071106,1645
819.189758,1664
819.30835,1648
819.426941,1621
819.545532,1627
819.664124,1569
819.782715,1575
819.901306,1619
820.019897,1533
820.138489,1577
820.25708,1582
820.375671,1539
820.494202,1558
820.612732,1511
820.731384,1510
820.849915,1501
820.968506,1553
821.087097,1507
821.205627,1526
821.324158,1505
821.442749,1490
821.561279,1484
821.679871,1526
821.798401,1511
821.916931,1531
822.035461,1504
822.154053,1467
822.272583,1461
822.391174,1500
822.509583,1485
822.628174,1491
822.746704,1441
822.865234,1432
822.983765,1525
823.102295,1512
823.220825,1458
823.339294,1494
823.457825,1430
823.576355,1494
823.694824,1485
823.813354,1515
823.931885,1497
824.050354,1525
824.168884,1552
824.287354,1484
824.405823,1495
824.524353,1518
824.642822,1492
824.761353,1526
824.879822,1477
824.998291,1489
825.116699,1453
825.235291,1502
825.353699,1520
825.472168,1457
825.590637,1510
825.709106,1446
825.827576,1476
825.946045,1434
826.064453,1466
826.182983,1437
826.301392,1435
826.4198,1432
826.53833,1390
826.656738,1421
826.775208,1406
826.893677,1414
827.012024,1383
827.130493,1424
827.248962,1383
827.36731,1450
827.485779,1400
827.604248,1398
827.722595,1398
827.841064,1372
827.959412,1376
828.077942,1389
828.196289,1374
828.314636,1399
828.433105,1392
828.551514,1377
828.669861,1353
828.78833,1376
828.906677,1367
829.025085,1409
829.143433,1321
829.261841,1367
829.38031,1352
829.498657,1363
829.617004,1376
829.735413,1367
829.85376,1344
829.972107,1358
830.090515,1343
830.208862,1385
830.327209,1394
830.445557,1358
830.563904,1366
830.682312,1354
830.800659,1300
830.919006,1336
831.037354,1310
831.155701,1327
831.274048,1358
831.392395,1374
831.51062,1361
831.629028,1342
831.747314,1355
831.865662,1337
831.984009,1376
832.102356,1358
832.220642,1378
832.338928,1357
832.457275,1349
832.575623,1373
832.693909,1349
832.812134,1382
832.930481,1411
833.048828,1316
833.167114,1381
833.2854,1359
833.403687,1356
833.521973,1357
833.640259,1344
833.758545,1362
833.876831,1334
833.995056,1409
834.113281,1357
834.231628,1366
834.349915,1363
834.468201,1344
834.586426,1391
834.704651,1358
834.822998,1369
834.941162,1401
835.059448,1344
835.177673,1380
835.295959,1369
835.414246,1358
835.53241,1349
835.650635,1414
835.768921,1381
835.887146,1358
836.005371,1361
836.123596,1352
836.241821,1360
836.360046,1405
836.478271,1439
836.596497,1441
836.714722,1418
836.832886,1460
836.95105,1449
837.069336,1408
837.1875,1444
837.305725,1436
837.423889,1494
837.542053,1469
837.660339,1429
837.778503,1483
837.896667,1421
838.014832,1438
838.132996,1451
838.25116,1461
838.369385,1469
838.487488,1432
838.605713,1436
838.723877,1437
838.84198,1434
838.960205,1437
839.078308,1398
839.196472,1400
839.314636,1448
839.4328,1452
839.550964,1410
839.669067,1415
839.787231,1416
839.905396,1426
840.023499,1411
840.141602,1393
840.259766,1383
840.377869,1405
840.495972,1422
840.614136,1411
840.732239,1392
840.850342,1404
840.968445,1340
841.086548,1400
841.204651,1416
841.322754,1382
841.440918,1407
841.55896,1351
841.677002,1394
841.795166,1330
841.913208,1369
842.031311,1384
842.149353,1361
842.267456,1366
842.385498,1316
842.503601,1389
842.621643,1296
842.739746,1344
842.857788,1336
842.97583,1378
843.093933,1324
843.211975,1335
843.330017,1305
843.44812,1327
843.566101,1345
843.684204,1327
843.802246,1266
843.920227,1322
844.038269,1328
844.156311,1299
844.274292,1305
844.392395,1319
844.510376,1334
844.628357,1343
844.74646,1273
844.864441,1321
844.982422,1327
845.100403,1344
845.218384,1353
845.336426,1309
845.454468,1337
845.572449,1326
845.69043,1336
845.808411,1317
845.926453,1343
846.044373,1336
846.162354,1341
846.280396,1317
846.398315,1318
846.516296,1302
846.634216,1327
846.752197,1302
846.870178,1340
846.988098,1285
847.106079,1285
847.22406,1314
847.34198,1329
847.4599,1312
847.577881,1299
847.695801,1306
847.813782,1344
847.931641,1277
848.049561,1312
848.167603,1309
848.285461,1302
848.403381,1310
848.521362,1331
848.639221,1344
848.75708,1339
848.875,1368
848.99292,1293
849.110901,1315
849.22876,1320
849.34668,1310
849.464539,1351
849.582458,1351
849.700317,1323
849.818176,1324
849.936096,1326
850.053955,1283
850.171875,1336
850.289673,1341
850.407593,1282
850.525452,1326
850.643311,1318
850.761169,1329
850.878967,1288
850.996887,1346
851.114746,1339
851.232544,1336
851.350403,1265
851.468262,1315
851.58606,1335
851.703979,1340
851.821777,1334
851.939636,1304
852.057434,1297
852.175232,1318
852.293091,1319
852.410889,1319
852.528687,1331
852.646545,1346
852.764343,1298
852.88208,1342
852.999939,1364
853.117676,1319
853.235535,1348
853.353271,1376
853.471069,1324
853.588928,1336
853.706604,1326
853.824402,1339
853.9422,1382
854.059998,1363
854.177734,1362
854.295532,1365
854.413269,1365
854.531006,1355
854.648804,1372
854.766541,1365
854.884277,1330
855.002014,1347
855.119751,1316
855.237549,1382
855.355225,1382
855.473022,1362
855.590698,1379
855.708435,1392
855.826172,1363
855.943848,1382
856.061646,1394
856.179321,1352
856.296997,1357
856.414795,1390
856.53241,1369
856.650085,1381
856.767822,1350
856.885559,1380
857.003174,1375
857.120911,1381
857.238586,1360
857.356201,1405
857.473938,1327
857.591614,1379
857.709351,1353
857.826965,1360
857.944641,1362
858.062317,1393
858.179993,1352
858.297668,1386
858.415283,1404
858.532959,1408
858.650574,1301
858.768188,1365
858.885803,1338
859.003479,1361
859.121094,1355
859.23877,1364
859.356384,1364
859.473999,1338
859.591675,1343
859.709229,1352
859.826843,1334
859.944458,1371
860.062012,1368
860.179626,1332
860.297302,1320
860.414856,1343
860.532471,1338
860.650024,1380
860.767639,1331
860.885193,1359
861.002808,1345
861.120361,1323
861.237976,1337
861.35553,1350
861.473022,1349
861.590698,1362
861.708191,1371
861.825745,1364
861.943298,1340
862.060852,1347
862.178406,1387
862.295959,1370
862.413513,1329
862.531006,1368
862.64856,1278
862.766113,1389
862.883667,1365
863.00116,1367
863.118713,1378
863.236206,1341
863.353699,1338
863.471252,1350
863.588745,1368
863.706177,1339
863.82373,1420
863.941162,1401
864.058716,1369
864.176208,1387
864.29364,1362
864.411194,1372
864.528687,1400
864.646118,1382
864.763611,1350
864.881042,1371
864.998535,1350
865.116028,1397
865.233459,1363
865.350891,1374
865.468384,1373
865.585754,1355
865.703308,1361
865.820679,1353
865.938171,1353
866.055542,1417
866.173035,1413
866.290466,1418
866.407837,1359
866.52533,1358
866.6427,1415
866.760071,1377
866.877563,1389
866.994934,1367
867.112305,1350
867.229736,1373
867.347107,1350
867.464539,1405
867.58197,1368
867.699341,1398
867.81665,1374
867.934082,1376
868.051453,1347
868.168823,1374
868.286194,1340
868.403564,1398
868.520935,1379
868.638306,1384
868.755676,1363
868.872986,1385
868.990295,1375
869.107727,1390
869.225037,1382
869.342346,1403
869.459717,1396
869.577026,1355
869.694336,1355
869.811707,1382
869.929016,1373
870.046326,1409
870.163635,1372
870.280945,1371
870.398254,1345
870.515564,1370
870.632812,1345
870.750183,1364
870.867432,1359
870.984741,1391
871.102051,1356
871.219299,1382
871.336609,1379
871.453918,1395
871.571106,1338
871.688416,1402
871.805664,1369
871.922852,1329
872.040222,1347
872.157471,1405
872.274719,1367
872.391968,1353
872.509155,1392
872.626465,1357
872.743652,1339
872.860962,1393
872.978149,1346
873.095337,1379
873.212646,1368
873.329834,1363
873.44696,1384
873.564209,1379
873.681396,1349
873.798645,1388
873.915894,1369
874.03302,1395
874.150208,1387
874.267456,1414
874.384583,1366
874.501831,1356
874.618958,1354
874.736145,1360
874.853333,1406
874.970459,1396
875.087646,1379
875.204834,1430
875.32196,1383
875.439148,1402
875.556274,1397
875.673401,1372
875.790527,1375
875.907715,1401
876.024841,1375
876.141968,1393
876.259094,1374
876.376282,1422
876.493347,1405
876.610474,1379
876.7276,1390
876.844727,1411
876.961853,1400
877.078918,1407
877.195984,1401
877.313171,1389
877.430237,1357
877.547302,1380
877.664368,1389
877.781433,1409
877.898499,1358
878.015625,1383
878.13269,1358
878.249695,1384
878.366821,1409
878.483887,1396
878.600952,1352
878.717957,1392
878.834961,1359
878.952087,1383
879.069092,1374
879.186157,1382
879.303162,1362
879.420227,1419
879.537231,1374
879.654236,1403
879.77124,1373
879.888306,1380
880.005249,1413
880.122314,1373
880.239319,1400
880.356323,1342
880.473328,1429
880.590271,1391
880.707275,1414
880.824341,1373
880.941284,1374
881.058228,1396
881.175232,1361
881.292236,1369
881.40918,1353
881.526123,1384
881.643066,1429
881.760071,1397
881.877014,1404
881.993958,1380
882.11084,1428
882.227783,1375
882.344727,1397
882.46167,1412
882.578613,1461
882.695618,1364
882.812439,1363
882.929382,1386
883.046326,1385
883.163208,1436
883.280151,1381
883.397034,1426
883.513916,1369
883.630798,1409
883.747742,1421
883.864563,1381
883.981506,1408
884.098389,1400
884.21521,1393
884.332153,1441
884.448975,1407
884.565796,1387
884.682678,1428
884.7995,1437
884.916443,1409
885.033264,1376
885.150085,1419
885.266968,1394
885.383789,1430
885.500671,1435
885.617493,1458
885.734314,1377
885.851196,1430
885.967896,1385
886.084717,1463
886.201599,1409
886.318359,1394
886.435181,1393
886.552002,1377
886.668762,1404
886.785645,1387
886.902344,1388
887.019165,1431
887.135925,1387
887.252747,1470
887.369446,1429
887.486267,1436
887.603027,1406
887.719788,1384
887.836548,1390
887.953247,1406
888.070068,1438
888.186829,1392
888.303528,1432
888.420288,1419
888.536987,1410
888.653687,1438
888.770447,1428
888.887146,1474
889.003967,1417
889.120667,1412
889.237305,1473
889.354065,1417
889.470703,1460
889.587463,1391
889.704163,1486
889.820862,1429
889.937561,1445
890.054199,1429
890.170837,1455
890.287598,1396
890.404236,1410
890.520874,1441
890.637634,1448
890.754211,1433
890.87085,1424
890.987549,1441
891.104187,1459
891.220886,1461
891.337463,1427
891.454102,1409
891.57074,1450
891.687378,1442
891.804077,1473
891.920654,1428
892.037231,1458
892.15387,1472
892.270447,1475
892.387085,1457
892.503723,1434
892.6203,1469
892.736877,1437
892.853516,1448
892.970032,1470
893.08667,1467
893.203186,1464
893.319763,1414
893.43634,1478
893.552917,1442
893.669556,1442
893.786011,1428
893.902588,1439
894.019165,1464
894.135681,1441
894.252197,1480
894.368835,1499
894.485291,1453
894.601868,1472
894.718384,1434
894.8349,1451
894.951355,1468
895.067932,1418
895.184448,1438
895.300964,1483
895.417419,1461
895.533936,1458
895.650452,1454
895.766907,1481
895.883423,1520
895.999878,1469
896.116333,1475
896.232849,1490
896.349304,1428
896.465759,1471
896.582214,1438
896.698669,1454
896.815125,1464
896.931641,1451
897.048035,1512
897.164551,1442
897.280884,1498
897.397339,1472
897.513794,1464
897.630249,1494
897.746582,1471
897.863098,1411
897.979431,1500
898.095886,1523
898.212341,1454
898.328674,1479
898.445129,1487
898.561462,1513
898.677795,1459
898.794312,1472
898.910645,1500
899.026978,1468
899.143433,1486
899.259766,1479
899.37616,1435
899.492493,1468
899.608765,1453
899.725159,1479
899.841553,1459
899.957947,1474
900.07428,1466
900.190552,1502
900.306946,1508
900.423157,1485
900.53949,1475
900.655884,1500
900.772156,1461
900.888489,1524
901.004822,1476
901.121033,1518
901.237366,1457
901.353699,1489
901.46991,1449
901.586304,1497
901.702515,1439
901.818787,1491
901.93512,1505
902.051331,1503
902.167603,1484
902.283875,1500
902.400085,1453
902.516418,1463
902.632629,1422
902.74884,1498
902.865112,1456
902.981384,1502
903.097595,1460
903.213867,1452
903.330017,1502
903.446289,1518
903.5625,1498
903.67865,1512
903.794922,1444
903.911072,1460
904.027344,1460
904.143494,1508
904.259705,1459
904.375916,1485
904.492065,1495
904.608215,1508
904.724426,1479
904.840576,1478
904.956726,1481
905.072876,1515
905.189087,1476
905.305176,1502
905.421387,1493
905.537537,1496
905.653687,1475
905.769775,1486
905.885925,1481
906.002014,1476
906.118164,1479
906.234314,1515
906.350403,1528
906.466492,1499
906.582642,1527
906.69873,1503
906.814758,1536
906.930908,1511
907.046936,1471
907.163086,1503
907.279175,1493
907.395264,1487
907.511353,1483
907.62738,1497
907.743408,1492
907.859497,1515
907.975525,1479
908.091553,1488
908.207703,1461
908.32373,1519
908.439758,1500
908.555786,1506
908.671814,1480
908.787842,1555
908.90387,1513
909.019775,1525
909.135864,1547
909.251892,1512
909.367859,1549
909.483826,1555
909.599854,1469
909.715881,1538
909.831848,1529
909.947815,1509
910.063782,1495
910.179749,1485
910.295776,1525
910.411743,1532
910.527649,1491
910.643616,1532
910.759583,1503
910.875488,1474
910.991455,1529
911.107361,1517
911.223267,1561
911.339294,1538
911.4552,1497
911.571106,1506
911.687073,1549
911.802979,1487
911.918823,1485
912.034729,1540
912.150635,1516
912.266602,1553
912.382446,1504
912.498352,1492
912.614197,1501
912.730103,1495
912.846008,1531
