792.44574,2258
792.56488,2205
792.68396,2219
792.80304,2170
792.92218,2122
793.041199,2146
793.160339,2135
793.279419,2139
793.398499,2103
793.517578,2058
793.636658,2063
793.755737,2064
793.874817,2079
793.993896,2063
794.112976,2007
794.232056,2005
794.351074,2022
794.470215,2019
794.589233,1988
794.708313,2006
794.827393,1926
794.946411,2047
795.065552,1967
795.18457,1976
795.303589,1978
795.422668,1947
795.541687,1950
795.660767,1951
795.779846,1904
795.898865,1925
796.017883,1927
796.136963,1942
796.255981,1908
796.375061,1909
796.49408,1953
796.613037,1965
796.732117,1913
796.851135,1935
796.970154,1924
797.089233,1892
797.208191,1879
797.327271,1879
797.446228,1860
797.565186,1868
797.684265,1844
797.803223,1896
797.922241,1875
798.04126,1880
798.160278,1874
798.279297,1876
798.398315,1869
798.517273,1854
798.636292,1893
798.75531,1848
798.874268,1849
798.993286,1845
799.112244,1883
799.231323,1836
799.350281,1845
799.469238,1866
799.588257,1876
799.707153,1859
799.826111,1850
799.945129,1824
800.064087,1861
800.183044,1836
800.302063,1900
800.421021,1870
800.539978,1840
800.658936,1849
800.777893,1845
800.896912,1853
801.015747,1844
801.134705,1867
801.253723,1849
801.37262,1851
801.491638,1843
801.610535,1881
801.729492,1896
801.84845,1889
801.967407,1931
802.086243,1848
802.205261,1895
802.324158,1899
802.443115,1937
802.562073,1913
802.680969,1887
802.799927,1891
802.918762,1886
803.037659,1906
803.156677,1932
803.275574,1903
803.39447,1881
803.513428,1960
803.632263,1910
803.751221,1858
803.870117,1900
803.989014,1875
804.107971,1948
804.226746,1890
804.345642,1873
804.4646,1940
804.583496,1924
804.702393,1892
804.821228,1904
804.940125,1910
805.059021,1961
805.177917,1894
805.296814,1943
805.415649,1934
805.534546,1917
805.653442,1938
805.772278,1970
805.891113,1979
806.01001,2015
806.128906,1976
806.247742,1900
806.366577,1966
806.485413,1983
806.604309,1949
806.723145,1951
806.84198,1973
806.960876,1928
807.079712,1944
807.198486,1970
807.317383,1983
807.436218,1925
807.554993,1974
807.673889,1984
807.792725,1972
807.91156,1979
808.030396,1930
808.14917,1998
808.268005,2001
808.386841,1980
808.505676,1960
808.624451,1992
808.743286,1977
808.862122,1997
808.980896,1988
809.099731,1969
809.218506,1981
809.337341,2028
809.456116,2016
809.57489,1996
809.693726,1992
809.8125,2018
809.931274,1982
810.050049,2086
810.168884,2046
810.287659,2001
810.406372,1996
810.525269,2053
810.643982,2037
810.762756,2058
810.881531,2049
811.000305,2016
811.11908,2003
811.237854,1977
811.356567,2077
811.475403,2039
811.594116,1988
811.71283,2035
811.831604,2009
811.950378,1992
812.069153,2023
812.187927,2080
812.30658,2075
812.425415,2056
812.544128,2026
812.662781,2008
812.781616,2013
812.900269,2019
813.019043,1989
813.137756,1970
813.256531,1995
813.375244,2059
813.493896,2048
813.612671,2036
813.731384,2016
813.850037,1979
813.96875,2096
814.087524,1993
814.206238,2013
814.324951,1961
814.443604,1996
814.562256,1977
814.68103,2001
814.799683,2068
814.918335,1987
815.037109,1975
815.155762,1994
815.274475,2002
815.393188,1986
815.511841,1927
815.630554,1955
815.749146,1927
815.867859,1938
815.986572,1916
816.105164,1859
816.223877,1910
816.342529,1972
816.461182,1927
816.579895,1935
816.698486,1921
816.817139,1931
816.935791,1935
817.054504,1944
817.173096,1938
817.291748,1904
817.4104,1941
817.529053,1881
817.647644,1889
817.766235,1818
817.884949,1804
818.00354,1793
818.122192,1755
818.240845,1729
818.359436,1750
818.478088,1735
818.59668,1646
818.715271,1647
818.833923,1639
818.952515,1665
819.071106,1599
819.189758,1545
819.30835,1560
819.426941,1534
819.545532,1552
819.664124,1538
819.782715,1525
819.901306,1541
820.019897,1508
820.138489,1518
820.25708,1507
820.375671,1490
820.494202,1489
820.612732,1489
820.731384,1500
820.849915,1490
820.968506,1510
821.087097,1455
821.205627,1440
821.324158,1438
821.442749,1467
821.561279,1485
821.679871,1475
821.798401,1489
821.916931,1447
822.035461,1439
822.154053,1435
822.272583,1485
822.391174,1412
822.509583,1478
822.628174,1465
822.746704,1422
822.865234,1452
822.983765,1438
823.102295,1483
823.220825,1418
823.339294,1430
823.457825,1460
823.576355,1460
823.694824,1447
823.813354,1455
823.931885,1429
824.050354,1384
824.168884,1506
824.287354,1414
824.405823,1484
824.524353,1455
824.642822,1473
824.761353,1476
824.879822,1456
824.998291,1440
825.116699,1451
825.235291,1452
825.353699,1469
825.472168,1441
825.590637,1448
825.709106,1404
825.827576,1413
825.946045,1386
826.064453,1420
826.182983,1408
826.301392,1367
826.4198,1436
826.53833,1384
826.656738,1421
826.775208,1376
826.893677,1419
827.012024,1342
827.130493,1390
827.248962,1327
827.36731,1399
827.485779,1361
827.604248,1374
827.722595,1337
827.841064,1343
827.959412,1335
828.077942,1366
828.196289,1396
828.314636,1372
828.433105,1350
828.551514,1408
828.669861,1322
828.78833,1316
828.906677,1356
829.025085,1347
829.143433,1380
829.261841,1387
829.38031,1329
829.498657,1320
829.617004,1333
829.735413,1314
829.85376,1328
829.972107,1326
830.090515,1344
830.208862,1366
830.327209,1365
830.445557,1355
830.563904,1311
830.682312,1358
830.800659,1344
830.919006,1327
831.037354,1345
831.155701,1393
831.274048,1317
831.392395,1354
831.51062,1334
831.629028,1338
831.747314,1335
831.865662,1315
831.984009,1335
832.102356,1315
832.220642,1327
832.338928,1325
832.457275,1330
832.575623,1313
832.693909,1356
832.812134,1368
832.930481,1367
833.048828,1341
833.167114,1339
833.2854,1314
833.403687,1337
833.521973,1318
833.640259,1356
833.758545,1310
833.876831,1356
833.995056,1305
834.113281,1343
834.231628,1382
834.349915,1338
834.468201,1368
834.586426,1344
834.704651,1353
834.822998,1351
834.941162,1349
835.059448,1329
835.177673,1350
835.295959,1328
835.414246,1352
835.53241,1317
835.650635,1345
835.768921,1366
835.887146,1385
836.005371,1341
836.123596,1362
836.241821,1411
836.360046,1385
836.478271,1371
836.596497,1331
836.714722,1373
836.832886,1380
836.95105,1401
837.069336,1356
837.1875,1387
837.305725,1391
837.423889,1422
837.542053,1402
837.660339,1397
837.778503,1447
837.896667,1369
838.014832,1413
838.132996,1402
838.25116,1437
838.369385,1408
838.487488,1429
838.605713,1403
838.723877,1400
838.84198,1403
838.960205,1398
839.078308,1409
839.196472,1421
839.314636,1410
839.4328,1379
839.550964,1374
839.669067,1423
839.787231,1384
839.905396,1377
840.023499,1378
840.141602,1430
840.259766,1359
840.377869,1363
840.495972,1419
840.614136,1400
840.732239,1375
840.850342,1362
840.968445,1375
841.086548,1369
841.204651,1367
841.322754,1410
841.440918,1410
841.55896,1355
841.677002,1371
841.795166,1375
841.913208,1383
842.031311,1402
842.149353,1355
842.267456,1336
842.385498,1330
842.503601,1323
842.621643,1337
842.739746,1330
842.857788,1361
842.97583,1347
843.093933,1349
843.211975,1334
843.330017,1331
843.44812,1367
843.566101,1341
843.684204,1359
843.802246,1316
843.920227,1329
844.038269,1323
844.156311,1343
844.274292,1339
844.392395,1320
844.510376,1328
844.628357,1312
844.74646,1324
844.864441,1320
844.982422,1317
845.100403,1301
845.218384,1321
845.336426,1306
845.454468,1330
845.572449,1326
845.69043,1361
845.808411,1330
845.926453,1351
846.044373,1324
846.162354,1318
846.280396,1325
846.398315,1333
846.516296,1308
846.634216,1349
846.752197,1282
846.870178,1361
846.988098,1328
847.106079,1329
847.22406,1362
847.34198,1302
847.4599,1340
847.577881,1344
847.695801,1356
847.813782,1357
847.931641,1319
848.049561,1299
848.167603,1370
848.285461,1353
848.403381,1357
848.521362,1336
848.639221,1336
848.75708,1340
848.875,1325
848.99292,1343
849.110901,1372
849.22876,1337
849.34668,1323
849.464539,1324
849.582458,1314
849.700317,1336
849.818176,1325
849.936096,1355
850.053955,1348
850.171875,1360
850.289673,1345
850.407593,1332
850.525452,1348
850.643311,1330
850.761169,1361
850.878967,1324
850.996887,1354
851.114746,1345
851.232544,1363
851.350403,1375
851.468262,1316
851.58606,1332
851.703979,1348
851.821777,1354
851.939636,1355
852.057434,1387
852.175232,1383
852.293091,1327
852.410889,1318
852.528687,1340
852.646545,1380
852.764343,1353
852.88208,1387
852.999939,1344
853.117676,1333
853.235535,1335
853.353271,1383
853.471069,1384
853.588928,1314
853.706604,1355
853.824402,1346
853.9422,1346
854.059998,1326
854.177734,1299
854.295532,1339
854.413269,1366
854.531006,1287
854.648804,1373
854.766541,1326
854.884277,1373
855.002014,1341
855.119751,1348
855.237549,1368
855.355225,1369
855.473022,1336
855.590698,1331
855.708435,1350
855.826172,1327
855.943848,1385
856.061646,1342
856.179321,1325
856.296997,1347
856.414795,1382
856.53241,1339
856.650085,1362
856.767822,1360
856.885559,1360
857.003174,1370
857.120911,1400
857.238586,1371
857.356201,1368
857.473938,1404
857.591614,1366
857.709351,1374
857.826965,1361
857.944641,1364
858.062317,1375
858.179993,1369
858.297668,1380
858.415283,1330
858.532959,1345
858.650574,1372
858.768188,1350
858.885803,1357
859.003479,1382
859.121094,1332
859.23877,1371
859.356384,1356
859.473999,1336
859.591675,1331
859.709229,1399
859.826843,1306
859.944458,1347
860.062012,1366
860.179626,1339
860.297302,1367
860.414856,1359
860.532471,1316
860.650024,1333
860.767639,1363
860.885193,1332
861.002808,1343
861.120361,1352
861.237976,1338
861.35553,1351
861.473022,1295
861.590698,1320
861.708191,1323
861.825745,1335
861.943298,1368
862.060852,1352
862.178406,1337
862.295959,1323
862.413513,1352
862.531006,1306
862.64856,1341
862.766113,1358
862.883667,1322
863.00116,1352
863.118713,1362
863.236206,1392
863.353699,1348
863.471252,1351
863.588745,1357
863.706177,1342
863.82373,1360
863.941162,1337
864.058716,1343
864.176208,1346
864.29364,1359
864.411194,1345
864.528687,1344
864.646118,1340
864.763611,1314
864.881042,1350
864.998535,1333
865.116028,1350
865.233459,1366
865.350891,1389
865.468384,1343
865.585754,1348
865.703308,1369
865.820679,1363
865.938171,1346
866.055542,1342
866.173035,1338
866.290466,1373
866.407837,1357
866.52533,1354
866.6427,1393
866.760071,1377
866.877563,1357
866.994934,1384
867.112305,1348
867.229736,1371
867.347107,1370
867.464539,1374
867.58197,1343
867.699341,1350
867.81665,1381
867.934082,1349
868.051453,1351
868.168823,1311
868.286194,1325
868.403564,1341
868.520935,1371
868.638306,1342
868.755676,1398
868.872986,1343
868.990295,1333
869.107727,1359
869.225037,1318
869.342346,1334
869.459717,1372
869.577026,1355
869.694336,1365
869.811707,1357
869.929016,1376
870.046326,1334
870.163635,1334
870.280945,1359
870.398254,1375
870.515564,1382
870.632812,1427
870.750183,1366
870.867432,1391
870.984741,1378
871.102051,1371
871.219299,1379
871.336609,1364
871.453918,1387
871.571106,1367
871.688416,1413
871.805664,1364
871.922852,1376
872.040222,1381
872.157471,1355
872.274719,1350
872.391968,1377
872.509155,1353
872.626465,1380
872.743652,1392
872.860962,1381
872.978149,1409
873.095337,1414
873.212646,1347
873.329834,1343
873.44696,1376
873.564209,1369
873.681396,1384
873.798645,1375
873.915894,1356
874.03302,1358
874.150208,1378
874.267456,1375
874.384583,1391
874.501831,1376
874.618958,1386
874.736145,1384
874.853333,1383
874.970459,1387
875.087646,1421
875.204834,1362
875.32196,1398
875.439148,1353
875.556274,1386
875.673401,1347
875.790527,1360
875.907715,1411
876.024841,1387
876.141968,1319
876.259094,1362
876.376282,1336
876.493347,1388
876.610474,1390
876.7276,1410
876.844727,1343
876.961853,1361
877.078918,1381
877.195984,1349
877.313171,1383
877.430237,1378
877.547302,1367
877.664368,1358
877.781433,1391
877.898499,1366
878.015625,1385
878.13269,1411
878.249695,1426
878.366821,1401
878.483887,1366
878.600952,1353
878.717957,1392
878.834961,1373
878.952087,1396
879.069092,1386
879.186157,1357
879.303162,1374
879.420227,1339
879.537231,1374
879.654236,1391
879.77124,1364
879.888306,1387
880.005249,1409
880.122314,1401
880.239319,1373
880.356323,1386
880.473328,1342
880.590271,1341
880.707275,1355
880.824341,1393
880.941284,1327
881.058228,1388
881.175232,1386
881.292236,1397
881.40918,1345
881.526123,1358
881.643066,1398
881.760071,1342
881.877014,1324
881.993958,1374
882.11084,1381
882.227783,1392
882.344727,1374
882.46167,1383
882.578613,1372
882.695618,1323
882.812439,1407
882.929382,1369
883.046326,1344
883.163208,1397
883.280151,1361
883.397034,1412
883.513916,1345
883.630798,1376
883.747742,1384
883.864563,1398
883.981506,1378
884.098389,1409
884.21521,1380
884.332153,1429
884.448975,1387
884.565796,1391
884.682678,1413
884.7995,1403
884.916443,1431
885.033264,1412
885.150085,1399
885.266968,1460
885.383789,1454
885.500671,1400
885.617493,1460
885.734314,1449
885.851196,1413
885.967896,1445
886.084717,1450
886.201599,1431
886.318359,1480
886.435181,1442
886.552002,1408
886.668762,1479
886.785645,1455
886.902344,1446
887.019165,1395
887.135925,1403
887.252747,1428
887.369446,1427
887.486267,1434
887.603027,1416
887.719788,1378
887.836548,1375
887.953247,1388
888.070068,1406
888.186829,1419
888.303528,1379
888.420288,1405
888.536987,1403
888.653687,1400
888.770447,1428
888.887146,1436
889.003967,1402
889.120667,1462
889.237305,1402
889.354065,1412
889.470703,1445
889.587463,1375
889.704163,1412
889.820862,1349
889.937561,1416
890.054199,1384
890.170837,1413
890.287598,1441
890.404236,1430
890.520874,1411
890.637634,1395
890.754211,1417
890.87085,1379
890.987549,1418
891.104187,1421
891.220886,1418
891.337463,1420
891.454102,1407
891.57074,1405
891.687378,1423
891.804077,1394
891.920654,1423
892.037231,1419
892.15387,1406
892.270447,1429
892.387085,1430
892.503723,1383
892.6203,1405
892.736877,1440
892.853516,1435
892.970032,1386
893.08667,1401
893.203186,1422
893.319763,1416
893.43634,1431
893.552917,1413
893.669556,1449
893.786011,1416
893.902588,1450
894.019165,1441
894.135681,1391
894.252197,1445
894.368835,1426
894.485291,1430
894.601868,1379
894.718384,1448
894.8349,1452
894.951355,1427
895.067932,1440
895.184448,1450
895.300964,1459
895.417419,1443
895.533936,1420
895.650452,1401
895.766907,1434
895.883423,1387
895.999878,1415
896.116333,1398
896.232849,1401
896.349304,1396
896.465759,1424
896.582214,1415
896.698669,1414
896.815125,1408
896.931641,1423
897.048035,1433
897.164551,1421
897.280884,1419
897.397339,1415
897.513794,1457
897.630249,1442
897.746582,1464
897.863098,1432
897.979431,1456
898.095886,1437
898.212341,1444
898.328674,1480
898.445129,1420
898.561462,1441
898.677795,1446
898.794312,1415
898.910645,1396
899.026978,1424
899.143433,1420
899.259766,1409
899.37616,1402
899.492493,1427
899.608765,1462
899.725159,1470
899.841553,1449
899.957947,1447
900.07428,1460
900.190552,1424
900.306946,1450
900.423157,1409
900.53949,1458
900.655884,1406
900.772156,1422
900.888489,1448
901.004822,1446
901.121033,1453
901.237366,1420
901.353699,1464
901.46991,1389
901.586304,1475
901.702515,1458
901.818787,1444
901.93512,1479
902.051331,1465
902.167603,1477
902.283875,1449
902.400085,1440
902.516418,1471
902.632629,1449
902.74884,1475
902.865112,1473
902.981384,1497
903.097595,1499
903.213867,1500
903.330017,1451
903.446289,1461
903.5625,1475
903.67865,1462
903.794922,1473
903.911072,1498
904.027344,1472
904.143494,1454
904.259705,1487
904.375916,1481
904.492065,1514
904.608215,1426
904.724426,1462
904.840576,1492
904.956726,1468
905.072876,1457
905.189087,1459
905.305176,1484
905.421387,1444
905.537537,1511
905.653687,1430
905.769775,1414
905.885925,1467
906.002014,1480
906.118164,1477
906.234314,1474
906.350403,1450
906.466492,1436
906.582642,1484
906.69873,1463
906.814758,1477
906.930908,1428
907.046936,1436
907.163086,1473
907.279175,1448
907.395264,1480
907.511353,1454
907.62738,1455
907.743408,1443
907.859497,1463
907.975525,1485
908.091553,1459
908.207703,1465
908.32373,1475
908.439758,1482
908.555786,1448
908.671814,1478
908.787842,1443
908.90387,1481
909.019775,1475
909.135864,1469
909.251892,1470
909.367859,1433
909.483826,1477
909.599854,1462
909.715881,1446
909.831848,1462
909.947815,1486
910.063782,1474
910.179749,1479
910.295776,1473
910.411743,1453
910.527649,1450
910.643616,1482
910.759583,1448
910.875488,1497
910.991455,1463
911.107361,1491
911.223267,1487
911.339294,1463
911.4552,1465
911.571106,1452
911.687073,1463
911.802979,1474
911.918823,1480
912.034729,1476
912.150635,1481
912.266602,1456
912.382446,1438
912.498352,1461
912.614197,1523
912.730103,1468
912.846008,1425
792.44574,2275
792.56488,2288
792.68396,2293
792.80304,2153
792.92218,2141
793.041199,2140
793.160339,2221
793.279419,2225
793.398499,2168
793.517578,2095
793.636658,2133
793.755737,2086
793.874817,2079
793.993896,2108
794.112976,2057
794.232056,2086
794.351074,2037
794.470215,2034
794.589233,2094
794.708313,1977
794.827393,1992
794.946411,1983
795.065552,2033
795.18457,1997
795.303589,2023
795.422668,1999
795.541687,1970
795.660767,2016
795.779846,1979
795.898865,1904
796.017883,1981
796.136963,1965
796.255981,1951
796.375061,1913
796.49408,1953
796.613037,1967
796.732117,1945
796.851135,1958
796.970154,1928
797.089233,1927
797.208191,1972
797.327271,1921
797.446228,1937
797.565186,1936
797.684265,1910
797.803223,1893
797.922241,1876
798.04126,1913
798.160278,1908
798.279297,1884
798.398315,1907
798.517273,1889
798.636292,1914
798.75531,1889
798.874268,1893
798.993286,1914
799.112244,1885
799.231323,1905
799.350281,1877
799.469238,1887
799.588257,1917
799.707153,1895
799.826111,1893
799.945129,1893
800.064087,1896
800.183044,1947
800.302063,1914
800.421021,1912
800.539978,1876
800.658936,1944
800.777893,1909
800.896912,1894
801.015747,1882
801.134705,1864
801.253723,1906
801.37262,1916
801.491638,1911
801.610535,1906
801.729492,1937
801.84845,1915
801.967407,1908
802.086243,1898
802.205261,1920
802.324158,1907
802.443115,1941
802.562073,1913
802.680969,1975
802.799927,1899
802.918762,1934
803.037659,1970
803.156677,1923
803.275574,1944
803.39447,1969
803.513428,1936
803.632263,1968
803.751221,1953
803.870117,1954
803.989014,1892
804.107971,1966
804.226746,1899
804.345642,2007
804.4646,1932
804.583496,1992
804.702393,1967
804.821228,1959
804.940125,1942
805.059021,1917
805.177917,2003
805.296814,1953
805.415649,2014
805.534546,1999
805.653442,1987
805.772278,1986
805.891113,1955
806.01001,2029
806.128906,2010
806.247742,2028
806.366577,1997
806.485413,2033
806.604309,2033
806.723145,1986
806.84198,1981
806.960876,1999
807.079712,2019
807.198486,2057
807.317383,2045
807.436218,2023
807.554993,1971
807.673889,2020
807.792725,2033
807.91156,2038
808.030396,2045
808.14917,2050
808.268005,2010
808.386841,2008
808.505676,2022
808.624451,1999
808.743286,2050
808.862122,2059
808.980896,2047
809.099731,2048
809.218506,2050
809.337341,2026
809.456116,2036
809.57489,2082
809.693726,2021
809.8125,2084
809.931274,2095
810.050049,2053
810.168884,2061
810.287659,2110
810.406372,2078
810.525269,2128
810.643982,2084
810.762756,2044
810.881531,2079
811.000305,2079
811.11908,2067
811.237854,2078
811.356567,2059
811.475403,2063
811.594116,2070
811.71283,2037
811.831604,2108
811.950378,2108
812.069153,2085
812.187927,2095
812.30658,2053
812.425415,2076
812.544128,2077
812.662781,2073
812.781616,2085
812.900269,2044
813.019043,2063
813.137756,2082
813.256531,2047
813.375244,2089
813.493896,2038
813.612671,2094
813.731384,2053
813.850037,2072
813.96875,2077
814.087524,2049
814.206238,2027
814.324951,2032
814.443604,2059
814.562256,2065
814.68103,2069
814.799683,2046
814.918335,2049
815.037109,2083
815.155762,2000
815.274475,2018
815.393188,2026
815.511841,1949
815.630554,1960
815.749146,1983
815.867859,1983
815.986572,1943
816.105164,1937
816.223877,1958
816.342529,1982
816.461182,2046
816.579895,2047
816.698486,2056
816.817139,2065
816.935791,2016
817.054504,1998
817.173096,2008
817.291748,1945
817.4104,1958
817.529053,1933
817.647644,1892
817.766235,1891
817.884949,1812
818.00354,1853
818.122192,1814
818.240845,1769
818.359436,1780
818.478088,1758
818.59668,1723
818.715271,1742
818.833923,1619
818.952515,1654
819.071106,1657
819.189758,1592
819.30835,1566
819.426941,1568
819.545532,1581
819.664124,1562
819.782715,1571
819.901306,1576
820.019897,1549
820.138489,1527
820.25708,1552
820.375671,1572
820.494202,1544
820.612732,1507
820.731384,1526
820.849915,1539
820.968506,1517
821.087097,1514
821.205627,1525
821.324158,1511
821.442749,1472
821.561279,1475
821.679871,1470
821.798401,1507
821.916931,1475
822.035461,1527
822.154053,1479
822.272583,1447
822.391174,1481
822.509583,1478
822.628174,1473
822.746704,1422
822.865234,1432
822.983765,1492
823.102295,1458
823.220825,1466
823.339294,1453
823.457825,1472
823.576355,1432
823.694824,1482
823.813354,1492
823.931885,1489
824.050354,1472
824.168884,1480
824.287354,1487
824.405823,1479
824.524353,1515
824.642822,1528
824.761353,1481
824.879822,1537
824.998291,1454
825.116699,1489
825.235291,1481
825.353699,1480
825.472168,1442
825.590637,1442
825.709106,1432
825.827576,1467
825.946045,1431
826.064453,1420
826.182983,1418
826.301392,1405
826.4198,1410
826.53833,1403
826.656738,1401
826.775208,1396
826.893677,1427
827.012024,1431
827.130493,1395
827.248962,1406
827.36731,1387
827.485779,1388
827.604248,1418
827.722595,1397
827.841064,1418
827.959412,1387
828.077942,1393
828.196289,1344
828.314636,1391
828.433105,1412
828.551514,1368
828.669861,1389
828.78833,1362
828.906677,1394
829.025085,1355
829.143433,1394
829.261841,1369
829.38031,1380
829.498657,1379
829.617004,1379
829.735413,1414
829.85376,1350
829.972107,1353
830.090515,1332
830.208862,1349
830.327209,1417
830.445557,1352
830.563904,1347
830.682312,1354
830.800659,1372
830.919006,1405
831.037354,1381
831.155701,1362
831.274048,1377
831.392395,1346
831.51062,1321
831.629028,1370
831.747314,1412
831.865662,1340
831.984009,1330
832.102356,1359
832.220642,1341
832.338928,1431
832.457275,1380
832.575623,1396
832.693909,1376
832.812134,1384
832.930481,1356
833.048828,1387
833.167114,1369
833.2854,1368
833.403687,1406
833.521973,1362
833.640259,1364
833.758545,1380
833.876831,1335
833.995056,1419
834.113281,1428
834.231628,1368
834.349915,1357
834.468201,1329
834.586426,1409
834.704651,1358
834.822998,1389
834.941162,1385
835.059448,1370
835.177673,1419
835.295959,1373
835.414246,1376
835.53241,1391
835.650635,1386
835.768921,1377
835.887146,1361
836.005371,1342
836.123596,1395
836.241821,1415
836.360046,1409
836.478271,1400
836.596497,1401
836.714722,1397
836.832886,1464
836.95105,1432
837.069336,1429
837.1875,1402
837.305725,1443
837.423889,1419
837.542053,1444
837.660339,1430
837.778503,1468
837.896667,1456
838.014832,1391
838.132996,1456
838.25116,1442
838.369385,1459
838.487488,1435
838.605713,1428
838.723877,1414
838.84198,1440
838.960205,1448
839.078308,1459
839.196472,1390
839.314636,1405
839.4328,1407
839.550964,1426
839.669067,1449
839.787231,1398
839.905396,1423
840.023499,1409
840.141602,1459
840.259766,1423
840.377869,1415
840.495972,1364
840.614136,1386
840.732239,1427
840.850342,1414
840.968445,1401
841.086548,1412
841.204651,1421
841.322754,1395
841.440918,1397
841.55896,1417
841.677002,1374
841.795166,1363
841.913208,1399
842.031311,1388
842.149353,1354
842.267456,1347
842.385498,1377
842.503601,1333
842.621643,1350
842.739746,1355
842.857788,1376
842.97583,1348
843.093933,1375
843.211975,1353
843.330017,1341
843.44812,1360
843.566101,1362
843.684204,1340
843.802246,1370
843.920227,1385
844.038269,1378
844.156311,1362
844.274292,1340
844.392395,1382
844.510376,1358
844.628357,1386
844.74646,1362
844.864441,1400
844.982422,1358
845.100403,1355
845.218384,1319
845.336426,1346
845.454468,1344
845.572449,1353
845.69043,1336
845.808411,1352
845.926453,1402
846.044373,1347
846.162354,1381
846.280396,1348
846.398315,1342
846.516296,1340
846.634216,1352
846.752197,1358
846.870178,1341
846.988098,1337
847.106079,1332
847.22406,1353
847.34198,1371
847.4599,1355
847.577881,1355
847.695801,1352
847.813782,1365
847.931641,1349
848.049561,1415
848.167603,1316
848.285461,1359
848.403381,1409
848.521362,1324
848.639221,1352
848.75708,1388
848.875,1395
848.99292,1363
849.110901,1385
849.22876,1327
849.34668,1347
849.464539,1356
849.582458,1329
849.700317,1389
849.818176,1346
849.936096,1357
850.053955,1386
850.171875,1385
850.289673,1372
850.407593,1300
850.525452,1379
850.643311,1339
850.761169,1333
850.878967,1357
850.996887,1402
851.114746,1361
851.232544,1370
851.350403,1382
851.468262,1372
851.58606,1367
851.703979,1379
851.821777,1360
851.939636,1382
852.057434,1361
852.175232,1358
852.293091,1380
852.410889,1389
852.528687,1316
852.646545,1388
852.764343,1388
852.88208,1367
852.999939,1334
853.117676,1389
853.235535,1356
853.353271,1342
853.471069,1365
853.588928,1289
853.706604,1359
853.824402,1368
853.9422,1370
854.059998,1366
854.177734,1352
854.295532,1359
854.413269,1355
854.531006,1398
854.648804,1400
854.766541,1346
854.884277,1378
855.002014,1370
855.119751,1358
855.237549,1382
855.355225,1384
855.473022,1407
855.590698,1367
855.708435,1377
855.826172,1366
855.943848,1362
856.061646,1382
856.179321,1388
856.296997,1360
856.414795,1383
856.53241,1392
856.650085,1437
856.767822,1332
856.885559,1415
857.003174,1418
857.120911,1374
857.238586,1410
857.356201,1354
857.473938,1401
857.591614,1391
857.709351,1375
857.826965,1421
857.944641,1366
858.062317,1389
858.179993,1396
858.297668,1382
858.415283,1404
858.532959,1391
858.650574,1371
858.768188,1407
858.885803,1387
859.003479,1343
859.121094,1383
859.23877,1343
859.356384,1376
859.473999,1392
859.591675,1350
859.709229,1394
859.826843,1352
859.944458,1346
860.062012,1394
860.179626,1336
860.297302,1384
860.414856,1368
860.532471,1346
860.650024,1379
860.767639,1317
860.885193,1386
861.002808,1363
861.120361,1338
861.237976,1368
861.35553,1394
861.473022,1400
861.590698,1386
861.708191,1359
861.825745,1347
861.943298,1327
862.060852,1364
862.178406,1342
862.295959,1386
862.413513,1340
862.531006,1391
862.64856,1389
862.766113,1388
862.883667,1343
863.00116,1368
863.118713,1359
863.236206,1392
863.353699,1306
863.471252,1342
863.588745,1348
863.706177,1418
863.82373,1368
863.941162,1388
864.058716,1365
864.176208,1408
864.29364,1366
864.411194,1399
864.528687,1350
864.646118,1354
864.763611,1375
864.881042,1381
864.998535,1374
865.116028,1378
865.233459,1355
865.350891,1317
865.468384,1389
865.585754,1378
865.703308,1410
865.820679,1384
865.938171,1378
866.055542,1397
866.173035,1399
866.290466,1397
866.407837,1394
866.52533,1379
866.6427,1375
866.760071,1398
866.877563,1346
866.994934,1401
867.112305,1376
867.229736,1377
867.347107,1341
867.464539,1372
867.58197,1417
867.699341,1392
867.81665,1387
867.934082,1365
868.051453,1379
868.168823,1367
868.286194,1367
868.403564,1369
868.520935,1362
868.638306,1378
868.755676,1405
868.872986,1369
868.990295,1376
869.107727,1414
869.225037,1351
869.342346,1390
869.459717,1373
869.577026,1362
869.694336,1378
869.811707,1374
869.929016,1412
870.046326,1421
870.163635,1400
870.280945,1399
870.398254,1386
870.515564,1386
870.632812,1406
870.750183,1396
870.867432,1393
870.984741,1453
871.102051,1418
871.219299,1425
871.336609,1429
871.453918,1400
871.571106,1423
871.688416,1411
871.805664,1396
871.922852,1422
872.040222,1399
872.157471,1341
872.274719,1419
872.391968,1425
872.509155,1339
872.626465,1393
872.743652,1384
872.860962,1374
872.978149,1374
873.095337,1360
873.212646,1425
873.329834,1361
873.44696,1415
873.564209,1324
873.681396,1403
873.798645,1383
873.915894,1417
874.03302,1409
874.150208,1367
874.267456,1468
874.384583,1392
874.501831,1368
874.618958,1393
874.736145,1408
874.853333,1419
874.970459,1420
875.087646,1419
875.204834,1378
875.32196,1442
875.439148,1374
875.556274,1391
875.673401,1458
875.790527,1377
875.907715,1430
876.024841,1382
876.141968,1388
876.259094,1415
876.376282,1389
876.493347,1429
876.610474,1382
876.7276,1378
876.844727,1436
876.961853,1392
877.078918,1426
877.195984,1378
877.313171,1441
877.430237,1399
877.547302,1426
877.664368,1383
877.781433,1423
877.898499,1414
878.015625,1385
878.13269,1382
878.249695,1452
878.366821,1404
878.483887,1411
878.600952,1380
878.717957,1388
878.834961,1426
878.952087,1380
879.069092,1358
879.186157,1400
879.303162,1442
879.420227,1391
879.537231,1391
879.654236,1396
879.77124,1403
879.888306,1396
880.005249,1410
880.122314,1400
880.239319,1425
880.356323,1377
880.473328,1397
880.590271,1415
880.707275,1387
880.824341,1419
880.941284,1397
881.058228,1364
881.175232,1424
881.292236,1363
881.40918,1423
881.526123,1435
881.643066,1416
881.760071,1428
881.877014,1367
881.993958,1430
882.11084,1375
882.227783,1433
882.344727,1409
882.46167,1446
882.578613,1382
882.695618,1406
882.812439,1408
882.929382,1386
883.046326,1448
883.163208,1422
883.280151,1373
883.397034,1401
883.513916,1385
883.630798,1428
883.747742,1392
883.864563,1419
883.981506,1385
884.098389,1428
884.21521,1422
884.332153,1447
884.448975,1409
884.565796,1419
884.682678,1397
884.7995,1428
884.916443,1462
885.033264,1415
885.150085,1459
885.266968,1416
885.383789,1443
885.500671,1437
885.617493,1449
885.734314,1476
885.851196,1439
885.967896,1455
886.084717,1421
886.201599,1472
886.318359,1480
886.435181,1408
886.552002,1447
886.668762,1477
886.785645,1435
886.902344,1476
887.019165,1420
887.135925,1478
887.252747,1404
887.369446,1479
887.486267,1429
887.603027,1467
887.719788,1426
887.836548,1442
887.953247,1436
888.070068,1434
888.186829,1405
888.303528,1460
888.420288,1395
888.536987,1424
888.653687,1442
888.770447,1422
888.887146,1407
889.003967,1491
889.120667,1441
889.237305,1422
889.354065,1456
889.470703,1438
889.587463,1415
889.704163,1446
889.820862,1420
889.937561,1400
890.054199,1440
890.170837,1434
890.287598,1457
890.404236,1449
890.520874,1422
890.637634,1447
890.754211,1456
890.87085,1422
890.987549,1453
891.104187,1469
891.220886,1424
891.337463,1431
891.454102,1465
891.57074,1440
891.687378,1428
891.804077,1435
891.920654,1453
892.037231,1428
892.15387,1480
892.270447,1377
892.387085,1441
892.503723,1419
892.6203,1453
892.736877,1471
892.853516,1428
892.970032,1462
893.08667,1445
893.203186,1396
893.319763,1425
893.43634,1410
893.552917,1445
893.669556,1438
893.786011,1483
893.902588,1462
894.019165,1450
894.135681,1467
894.252197,1458
894.368835,1462
894.485291,1433
894.601868,1435
894.718384,1449
894.8349,1472
894.951355,1444
895.067932,1475
895.184448,1458
895.300964,1477
895.417419,1454
895.533936,1446
895.650452,1460
895.766907,1522
895.883423,1445
895.999878,1454
896.116333,1458
896.232849,1470
896.349304,1487
896.465759,1427
896.582214,1456
896.698669,1438
896.815125,1465
896.931641,1445
897.048035,1453
897.164551,1445
897.280884,1460
897.397339,1480
897.513794,1441
897.630249,1463
897.746582,1501
897.863098,1425
897.979431,1481
898.095886,1479
898.212341,1478
898.328674,1483
898.445129,1474
898.561462,1446
898.677795,1484
898.794312,1456
898.910645,1482
899.026978,1469
899.143433,1467
899.259766,1447
899.37616,1460
899.492493,1474
899.608765,1456
899.725159,1515
899.841553,1494
899.957947,1495
900.07428,1475
900.190552,1524
900.306946,1459
900.423157,1468
900.53949,1475
900.655884,1467
900.772156,1449
900.888489,1482
901.004822,1470
901.121033,1500
901.237366,1440
901.353699,1483
901.46991,1466
901.586304,1497
901.702515,1446
901.818787,1470
901.93512,1488
902.051331,1508
902.167603,1487
902.283875,1476
902.400085,1463
902.516418,1501
902.632629,1493
902.74884,1490
902.865112,1536
902.981384,1461
903.097595,1513
903.213867,1517
903.330017,1499
903.446289,1518
903.5625,1507
903.67865,1467
903.794922,1502
903.911072,1492
904.027344,1518
904.143494,1485
904.259705,1517
904.375916,1474
904.492065,1439
904.608215,1508
904.724426,1442
904.840576,1487
904.956726,1478
905.072876,1477
905.189087,1531
905.305176,1507
905.421387,1493
905.537537,1461
905.653687,1475
905.769775,1497
905.885925,1491
906.002014,1504
906.118164,1511
906.234314,1501
906.350403,1469
906.466492,1535
906.582642,1477
906.69873,1479
906.814758,1511
906.930908,1545
907.046936,1512
907.163086,1516
907.279175,1509
907.395264,1449
907.511353,1456
907.62738,1531
907.743408,1513
907.859497,1546
907.975525,1530
908.091553,1506
908.207703,1493
908.32373,1544
908.439758,1532
908.555786,1487
908.671814,1521
908.787842,1552
908.90387,1493
909.019775,1468
909.135864,1490
909.251892,1473
909.367859,1494
909.483826,1562
909.599854,1532
909.715881,1486
909.831848,1555
909.947815,1475
910.063782,1486
910.179749,1540
910.295776,1497
910.411743,1505
910.527649,1496
910.643616,1520
910.759583,1532
910.875488,1535
910.991455,1540
911.107361,1515
911.223267,1525
911.339294,1503
911.4552,1525
911.571106,1502
911.687073,1516
911.802979,1512
911.918823,1491
912.034729,1519
912.150635,1481
912.266602,1530
912.382446,1557
912.498352,1519
912.614197,1495
912.730103,1493
912.846008,1419
792.44574,2267
792.56488,2268
792.68396,2268
792.80304,2255
792.92218,2183
793.041199,2123
793.160339,2136
793.279419,2128
793.398499,2123
793.517578,2133
793.636658,2133
793.755737,2139
793.874817,2094
793.993896,2112
794.112976,2103
794.232056,2006
794.351074,2067
794.470215,2090
794.589233,2050
794.708313,2026
794.827393,1990
794.946411,2044
795.065552,2002
795.18457,1996
795.303589,2016
795.422668,1993
795.541687,2056
795.660767,1992
795.779846,2019
795.898865,1956
796.017883,2020
796.136963,1963
796.255981,1956
796.375061,1914
796.49408,1926
796.613037,1988
796.732117,1937
796.851135,1951
796.970154,1948
797.089233,1968
797.208191,1899
797.327271,1895
797.446228,1952
797.565186,1930
797.684265,1940
797.803223,1900
797.922241,1888
798.04126,1870
798.160278,1907
798.279297,1918
798.398315,1939
798.517273,1920
798.636292,1913
798.75531,1899
798.874268,1907
798.993286,1939
799.112244,1923
799.231323,1944
799.350281,1887
799.469238,1927
799.588257,1901
799.707153,1944
799.826111,1921
799.945129,1887
800.064087,1913
800.183044,1974
800.302063,1894
800.421021,1944
800.539978,1893
800.658936,1924
800.777893,1863
800.896912,1910
801.015747,1924
801.134705,1963
801.253723,1890
801.37262,1900
801.491638,1928
801.610535,1952
801.729492,1917
801.84845,1909
801.967407,1925
802.086243,1918
802.205261,1920
802.324158,1975
802.443115,1889
802.562073,1931
802.680969,1924
802.799927,1953
802.918762,1948
803.037659,1906
803.156677,1949
803.275574,1979
803.39447,1990
803.513428,1953
803.632263,1965
803.751221,1977
803.870117,1956
803.989014,2003
804.107971,1924
804.226746,1942
804.345642,1983
804.4646,1991
804.583496,2001
804.702393,1966
804.821228,1982
804.940125,1960
805.059021,1955
805.177917,1926
805.296814,1976
805.415649,1977
805.534546,2013
805.653442,1981
805.772278,2026
805.891113,2017
806.01001,2011
806.128906,2022
806.247742,2040
806.366577,2065
806.485413,2045
806.604309,2043
806.723145,1986
806.84198,2018
806.960876,2033
807.079712,2054
807.198486,2026
807.317383,2000
807.436218,2045
807.554993,2025
807.673889,2029
807.792725,2022
807.91156,2080
808.030396,2067
808.14917,2003
808.268005,2010
808.386841,2034
808.505676,2026
808.624451,2044
808.743286,2046
808.862122,2099
808.980896,2049
809.099731,2107
809.218506,2028
809.337341,2084
809.456116,2093
809.57489,2111
809.693726,2099
809.8125,2043
809.931274,2089
810.050049,2058
810.168884,2116
810.287659,2039
810.406372,2083
810.525269,2110
810.643982,2088
810.762756,2069
810.881531,2101
811.000305,2070
811.11908,2105
811.237854,2105
811.356567,2149
811.475403,2104
811.594116,2138
811.71283,2128
811.831604,2120
811.950378,2068
812.069153,2116
812.187927,2058
812.30658,2092
812.425415,2105
812.544128,2081
812.662781,2097
812.781616,2090
812.900269,2093
813.019043,2048
813.137756,2056
813.256531,2129
813.375244,2092
813.493896,2030
813.612671,2084
813.731384,2120
813.850037,2100
813.96875,2076
814.087524,2078
814.206238,2103
814.324951,1985
814.443604,2056
814.562256,2055
814.68103,2021
814.799683,2110
814.918335,2001
815.037109,2063
815.155762,2015
815.274475,2032
815.393188,2061
815.511841,2004
815.630554,2010
815.749146,2014
815.867859,2016
815.986572,1962
816.105164,2025
816.223877,1957
816.342529,1974
816.461182,1984
816.579895,1974
816.698486,1992
816.817139,2042
816.935791,2008
817.054504,2022
817.173096,2006
817.291748,1973
817.4104,1984
817.529053,1945
817.647644,1934
817.766235,1896
817.884949,1813
818.00354,1781
818.122192,1821
818.240845,1803
818.359436,1738
818.478088,1724
818.59668,1685
818.715271,1701
818.833923,1708
818.952515,1633
819.071106,1664
819.189758,1626
819.30835,1605
819.426941,1606
819.545532,1633
819.664124,1578
819.782715,1586
819.901306,1522
820.019897,1576
820.138489,1551
820.25708,1585
820.375671,1520
820.494202,1522
820.612732,1535
820.731384,1496
820.849915,1476
820.968506,1529
821.087097,1539
821.205627,1527
821.324158,1535
821.442749,1508
821.561279,1555
821.679871,1490
821.798401,1509
821.916931,1509
822.035461,1477
822.154053,1492
822.272583,1463
822.391174,1515
822.509583,1475
822.628174,1487
822.746704,1468
822.865234,1474
822.983765,1461
823.102295,1482
823.220825,1446
823.339294,1531
823.457825,1478
823.576355,1505
823.694824,1466
823.813354,1486
823.931885,1445
824.050354,1528
824.168884,1471
824.287354,1498
824.405823,1490
824.524353,1485
824.642822,1504
824.761353,1510
824.879822,1513
824.998291,1518
825.116699,1462
825.235291,1464
825.353699,1479
825.472168,1451
825.590637,1468
825.709106,1495
825.827576,1418
825.946045,1423
826.064453,1432
826.182983,1446
826.301392,1444
826.4198,1463
826.53833,1421
826.656738,1431
826.775208,1418
826.893677,1449
827.012024,1397
827.130493,1448
827.248962,1409
827.36731,1431
827.485779,1383
827.604248,1409
827.722595,1449
827.841064,1405
827.959412,1399
828.077942,1419
828.196289,1395
828.314636,1411
828.433105,1391
828.551514,1361
828.669861,1427
828.78833,1335
828.906677,1380
829.025085,1414
829.143433,1364
829.261841,1361
829.38031,1387
829.498657,1385
829.617004,1367
829.735413,1370
829.85376,1398
829.972107,1362
830.090515,1364
830.208862,1384
830.327209,1325
830.445557,1367
830.563904,1383
830.682312,1383
830.800659,1360
830.919006,1381
831.037354,1387
831.155701,1394
831.274048,1343
831.392395,1372
831.51062,1356
831.629028,1367
831.747314,1351
831.865662,1384
831.984009,1381
832.102356,1392
832.220642,1376
832.338928,1386
832.457275,1404
832.575623,1373
832.693909,1339
832.812134,1375
832.930481,1316
833.048828,1369
833.167114,1358
833.2854,1364
833.403687,1390
833.521973,1382
833.640259,1390
833.758545,1380
833.876831,1352
833.995056,1373
834.113281,1379
834.231628,1376
834.349915,1338
834.468201,1410
834.586426,1350
834.704651,1466
834.822998,1337
834.941162,1347
835.059448,1390
835.177673,1383
835.295959,1402
835.414246,1358
835.53241,1384
835.650635,1371
835.768921,1347
835.887146,1370
836.005371,1419
836.123596,1371
836.241821,1381
836.360046,1398
836.478271,1404
836.596497,1459
836.714722,1394
836.832886,1434
836.95105,1432
837.069336,1432
837.1875,1467
837.305725,1456
837.423889,1441
837.542053,1450
837.660339,1471
837.778503,1451
837.896667,1475
838.014832,1447
838.132996,1462
838.25116,1452
838.369385,1449
838.487488,1431
838.605713,1420
838.723877,1408
838.84198,1466
838.960205,1406
839.078308,1465
839.196472,1423
839.314636,1425
839.4328,1449
839.550964,1395
839.669067,1433
839.787231,1427
839.905396,1396
840.023499,1410
840.141602,1427
840.259766,1422
840.377869,1415
840.495972,1447
840.614136,1427
840.732239,1419
840.850342,1415
840.968445,1416
841.086548,1422
841.204651,1395
841.322754,1419
841.440918,1394
841.55896,1384
841.677002,1394
841.795166,1373
841.913208,1408
842.031311,1393
842.149353,1377
842.267456,1415
842.385498,1393
842.503601,1398
842.621643,1335
842.739746,1395
842.857788,1387
842.97583,1364
843.093933,1376
843.211975,1355
843.330017,1340
843.44812,1385
843.566101,1362
843.684204,1372
843.802246,1342
843.920227,1404
844.038269,1410
844.156311,1369
844.274292,1394
844.392395,1352
844.510376,1400
844.628357,1364
844.74646,1367
844.864441,1369
844.982422,1347
845.100403,1339
845.218384,1321
845.336426,1331
845.454468,1361
845.572449,1346
845.69043,1372
845.808411,1348
845.926453,1374
846.044373,1355
846.162354,1385
846.280396,1347
846.398315,1305
846.516296,1356
846.634216,1312
846.752197,1355
846.870178,1362
846.988098,1329
847.106079,1332
847.22406,1363
847.34198,1375
847.4599,1339
847.577881,1355
847.695801,1355
847.813782,1345
847.931641,1346
848.049561,1356
848.167603,1354
848.285461,1379
848.403381,1350
848.521362,1343
848.639221,1357
848.75708,1378
848.875,1349
848.99292,1351
849.110901,1349
849.22876,1389
849.34668,1388
849.464539,1399
849.582458,1376
849.700317,1367
849.818176,1369
849.936096,1348
850.053955,1393
850.171875,1384
850.289673,1373
850.407593,1379
850.525452,1402
850.643311,1354
850.761169,1356
850.878967,1387
850.996887,1354
851.114746,1330
851.232544,1392
851.350403,1366
851.468262,1314
851.58606,1391
851.703979,1372
851.821777,1339
851.939636,1360
852.057434,1352
852.175232,1368
852.293091,1348
852.410889,1372
852.528687,1369
852.646545,1378
852.764343,1324
852.88208,1399
852.999939,1374
853.117676,1396
853.235535,1374
853.353271,1344
853.471069,1323
853.588928,1358
853.706604,1376
853.824402,1395
853.9422,1374
854.059998,1356
854.177734,1396
854.295532,1338
854.413269,1394
854.531006,1366
854.648804,1400
854.766541,1380
854.884277,1350
855.002014,1369
855.119751,1367
855.237549,1384
855.355225,1397
855.473022,1399
855.590698,1387
855.708435,1388
855.826172,1369
855.943848,1430
856.061646,1379
856.179321,1383
856.296997,1344
856.414795,1384
856.53241,1381
856.650085,1420
856.767822,1358
856.885559,1439
857.003174,1370
857.120911,1411
857.238586,1418
857.356201,1434
857.473938,1374
857.591614,1379
857.709351,1392
857.826965,1374
857.944641,1335
858.062317,1392
858.179993,1398
858.297668,1400
858.415283,1381
858.532959,1394
858.650574,1381
858.768188,1371
858.885803,1346
859.003479,1364
859.121094,1368
859.23877,1405
859.356384,1363
859.473999,1370
859.591675,1405
859.709229,1367
859.826843,1358
859.944458,1373
860.062012,1384
860.179626,1369
860.297302,1385
860.414856,1423
860.532471,1379
860.650024,1376
860.767639,1361
860.885193,1377
861.002808,1360
861.120361,1385
861.237976,1342
861.35553,1388
861.473022,1354
861.590698,1330
861.708191,1369
861.825745,1373
861.943298,1411
862.060852,1396
862.178406,1355
862.295959,1374
862.413513,1352
862.531006,1347
862.64856,1401
862.766113,1354
862.883667,1341
863.00116,1400
863.118713,1378
863.236206,1367
863.353699,1383
863.471252,1354
863.588745,1358
863.706177,1366
863.82373,1371
863.941162,1384
864.058716,1379
864.176208,1373
864.29364,1387
864.411194,1392
864.528687,1365
864.646118,1366
864.763611,1354
864.881042,1409
864.998535,1349
865.116028,1375
865.233459,1376
865.350891,1386
865.468384,1369
865.585754,1362
865.703308,1390
865.820679,1386
865.938171,1395
866.055542,1395
866.173035,1376
866.290466,1428
866.407837,1385
866.52533,1406
866.6427,1433
866.760071,1388
866.877563,1371
866.994934,1419
867.112305,1377
867.229736,1414
867.347107,1391
867.464539,1357
867.58197,1373
867.699341,1393
867.81665,1340
867.934082,1427
868.051453,1389
868.168823,1388
868.286194,1383
868.403564,1400
868.520935,1379
868.638306,1374
868.755676,1380
868.872986,1332
868.990295,1447
869.107727,1395
869.225037,1421
869.342346,1419
869.459717,1396
869.577026,1395
869.694336,1413
869.811707,1413
869.929016,1379
870.046326,1386
870.163635,1414
870.280945,1408
870.398254,1399
870.515564,1431
870.632812,1370
870.750183,1397
870.867432,1394
870.984741,1424
871.102051,1387
871.219299,1410
871.336609,1426
871.453918,1391
871.571106,1408
871.688416,1400
871.805664,1402
871.922852,1426
872.040222,1390
872.157471,1376
872.274719,1391
872.391968,1399
872.509155,1396
872.626465,1387
872.743652,1418
872.860962,1388
872.978149,1417
873.095337,1378
873.212646,1433
873.329834,1425
873.44696,1381
873.564209,1356
873.681396,1411
873.798645,1379
873.915894,1440
874.03302,1386
874.150208,1397
874.267456,1403
874.384583,1412
874.501831,1429
874.618958,1427
874.736145,1393
874.853333,1407
874.970459,1430
875.087646,1426
875.204834,1400
875.32196,1358
875.439148,1388
875.556274,1414
875.673401,1403
875.790527,1405
875.907715,1345
876.024841,1442
876.141968,1441
876.259094,1389
876.376282,1395
876.493347,1397
876.610474,1400
876.7276,1391
876.844727,1395
876.961853,1402
877.078918,1422
877.195984,1397
877.313171,1427
877.430237,1438
877.547302,1405
877.664368,1409
877.781433,1488
877.898499,1419
878.015625,1405
878.13269,1414
878.249695,1404
878.366821,1379
878.483887,1428
878.600952,1411
878.717957,1461
878.834961,1413
878.952087,1429
879.069092,1365
879.186157,1435
879.303162,1408
879.420227,1422
879.537231,1404
879.654236,1404
879.77124,1377
879.888306,1414
880.005249,1421
880.122314,1397
880.239319,1414
880.356323,1398
880.473328,1411
880.590271,1417
880.707275,1383
880.824341,1459
880.941284,1397
881.058228,1363
881.175232,1386
881.292236,1401
881.40918,1412
881.526123,1412
881.643066,1383
881.760071,1433
881.877014,1428
881.993958,1446
882.11084,1403
882.227783,1459
882.344727,1381
882.46167,1416
882.578613,1408
882.695618,1398
882.812439,1429
882.929382,1407
883.046326,1418
883.163208,1427
883.280151,1393
883.397034,1426
883.513916,1400
883.630798,1393
883.747742,1461
883.864563,1414
883.981506,1407
884.098389,1453
884.21521,1438
884.332153,1462
884.448975,1441
884.565796,1451
884.682678,1471
884.7995,1420
884.916443,1471
885.033264,1454
885.150085,1459
885.266968,1448
885.383789,1438
885.500671,1497
885.617493,1450
885.734314,1462
885.851196,1439
885.967896,1441
886.084717,1472
886.201599,1470
886.318359,1445
886.435181,1452
886.552002,1430
886.668762,1472
886.785645,1437
886.902344,1441
887.019165,1441
887.135925,1443
887.252747,1475
887.369446,1439
887.486267,1468
887.603027,1435
887.719788,1463
887.836548,1459
887.953247,1460
888.070068,1457
888.186829,1457
888.303528,1433
888.420288,1452
888.536987,1434
888.653687,1402
888.770447,1484
888.887146,1431
889.003967,1436
889.120667,1474
889.237305,1477
889.354065,1452
889.470703,1427
889.587463,1434
889.704163,1425
889.820862,1455
889.937561,1415
890.054199,1412
890.170837,1452
890.287598,1480
890.404236,1420
890.520874,1468
890.637634,1422
890.754211,1493
890.87085,1439
890.987549,1450
891.104187,1427
891.220886,1461
891.337463,1431
891.454102,1441
891.57074,1470
891.687378,1442
891.804077,1469
891.920654,1396
892.037231,1462
892.15387,1431
892.270447,1448
892.387085,1474
892.503723,1452
892.6203,1445
892.736877,1467
892.853516,1467
892.970032,1455
893.08667,1449
893.203186,1444
893.319763,1455
893.43634,1463
893.552917,1469
893.669556,1450
893.786011,1524
893.902588,1446
894.019165,1457
894.135681,1456
894.252197,1447
894.368835,1451
894.485291,1505
894.601868,1480
894.718384,1481
894.8349,1489
894.951355,1459
895.067932,1480
895.184448,1464
895.300964,1473
895.417419,1456
895.533936,1483
895.650452,1461
895.766907,1488
895.883423,1460
895.999878,1528
896.116333,1459
896.232849,1492
896.349304,1469
896.465759,1494
896.582214,1443
896.698669,1457
896.815125,1507
896.931641,1493
897.048035,1442
897.164551,1473
897.280884,1467
897.397339,1463
897.513794,1445
897.630249,1453
897.746582,1460
897.863098,1496
897.979431,1470
898.095886,1469
898.212341,1460
898.328674,1520
898.445129,1523
898.561462,1522
898.677795,1479
898.794312,1487
898.910645,1486
899.026978,1453
899.143433,1527
899.259766,1451
899.37616,1450
899.492493,1477
899.608765,1520
899.725159,1446
899.841553,1499
899.957947,1528
900.07428,1465
900.190552,1494
900.306946,1446
900.423157,1465
900.53949,1449
900.655884,1485
900.772156,1500
900.888489,1474
901.004822,1489
901.121033,1493
901.237366,1513
901.353699,1473
901.46991,1437
901.586304,1536
901.702515,1504
901.818787,1491
901.93512,1505
902.051331,1489
902.167603,1505
902.283875,1516
902.400085,1542
902.516418,1550
902.632629,1495
902.74884,1563
902.865112,1536
902.981384,1523
903.097595,1542
903.213867,1511
903.330017,1511
903.446289,1490
903.5625,1516
903.67865,1509
903.794922,1557
903.911072,1550
904.027344,1497
904.143494,1533
904.259705,1493
904.375916,1530
904.492065,1495
904.608215,1494
904.724426,1484
904.840576,1526
904.956726,1491
905.072876,1507
905.189087,1497
905.305176,1509
905.421387,1507
905.537537,1510
905.653687,1498
905.769775,1524
905.885925,1521
906.002014,1504
906.118164,1463
906.234314,1520
906.350403,1524
906.466492,1500
906.582642,1528
906.69873,1509
906.814758,1531
906.930908,1479
907.046936,1475
907.163086,1456
907.279175,1548
907.395264,1477
907.511353,1476
907.62738,1575
907.743408,1503
907.859497,1522
907.975525,1497
908.091553,1524
908.207703,1512
908.32373,1518
908.439758,1521
908.555786,1541
908.671814,1560
908.787842,1510
908.90387,1540
909.019775,1515
909.135864,1499
909.251892,1491
909.367859,1545
909.483826,1550
909.599854,1536
909.715881,1537
909.831848,1548
909.947815,1507
910.063782,1535
910.179749,1557
910.295776,1464
910.411743,1558
910.527649,1535
910.643616,1518
910.759583,1506
910.875488,1550
910.991455,1487
911.107361,1524
911.223267,1528
911.339294,1565
911.4552,1524
911.571106,1531
911.687073,1478
911.802979,1533
911.918823,1502
912.034729,1505
912.150635,1546
912.266602,1511
912.382446,1496
912.498352,1516
912.614197,1466
912.730103,1508
912.846008,1510
