792.44574,2113
792.56488,2114
792.68396,2104
792.80304,2040
792.92218,2049
793.041199,1902
793.160339,1945
793.279419,1933
793.398499,1879
793.517578,1915
793.636658,1885
793.755737,1878
793.874817,1834
793.993896,1870
794.112976,1792
794.232056,1809
794.351074,1752
794.470215,1835
794.589233,1741
794.708313,1721
794.827393,1725
794.946411,1721
795.065552,1766
795.18457,1732
795.303589,1755
795.422668,1759
795.541687,1769
795.660767,1715
795.779846,1733
795.898865,1715
796.017883,1691
796.136963,1705
796.255981,1659
796.375061,1642
796.49408,1684
796.613037,1702
796.732117,1684
796.851135,1671
796.970154,1699
797.089233,1659
797.208191,1617
797.327271,1619
797.446228,1649
797.565186,1655
797.684265,1618
797.803223,1610
797.922241,1610
798.04126,1632
798.160278,1665
798.279297,1673
798.398315,1616
798.517273,1620
798.636292,1590
798.75531,1618
798.874268,1586
798.993286,1642
799.112244,1566
799.231323,1630
799.350281,1610
799.469238,1625
799.588257,1606
799.707153,1607
799.826111,1567
799.945129,1595
800.064087,1574
800.183044,1621
800.302063,1586
800.421021,1634
800.539978,1552
800.658936,1561
800.777893,1588
800.896912,1580
801.015747,1569
801.134705,1565
801.253723,1609
801.37262,1582
801.491638,1581
801.610535,1557
801.729492,1554
801.84845,1583
801.967407,1593
802.086243,1577
802.205261,1569
802.324158,1596
802.443115,1558
802.562073,1593
802.680969,1594
802.799927,1580
802.918762,1623
803.037659,1582
803.156677,1554
803.275574,1604
803.39447,1600
803.513428,1557
803.632263,1537
803.751221,1631
803.870117,1533
803.989014,1580
804.107971,1554
804.226746,1569
804.345642,1615
804.4646,1551
804.583496,1578
804.702393,1599
804.821228,1548
804.940125,1594
805.059021,1558
805.177917,1543
805.296814,1526
805.415649,1540
805.534546,1545
805.653442,1565
805.772278,1579
805.891113,1590
806.01001,1586
806.128906,1599
806.247742,1585
806.366577,1565
806.485413,1597
806.604309,1558
806.723145,1581
806.84198,1591
806.960876,1558
807.079712,1510
807.198486,1576
807.317383,1572
807.436218,1564
807.554993,1518
807.673889,1559
807.792725,1593
807.91156,1518
808.030396,1619
808.14917,1570
808.268005,1554
808.386841,1539
808.505676,1561
808.624451,1529
808.743286,1543
808.862122,1596
808.980896,1593
809.099731,1570
809.218506,1588
809.337341,1590
809.456116,1572
809.57489,1612
809.693726,1574
809.8125,1543
809.931274,1567
810.050049,1600
810.168884,1567
810.287659,1579
810.406372,1604
810.525269,1538
810.643982,1591
810.762756,1521
810.881531,1564
811.000305,1606
811.11908,1547
811.237854,1543
811.356567,1582
811.475403,1572
811.594116,1548
811.71283,1569
811.831604,1612
811.950378,1551
812.069153,1578
812.187927,1538
812.30658,1587
812.425415,1600
812.544128,1593
812.662781,1561
812.781616,1569
812.900269,1524
813.019043,1561
813.137756,1570
813.256531,1545
813.375244,1500
813.493896,1523
813.612671,1543
813.731384,1565
813.850037,1554
813.96875,1546
814.087524,1543
814.206238,1551
814.324951,1592
814.443604,1524
814.562256,1538
814.68103,1555
814.799683,1506
814.918335,1544
815.037109,1516
815.155762,1553
815.274475,1495
815.393188,1510
815.511841,1517
815.630554,1523
815.749146,1484
815.867859,1490
815.986572,1514
816.105164,1484
816.223877,1504
816.342529,1528
816.461182,1553
816.579895,1527
816.698486,1512
816.817139,1536
816.935791,1516
817.054504,1537
817.173096,1498
817.291748,1507
817.4104,1521
817.529053,1508
817.647644,1537
817.766235,1493
817.884949,1485
818.00354,1500
818.122192,1450
818.240845,1465
818.359436,1456
818.478088,1420
818.59668,1418
818.715271,1412
818.833923,1478
818.952515,1423
819.071106,1406
819.189758,1401
819.30835,1442
819.426941,1394
819.545532,1388
819.664124,1406
819.782715,1385
819.901306,1390
820.019897,1361
820.138489,1385
820.25708,1388
820.375671,1400
820.494202,1366
820.612732,1346
820.731384,1385
820.849915,1394
820.968506,1382
821.087097,1398
821.205627,1344
821.324158,1355
821.442749,1376
821.561279,1402
821.679871,1329
821.798401,1355
821.916931,1370
822.035461,1396
822.154053,1334
822.272583,1352
822.391174,1377
822.509583,1344
822.628174,1355
822.746704,1364
822.865234,1376
822.983765,1345
823.102295,1343
823.220825,1330
823.339294,1343
823.457825,1331
823.576355,1351
823.694824,1350
823.813354,1335
823.931885,1352
824.050354,1297
824.168884,1395
824.287354,1360
824.405823,1375
824.524353,1355
824.642822,1408
824.761353,1352
824.879822,1381
824.998291,1371
825.116699,1359
825.235291,1337
825.353699,1372
825.472168,1337
825.590637,1317
825.709106,1356
825.827576,1323
825.946045,1324
826.064453,1337
826.182983,1318
826.301392,1347
826.4198,1303
826.53833,1309
826.656738,1313
826.775208,1326
826.893677,1330
827.012024,1296
827.130493,1318
827.248962,1310
827.36731,1326
827.485779,1347
827.604248,1333
827.722595,1300
827.841064,1295
827.959412,1301
828.077942,1319
828.196289,1311
828.314636,1302
828.433105,1317
828.551514,1311
828.669861,1320
828.78833,1277
828.906677,1288
829.025085,1288
829.143433,1310
829.261841,1294
829.38031,1318
829.498657,1297
829.617004,1320
829.735413,1330
829.85376,1270
829.972107,1301
830.090515,1304
830.208862,1300
830.327209,1305
830.445557,1271
830.563904,1285
830.682312,1293
830.800659,1316
830.919006,1300
831.037354,1294
831.155701,1341
831.274048,1320
831.392395,1303
831.51062,1357
831.629028,1380
831.747314,1352
831.865662,1290
831.984009,1302
832.102356,1323
832.220642,1314
832.338928,1324
832.457275,1289
832.575623,1305
832.693909,1339
832.812134,1311
832.930481,1291
833.048828,1298
833.167114,1315
833.2854,1283
833.403687,1330
833.521973,1313
833.640259,1293
833.758545,1289
833.876831,1286
833.995056,1304
834.113281,1284
834.231628,1330
834.349915,1287
834.468201,1279
834.586426,1313
834.704651,1306
834.822998,1267
834.941162,1306
835.059448,1283
835.177673,1323
835.295959,1279
835.414246,1314
835.53241,1313
835.650635,1324
835.768921,1300
835.887146,1316
836.005371,1305
836.123596,1290
836.241821,1324
836.360046,1289
836.478271,1314
836.596497,1327
836.714722,1303
836.832886,1334
836.95105,1329
837.069336,1308
837.1875,1286
837.305725,1314
837.423889,1275
837.542053,1333
837.660339,1308
837.778503,1328
837.896667,1313
838.014832,1293
838.132996,1300
838.25116,1331
838.369385,1363
838.487488,1337
838.605713,1299
838.723877,1343
838.84198,1306
838.960205,1314
839.078308,1330
839.196472,1325
839.314636,1300
839.4328,1301
839.550964,1304
839.669067,1308
839.787231,1330
839.905396,1348
840.023499,1310
840.141602,1317
840.259766,1317
840.377869,1305
840.495972,1345
840.614136,1286
840.732239,1327
840.850342,1330
840.968445,1322
841.086548,1320
841.204651,1294
841.322754,1361
841.440918,1332
841.55896,1326
841.677002,1331
841.795166,1343
841.913208,1319
842.031311,1334
842.149353,1346
842.267456,1306
842.385498,1300
842.503601,1296
842.621643,1322
842.739746,1295
842.857788,1310
842.97583,1319
843.093933,1305
843.211975,1327
843.330017,1337
843.44812,1319
843.566101,1286
843.684204,1335
843.802246,1334
843.920227,1323
844.038269,1283
844.156311,1313
844.274292,1320
844.392395,1283
844.510376,1259
844.628357,1292
844.74646,1320
844.864441,1335
844.982422,1281
845.100403,1302
845.218384,1324
845.336426,1297
845.454468,1322
845.572449,1280
845.69043,1307
845.808411,1274
845.926453,1308
846.044373,1302
846.162354,1270
846.280396,1329
846.398315,1317
846.516296,1328
846.634216,1296
846.752197,1331
846.870178,1368
846.988098,1298
847.106079,1293
847.22406,1278
847.34198,1279
847.4599,1314
847.577881,1318
847.695801,1308
847.813782,1307
847.931641,1330
848.049561,1304
848.167603,1271
848.285461,1341
848.403381,1325
848.521362,1285
848.639221,1326
848.75708,1282
848.875,1255
848.99292,1307
849.110901,1266
849.22876,1298
849.34668,1280
849.464539,1302
849.582458,1293
849.700317,1344
849.818176,1286
849.936096,1311
850.053955,1295
850.171875,1308
850.289673,1324
850.407593,1257
850.525452,1319
850.643311,1299
850.761169,1290
850.878967,1292
850.996887,1320
851.114746,1316
851.232544,1258
851.350403,1279
851.468262,1308
851.58606,1337
851.703979,1320
851.821777,1291
851.939636,1328
852.057434,1305
852.175232,1289
852.293091,1295
852.410889,1342
852.528687,1311
852.646545,1328
852.764343,1338
852.88208,1297
852.999939,1341
853.117676,1336
853.235535,1339
853.353271,1332
853.471069,1303
853.588928,1300
853.706604,1294
853.824402,1325
853.9422,1344
854.059998,1310
854.177734,1317
854.295532,1298
854.413269,1321
854.531006,1293
854.648804,1360
854.766541,1313
854.884277,1336
855.002014,1267
855.119751,1333
855.237549,1310
855.355225,1302
855.473022,1312
855.590698,1334
855.708435,1317
855.826172,1300
855.943848,1300
856.061646,1345
856.179321,1292
856.296997,1347
856.414795,1304
856.53241,1314
856.650085,1295
856.767822,1357
856.885559,1315
857.003174,1363
857.120911,1338
857.238586,1355
857.356201,1345
857.473938,1361
857.591614,1310
857.709351,1345
857.826965,1362
857.944641,1344
858.062317,1351
858.179993,1328
858.297668,1314
858.415283,1346
858.532959,1334
858.650574,1339
858.768188,1308
858.885803,1344
859.003479,1325
859.121094,1337
859.23877,1334
859.356384,1321
859.473999,1327
859.591675,1297
859.709229,1323
859.826843,1285
859.944458,1318
860.062012,1322
860.179626,1343
860.297302,1293
860.414856,1308
860.532471,1302
860.650024,1328
860.767639,1331
860.885193,1292
861.002808,1316
861.120361,1315
861.237976,1316
861.35553,1324
861.473022,1303
861.590698,1327
861.708191,1297
861.825745,1319
861.943298,1279
862.060852,1351
862.178406,1308
862.295959,1286
862.413513,1306
862.531006,1293
862.64856,1304
862.766113,1284
862.883667,1294
863.00116,1309
863.118713,1259
863.236206,1297
863.353699,1341
863.471252,1279
863.588745,1313
863.706177,1349
863.82373,1301
863.941162,1300
864.058716,1315
864.176208,1313
864.29364,1348
864.411194,1311
864.528687,1288
864.646118,1303
864.763611,1300
864.881042,1294
864.998535,1303
865.116028,1352
865.233459,1309
865.350891,1301
865.468384,1326
865.585754,1314
865.703308,1252
865.820679,1308
865.938171,1334
866.055542,1320
866.173035,1329
866.290466,1298
866.407837,1407
866.52533,1338
866.6427,1331
866.760071,1321
866.877563,1317
866.994934,1336
867.112305,1295
867.229736,1339
867.347107,1309
867.464539,1298
867.58197,1315
867.699341,1288
867.81665,1342
867.934082,1321
868.051453,1333
868.168823,1314
868.286194,1281
868.403564,1305
868.520935,1356
868.638306,1305
868.755676,1333
868.872986,1310
868.990295,1374
869.107727,1309
869.225037,1349
869.342346,1313
869.459717,1350
869.577026,1341
869.694336,1302
869.811707,1344
869.929016,1328
870.046326,1332
870.163635,1347
870.280945,1342
870.398254,1350
870.515564,1353
870.632812,1301
870.750183,1333
870.867432,1372
870.984741,1385
871.102051,1333
871.219299,1333
871.336609,1359
871.453918,1372
871.571106,1352
871.688416,1370
871.805664,1360
871.922852,1371
872.040222,1355
872.157471,1351
872.274719,1389
872.391968,1368
872.509155,1353
872.626465,1349
872.743652,1327
872.860962,1347
872.978149,1307
873.095337,1351
873.212646,1347
873.329834,1353
873.44696,1375
873.564209,1306
873.681396,1393
873.798645,1345
873.915894,1402
874.03302,1369
874.150208,1372
874.267456,1341
874.384583,1315
874.501831,1354
874.618958,1372
874.736145,1369
874.853333,1364
874.970459,1341
875.087646,1331
875.204834,1328
875.32196,1351
875.439148,1369
875.556274,1312
875.673401,1371
875.790527,1325
875.907715,1341
876.024841,1354
876.141968,1379
876.259094,1343
876.376282,1307
876.493347,1343
876.610474,1359
876.7276,1311
876.844727,1298
876.961853,1364
877.078918,1322
877.195984,1331
877.313171,1303
877.430237,1357
877.547302,1323
877.664368,1370
877.781433,1344
877.898499,1394
878.015625,1353
878.13269,1364
878.249695,1345
878.366821,1349
878.483887,1355
878.600952,1342
878.717957,1370
878.834961,1350
878.952087,1342
879.069092,1347
879.186157,1322
879.303162,1344
879.420227,1316
879.537231,1311
879.654236,1333
879.77124,1354
879.888306,1334
880.005249,1353
880.122314,1343
880.239319,1336
880.356323,1321
880.473328,1340
880.590271,1342
880.707275,1341
880.824341,1321
880.941284,1318
881.058228,1348
881.175232,1344
881.292236,1329
881.40918,1353
881.526123,1338
881.643066,1367
881.760071,1340
881.877014,1371
881.993958,1368
882.11084,1297
882.227783,1337
882.344727,1345
882.46167,1378
882.578613,1302
882.695618,1342
882.812439,1315
882.929382,1307
883.046326,1346
883.163208,1316
883.280151,1357
883.397034,1337
883.513916,1352
883.630798,1339
883.747742,1335
883.864563,1333
883.981506,1354
884.098389,1381
884.21521,1367
884.332153,1384
884.448975,1331
884.565796,1352
884.682678,1379
884.7995,1386
884.916443,1372
885.033264,1401
885.150085,1415
885.266968,1460
885.383789,1428
885.500671,1488
885.617493,1412
885.734314,1403
885.851196,1439
885.967896,1458
886.084717,1410
886.201599,1500
886.318359,1405
886.435181,1398
886.552002,1415
886.668762,1409
886.785645,1416
886.902344,1403
887.019165,1371
887.135925,1425
887.252747,1421
887.369446,1411
887.486267,1400
887.603027,1381
887.719788,1345
887.836548,1347
887.953247,1391
888.070068,1377
888.186829,1371
888.303528,1356
888.420288,1366
888.536987,1396
888.653687,1397
888.770447,1373
888.887146,1335
889.003967,1347
889.120667,1333
889.237305,1357
889.354065,1339
889.470703,1355
889.587463,1333
889.704163,1398
889.820862,1325
889.937561,1348
890.054199,1317
890.170837,1358
890.287598,1338
890.404236,1297
890.520874,1373
890.637634,1372
890.754211,1392
890.87085,1397
890.987549,1379
891.104187,1298
891.220886,1385
891.337463,1342
891.454102,1352
891.57074,1412
891.687378,1355
891.804077,1360
891.920654,1367
892.037231,1347
892.15387,1350
892.270447,1367
892.387085,1379
892.503723,1397
892.6203,1394
892.736877,1336
892.853516,1387
892.970032,1328
893.08667,1373
893.203186,1333
893.319763,1350
893.43634,1363
893.552917,1349
893.669556,1360
893.786011,1370
893.902588,1361
894.019165,1341
894.135681,1364
894.252197,1359
894.368835,1384
894.485291,1401
894.601868,1404
894.718384,1311
894.8349,1381
894.951355,1356
895.067932,1389
895.184448,1320
895.300964,1372
895.417419,1379
895.533936,1353
895.650452,1408
895.766907,1346
895.883423,1375
895.999878,1335
896.116333,1368
896.232849,1372
896.349304,1347
896.465759,1360
896.582214,1354
896.698669,1407
896.815125,1369
896.931641,1347
897.048035,1350
897.164551,1393
897.280884,1352
897.397339,1372
897.513794,1379
897.630249,1364
897.746582,1348
897.863098,1420
897.979431,1381
898.095886,1400
898.212341,1387
898.328674,1413
898.445129,1383
898.561462,1403
898.677795,1369
898.794312,1373
898.910645,1327
899.026978,1378
899.143433,1367
899.259766,1381
899.37616,1369
899.492493,1335
899.608765,1383
899.725159,1354
899.841553,1384
899.957947,1386
900.07428,1364
900.190552,1398
900.306946,1369
900.423157,1418
900.53949,1359
900.655884,1381
900.772156,1412
900.888489,1393
901.004822,1402
901.121033,1381
901.237366,1344
901.353699,1411
901.46991,1377
901.586304,1410
901.702515,1351
901.818787,1405
901.93512,1404
902.051331,1429
902.167603,1413
902.283875,1469
902.400085,1399
902.516418,1459
902.632629,1433
902.74884,1426
902.865112,1405
902.981384,1436
903.097595,1453
903.213867,1430
903.330017,1397
903.446289,1450
903.5625,1447
903.67865,1431
903.794922,1419
903.911072,1423
904.027344,1399
904.143494,1401
904.259705,1422
904.375916,1393
904.492065,1425
904.608215,1407
904.724426,1421
904.840576,1376
904.956726,1432
905.072876,1423
905.189087,1406
905.305176,1421
905.421387,1411
905.537537,1393
905.653687,1401
905.769775,1390
905.885925,1392
906.002014,1378
906.118164,1412
906.234314,1403
906.350403,1388
906.466492,1424
906.582642,1382
906.69873,1407
906.814758,1365
906.930908,1391
907.046936,1394
907.163086,1393
907.279175,1406
907.395264,1406
907.511353,1374
907.62738,1406
907.743408,1411
907.859497,1457
907.975525,1419
908.091553,1392
908.207703,1405
908.32373,1399
908.439758,1361
908.555786,1407
908.671814,1396
908.787842,1360
908.90387,1383
909.019775,1374
909.135864,1434
909.251892,1428
909.367859,1383
909.483826,1436
909.599854,1417
909.715881,1382
909.831848,1392
909.947815,1412
910.063782,1414
910.179749,1436
910.295776,1411
910.411743,1449
910.527649,1435
910.643616,1400
910.759583,1420
910.875488,1449
910.991455,1392
911.107361,1428
911.223267,1431
911.339294,1392
911.4552,1405
911.571106,1361
911.687073,1446
911.802979,1392
911.918823,1421
912.034729,1411
912.150635,1434
912.266602,1430
912.382446,1428
912.498352,1403
912.614197,1393
912.730103,1423
912.846008,1420
792.44574,2150
792.56488,2082
792.68396,2099
792.80304,2089
792.92218,1993
793.041199,1991
793.160339,1964
793.279419,1981
793.398499,1921
793.517578,1950
793.636658,1892
793.755737,1896
793.874817,1889
793.993896,1889
794.112976,1849
794.232056,1818
794.351074,1839
794.470215,1827
794.589233,1857
794.708313,1812
794.827393,1836
794.946411,1817
795.065552,1760
795.18457,1793
795.303589,1792
795.422668,1777
795.541687,1808
795.660767,1758
795.779846,1771
795.898865,1727
796.017883,1660
796.136963,1769
796.255981,1701
796.375061,1706
796.49408,1691
796.613037,1696
796.732117,1688
796.851135,1679
796.970154,1708
797.089233,1674
797.208191,1658
797.327271,1644
797.446228,1634
797.565186,1712
797.684265,1645
797.803223,1697
797.922241,1609
798.04126,1669
798.160278,1675
798.279297,1664
798.398315,1674
798.517273,1687
798.636292,1625
798.75531,1583
798.874268,1621
798.993286,1645
799.112244,1622
799.231323,1627
799.350281,1603
799.469238,1651
799.588257,1599
799.707153,1620
799.826111,1619
799.945129,1645
800.064087,1646
800.183044,1636
800.302063,1644
800.421021,1644
800.539978,1626
800.658936,1642
800.777893,1633
800.896912,1650
801.015747,1592
801.134705,1625
801.253723,1631
801.37262,1593
801.491638,1532
801.610535,1570
801.729492,1635
801.84845,1582
801.967407,1597
802.086243,1549
802.205261,1616
802.324158,1610
802.443115,1607
802.562073,1582
802.680969,1637
802.799927,1612
802.918762,1644
803.037659,1576
803.156677,1651
803.275574,1617
803.39447,1606
803.513428,1577
803.632263,1626
803.751221,1606
803.870117,1574
803.989014,1569
804.107971,1604
804.226746,1592
804.345642,1582
804.4646,1608
804.583496,1603
804.702393,1633
804.821228,1567
804.940125,1588
805.059021,1596
805.177917,1633
805.296814,1627
805.415649,1573
805.534546,1617
805.653442,1607
805.772278,1613
805.891113,1620
806.01001,1626
806.128906,1563
806.247742,1607
806.366577,1619
806.485413,1636
806.604309,1568
806.723145,1594
806.84198,1627
806.960876,1603
807.079712,1591
807.198486,1599
807.317383,1594
807.436218,1576
807.554993,1626
807.673889,1629
807.792725,1607
807.91156,1607
808.030396,1599
808.14917,1587
808.268005,1560
808.386841,1626
808.505676,1608
808.624451,1570
808.743286,1561
808.862122,1580
808.980896,1604
809.099731,1614
809.218506,1534
809.337341,1552
809.456116,1606
809.57489,1566
809.693726,1605
809.8125,1603
809.931274,1579
810.050049,1621
810.168884,1612
810.287659,1575
810.406372,1652
810.525269,1613
810.643982,1577
810.762756,1641
810.881531,1579
811.000305,1619
811.11908,1561
811.237854,1554
811.356567,1580
811.475403,1634
811.594116,1546
811.71283,1607
811.831604,1585
811.950378,1590
812.069153,1590
812.187927,1581
812.30658,1574
812.425415,1649
812.544128,1571
812.662781,1635
812.781616,1579
812.900269,1603
813.019043,1569
813.137756,1576
813.256531,1584
813.375244,1600
813.493896,1537
813.612671,1587
813.731384,1540
813.850037,1616
813.96875,1595
814.087524,1563
814.206238,1570
814.324951,1565
814.443604,1613
814.562256,1573
814.68103,1542
814.799683,1614
814.918335,1584
815.037109,1620
815.155762,1537
815.274475,1573
815.393188,1578
815.511841,1592
815.630554,1544
815.749146,1499
815.867859,1572
815.986572,1572
816.105164,1576
816.223877,1545
816.342529,1533
816.461182,1567
816.579895,1544
816.698486,1572
816.817139,1551
816.935791,1561
817.054504,1578
817.173096,1576
817.291748,1573
817.4104,1575
817.529053,1532
817.647644,1525
817.766235,1515
817.884949,1505
818.00354,1466
818.122192,1501
818.240845,1466
818.359436,1470
818.478088,1500
818.59668,1438
818.715271,1480
818.833923,1491
818.952515,1427
819.071106,1472
819.189758,1402
819.30835,1442
819.426941,1437
819.545532,1417
819.664124,1429
819.782715,1401
819.901306,1442
820.019897,1428
820.138489,1432
820.25708,1444
820.375671,1401
820.494202,1420
820.612732,1415
820.731384,1406
820.849915,1387
820.968506,1393
821.087097,1455
821.205627,1420
821.324158,1427
821.442749,1406
821.561279,1343
821.679871,1399
821.798401,1352
821.916931,1405
822.035461,1368
822.154053,1425
822.272583,1386
822.391174,1376
822.509583,1376
822.628174,1381
822.746704,1371
822.865234,1367
822.983765,1393
823.102295,1398
823.220825,1352
823.339294,1387
823.457825,1373
823.576355,1383
823.694824,1417
823.813354,1414
823.931885,1379
824.050354,1375
824.168884,1414
824.287354,1349
824.405823,1368
824.524353,1430
824.642822,1368
824.761353,1390
824.879822,1379
824.998291,1406
825.116699,1399
825.235291,1381
825.353699,1378
825.472168,1382
825.590637,1342
825.709106,1382
825.827576,1333
825.946045,1325
826.064453,1344
826.182983,1350
826.301392,1336
826.4198,1340
826.53833,1351
826.656738,1351
826.775208,1354
826.893677,1313
827.012024,1320
827.130493,1353
827.248962,1382
827.36731,1296
827.485779,1402
827.604248,1359
827.722595,1338
827.841064,1352
827.959412,1347
828.077942,1337
828.196289,1378
828.314636,1334
828.433105,1318
828.551514,1335
828.669861,1333
828.78833,1312
828.906677,1297
829.025085,1329
829.143433,1321
829.261841,1343
829.38031,1313
829.498657,1340
829.617004,1336
829.735413,1323
829.85376,1358
829.972107,1336
830.090515,1340
830.208862,1364
830.327209,1302
830.445557,1321
830.563904,1342
830.682312,1312
830.800659,1385
830.919006,1328
831.037354,1387
831.155701,1353
831.274048,1338
831.392395,1330
831.51062,1327
831.629028,1369
831.747314,1335
831.865662,1344
831.984009,1350
832.102356,1339
832.220642,1333
832.338928,1319
832.457275,1335
832.575623,1320
832.693909,1302
832.812134,1316
832.930481,1300
833.048828,1320
833.167114,1364
833.2854,1297
833.403687,1339
833.521973,1350
833.640259,1345
833.758545,1340
833.876831,1315
833.995056,1362
834.113281,1311
834.231628,1340
834.349915,1343
834.468201,1328
834.586426,1310
834.704651,1333
834.822998,1323
834.941162,1343
835.059448,1359
835.177673,1279
835.295959,1309
835.414246,1353
835.53241,1295
835.650635,1348
835.768921,1319
835.887146,1363
836.005371,1328
836.123596,1318
836.241821,1334
836.360046,1319
836.478271,1327
836.596497,1333
836.714722,1341
836.832886,1343
836.95105,1340
837.069336,1346
837.1875,1334
837.305725,1369
837.423889,1355
837.542053,1317
837.660339,1331
837.778503,1368
837.896667,1358
838.014832,1360
838.132996,1296
838.25116,1326
838.369385,1330
838.487488,1339
838.605713,1330
838.723877,1350
838.84198,1298
838.960205,1344
839.078308,1312
839.196472,1346
839.314636,1305
839.4328,1311
839.550964,1313
839.669067,1349
839.787231,1356
839.905396,1349
840.023499,1282
840.141602,1393
840.259766,1334
840.377869,1359
840.495972,1363
840.614136,1342
840.732239,1316
840.850342,1370
840.968445,1365
841.086548,1307
841.204651,1315
841.322754,1322
841.440918,1321
841.55896,1318
841.677002,1329
841.795166,1351
841.913208,1362
842.031311,1357
842.149353,1380
842.267456,1384
842.385498,1315
842.503601,1375
842.621643,1344
842.739746,1349
842.857788,1301
842.97583,1370
843.093933,1309
843.211975,1357
843.330017,1336
843.44812,1334
843.566101,1348
843.684204,1332
843.802246,1348
843.920227,1361
844.038269,1314
844.156311,1317
844.274292,1325
844.392395,1367
844.510376,1339
844.628357,1334
844.74646,1322
844.864441,1363
844.982422,1292
845.100403,1346
845.218384,1312
845.336426,1335
845.454468,1314
845.572449,1318
845.69043,1327
845.808411,1354
845.926453,1295
846.044373,1281
846.162354,1334
846.280396,1324
846.398315,1325
846.516296,1375
846.634216,1311
846.752197,1285
846.870178,1297
846.988098,1302
847.106079,1303
847.22406,1336
847.34198,1351
847.4599,1348
847.577881,1320
847.695801,1313
847.813782,1306
847.931641,1322
848.049561,1313
848.167603,1326
848.285461,1323
848.403381,1306
848.521362,1347
848.639221,1303
848.75708,1315
848.875,1326
848.99292,1299
849.110901,1314
849.22876,1311
849.34668,1312
849.464539,1342
849.582458,1314
849.700317,1322
849.818176,1286
849.936096,1329
850.053955,1311
850.171875,1329
850.289673,1334
850.407593,1321
850.525452,1351
850.643311,1335
850.761169,1305
850.878967,1324
850.996887,1346
851.114746,1328
851.232544,1327
851.350403,1350
851.468262,1373
851.58606,1310
851.703979,1327
851.821777,1311
851.939636,1326
852.057434,1301
852.175232,1376
852.293091,1335
852.410889,1390
852.528687,1320
852.646545,1329
852.764343,1366
852.88208,1368
852.999939,1378
853.117676,1342
853.235535,1336
853.353271,1335
853.471069,1339
853.588928,1369
853.706604,1323
853.824402,1366
853.9422,1311
854.059998,1332
854.177734,1330
854.295532,1336
854.413269,1331
854.531006,1341
854.648804,1337
854.766541,1325
854.884277,1334
855.002014,1344
855.119751,1386
855.237549,1367
855.355225,1326
855.473022,1331
855.590698,1308
855.708435,1367
855.826172,1333
855.943848,1356
856.061646,1342
856.179321,1344
856.296997,1324
856.414795,1342
856.53241,1315
856.650085,1367
856.767822,1322
856.885559,1362
857.003174,1316
857.120911,1370
857.238586,1347
857.356201,1347
857.473938,1337
857.591614,1356
857.709351,1321
857.826965,1362
857.944641,1367
858.062317,1340
858.179993,1361
858.297668,1362
858.415283,1383
858.532959,1350
858.650574,1361
858.768188,1391
858.885803,1313
859.003479,1368
859.121094,1339
859.23877,1343
859.356384,1311
859.473999,1319
859.591675,1350
859.709229,1380
859.826843,1341
859.944458,1336
860.062012,1329
860.179626,1338
860.297302,1366
860.414856,1337
860.532471,1348
860.650024,1342
860.767639,1335
860.885193,1352
861.002808,1357
861.120361,1344
861.237976,1352
861.35553,1304
861.473022,1337
861.590698,1382
861.708191,1348
861.825745,1351
861.943298,1320
862.060852,1371
862.178406,1307
862.295959,1336
862.413513,1345
862.531006,1321
862.64856,1338
862.766113,1336
862.883667,1326
863.00116,1361
863.118713,1310
863.236206,1316
863.353699,1304
863.471252,1304
863.588745,1294
863.706177,1331
863.82373,1333
863.941162,1339
864.058716,1345
864.176208,1325
864.29364,1377
864.411194,1360
864.528687,1339
864.646118,1363
864.763611,1330
864.881042,1331
864.998535,1334
865.116028,1352
865.233459,1357
865.350891,1323
865.468384,1336
865.585754,1335
865.703308,1328
865.820679,1337
865.938171,1324
866.055542,1324
866.173035,1328
866.290466,1358
866.407837,1342
866.52533,1348
866.6427,1320
866.760071,1352
866.877563,1312
866.994934,1324
867.112305,1336
867.229736,1340
867.347107,1364
867.464539,1330
867.58197,1314
867.699341,1346
867.81665,1365
867.934082,1327
868.051453,1314
868.168823,1358
868.286194,1370
868.403564,1379
868.520935,1356
868.638306,1371
868.755676,1344
868.872986,1362
868.990295,1396
869.107727,1338
869.225037,1311
869.342346,1365
869.459717,1348
869.577026,1407
869.694336,1343
869.811707,1343
869.929016,1319
870.046326,1338
870.163635,1350
870.280945,1328
870.398254,1348
870.515564,1360
870.632812,1387
870.750183,1366
870.867432,1397
870.984741,1365
871.102051,1340
871.219299,1356
871.336609,1409
871.453918,1384
871.571106,1400
871.688416,1367
871.805664,1343
871.922852,1328
872.040222,1355
872.157471,1394
872.274719,1363
872.391968,1358
872.509155,1401
872.626465,1361
872.743652,1384
872.860962,1373
872.978149,1371
873.095337,1371
873.212646,1405
873.329834,1364
873.44696,1365
873.564209,1367
873.681396,1362
873.798645,1382
873.915894,1381
874.03302,1370
874.150208,1402
874.267456,1399
874.384583,1415
874.501831,1364
874.618958,1373
874.736145,1409
874.853333,1408
874.970459,1371
875.087646,1397
875.204834,1425
875.32196,1371
875.439148,1374
875.556274,1399
875.673401,1396
875.790527,1339
875.907715,1384
876.024841,1367
876.141968,1366
876.259094,1379
876.376282,1414
876.493347,1383
876.610474,1402
876.7276,1343
876.844727,1344
876.961853,1367
877.078918,1373
877.195984,1377
877.313171,1383
877.430237,1337
877.547302,1348
877.664368,1371
877.781433,1357
877.898499,1394
878.015625,1379
878.13269,1322
878.249695,1321
878.366821,1337
878.483887,1374
878.600952,1390
878.717957,1360
878.834961,1391
878.952087,1370
879.069092,1372
879.186157,1372
879.303162,1354
879.420227,1349
879.537231,1366
879.654236,1349
879.77124,1374
879.888306,1375
880.005249,1339
880.122314,1388
880.239319,1336
880.356323,1352
880.473328,1370
880.590271,1325
880.707275,1366
880.824341,1358
880.941284,1363
881.058228,1383
881.175232,1352
881.292236,1320
881.40918,1336
881.526123,1433
881.643066,1345
881.760071,1358
881.877014,1360
881.993958,1318
882.11084,1340
882.227783,1353
882.344727,1355
882.46167,1390
882.578613,1333
882.695618,1368
882.812439,1346
882.929382,1355
883.046326,1384
883.163208,1370
883.280151,1326
883.397034,1390
883.513916,1333
883.630798,1359
883.747742,1380
883.864563,1397
883.981506,1433
884.098389,1375
884.21521,1387
884.332153,1399
884.448975,1377
884.565796,1414
884.682678,1377
884.7995,1443
884.916443,1402
885.033264,1446
885.150085,1452
885.266968,1427
885.383789,1456
885.500671,1448
885.617493,1456
885.734314,1451
885.851196,1411
885.967896,1494
886.084717,1448
886.201599,1433
886.318359,1434
886.435181,1443
886.552002,1455
886.668762,1413
886.785645,1435
886.902344,1492
887.019165,1417
887.135925,1437
887.252747,1493
887.369446,1417
887.486267,1429
887.603027,1410
887.719788,1384
887.836548,1448
887.953247,1411
888.070068,1396
888.186829,1404
888.303528,1423
888.420288,1420
888.536987,1370
888.653687,1360
888.770447,1365
888.887146,1372
889.003967,1387
889.120667,1399
889.237305,1425
889.354065,1363
889.470703,1366
889.587463,1371
889.704163,1359
889.820862,1399
889.937561,1347
890.054199,1375
890.170837,1399
890.287598,1380
890.404236,1376
890.520874,1390
890.637634,1398
890.754211,1396
890.87085,1406
890.987549,1375
891.104187,1373
891.220886,1400
891.337463,1422
891.454102,1375
891.57074,1478
891.687378,1357
891.804077,1404
891.920654,1380
892.037231,1382
892.15387,1402
892.270447,1339
892.387085,1411
892.503723,1395
892.6203,1390
892.736877,1390
892.853516,1391
892.970032,1403
893.08667,1401
893.203186,1355
893.319763,1379
893.43634,1379
893.552917,1386
893.669556,1401
893.786011,1389
893.902588,1413
894.019165,1400
894.135681,1381
894.252197,1367
894.368835,1454
894.485291,1414
894.601868,1398
894.718384,1421
894.8349,1395
894.951355,1413
895.067932,1390
895.184448,1411
895.300964,1405
895.417419,1387
895.533936,1388
895.650452,1437
895.766907,1405
895.883423,1381
895.999878,1427
896.116333,1408
896.232849,1414
896.349304,1383
896.465759,1404
896.582214,1391
896.698669,1373
896.815125,1399
896.931641,1425
897.048035,1404
897.164551,1408
897.280884,1379
897.397339,1423
897.513794,1356
897.630249,1401
897.746582,1409
897.863098,1415
897.979431,1422
898.095886,1444
898.212341,1371
898.328674,1432
898.445129,1401
898.561462,1416
898.677795,1399
898.794312,1437
898.910645,1385
899.026978,1445
899.143433,1419
899.259766,1443
899.37616,1399
899.492493,1409
899.608765,1411
899.725159,1409
899.841553,1454
899.957947,1410
900.07428,1466
900.190552,1369
900.306946,1373
900.423157,1383
900.53949,1395
900.655884,1408
900.772156,1385
900.888489,1418
901.004822,1438
901.121033,1368
901.237366,1419
901.353699,1454
901.46991,1403
901.586304,1464
901.702515,1445
901.818787,1407
901.93512,1433
902.051331,1401
902.167603,1441
902.283875,1453
902.400085,1454
902.516418,1417
902.632629,1432
902.74884,1456
902.865112,1466
902.981384,1429
903.097595,1462
903.213867,1422
903.330017,1448
903.446289,1416
903.5625,1492
903.67865,1465
903.794922,1451
903.911072,1474
904.027344,1463
904.143494,1455
904.259705,1440
904.375916,1463
904.492065,1441
904.608215,1442
904.724426,1441
904.840576,1443
904.956726,1424
905.072876,1455
905.189087,1422
905.305176,1425
905.421387,1436
905.537537,1417
905.653687,1457
905.769775,1404
905.885925,1429
906.002014,1432
906.118164,1439
906.234314,1420
906.350403,1472
906.466492,1423
906.582642,1452
906.69873,1417
906.814758,1470
906.930908,1431
907.046936,1431
907.163086,1366
907.279175,1443
907.395264,1404
907.511353,1390
907.62738,1404
907.743408,1410
907.859497,1466
907.975525,1435
908.091553,1451
908.207703,1439
908.32373,1430
908.439758,1401
908.555786,1441
908.671814,1407
908.787842,1415
908.90387,1447
909.019775,1453
909.135864,1436
909.251892,1431
909.367859,1443
909.483826,1442
909.599854,1424
909.715881,1404
909.831848,1451
909.947815,1447
910.063782,1437
910.179749,1466
910.295776,1501
910.411743,1441
910.527649,1422
910.643616,1441
910.759583,1455
910.875488,1447
910.991455,1461
911.107361,1454
911.223267,1429
911.339294,1425
911.4552,1449
911.571106,1429
911.687073,1419
911.802979,1451
911.918823,1435
912.034729,1458
912.150635,1409
912.266602,1421
912.382446,1458
912.498352,1435
912.614197,1429
912.730103,1448
912.846008,1413
792.44574,2096
792.56488,2139
792.68396,2150
792.80304,2041
792.92218,2059
793.041199,1936
793.160339,2000
793.279419,1979
793.398499,1936
793.517578,1985
793.636658,1917
793.755737,1927
793.874817,1928
793.993896,1914
794.112976,1852
794.232056,1874
794.351074,1862
794.470215,1845
794.589233,1825
794.708313,1813
794.827393,1822
794.946411,1749
795.065552,1805
795.18457,1794
795.303589,1757
795.422668,1775
795.541687,1785
795.660767,1774
795.779846,1714
795.898865,1763
796.017883,1769
796.136963,1734
796.255981,1684
796.375061,1707
796.49408,1744
796.613037,1727
796.732117,1714
796.851135,1759
796.970154,1680
797.089233,1660
797.208191,1713
797.327271,1693
797.446228,1652
797.565186,1726
797.684265,1658
797.803223,1661
797.922241,1651
798.04126,1663
798.160278,1682
798.279297,1654
798.398315,1657
798.517273,1674
798.636292,1648
798.75531,1626
798.874268,1634
798.993286,1641
799.112244,1688
799.231323,1678
799.350281,1649
799.469238,1646
799.588257,1635
799.707153,1626
799.826111,1678
799.945129,1657
800.064087,1707
800.183044,1654
800.302063,1635
800.421021,1646
800.539978,1652
800.658936,1652
800.777893,1648
800.896912,1656
801.015747,1638
801.134705,1647
801.253723,1599
801.37262,1633
801.491638,1603
801.610535,1623
801.729492,1637
801.84845,1658
801.967407,1620
802.086243,1633
802.205261,1618
802.324158,1573
802.443115,1624
802.562073,1631
802.680969,1618
802.799927,1647
802.918762,1632
803.037659,1625
803.156677,1613
803.275574,1554
803.39447,1628
803.513428,1612
803.632263,1585
803.751221,1593
803.870117,1645
803.989014,1593
804.107971,1653
804.226746,1588
804.345642,1629
804.4646,1656
804.583496,1592
804.702393,1645
804.821228,1595
804.940125,1618
805.059021,1567
805.177917,1614
805.296814,1525
805.415649,1624
805.534546,1600
805.653442,1618
805.772278,1632
805.891113,1635
806.01001,1610
806.128906,1628
806.247742,1617
806.366577,1619
806.485413,1622
806.604309,1619
806.723145,1645
806.84198,1604
806.960876,1603
807.079712,1646
807.198486,1605
807.317383,1643
807.436218,1563
807.554993,1617
807.673889,1597
807.792725,1569
807.91156,1578
808.030396,1589
808.14917,1606
808.268005,1662
808.386841,1629
808.505676,1639
808.624451,1593
808.743286,1577
808.862122,1582
808.980896,1650
809.099731,1603
809.218506,1550
809.337341,1603
809.456116,1616
809.57489,1634
809.693726,1592
809.8125,1608
809.931274,1664
810.050049,1611
810.168884,1652
810.287659,1637
810.406372,1611
810.525269,1588
810.643982,1611
810.762756,1594
810.881531,1563
811.000305,1622
811.11908,1576
811.237854,1615
811.356567,1621
811.475403,1619
811.594116,1619
811.71283,1621
811.831604,1600
811.950378,1663
812.069153,1609
812.187927,1672
812.30658,1606
812.425415,1556
812.544128,1604
812.662781,1571
812.781616,1593
812.900269,1621
813.019043,1637
813.137756,1589
813.256531,1628
813.375244,1604
813.493896,1649
813.612671,1611
813.731384,1618
813.850037,1596
813.96875,1550
814.087524,1621
814.206238,1584
814.324951,1561
814.443604,1582
814.562256,1561
814.68103,1578
814.799683,1588
814.918335,1544
815.037109,1539
815.155762,1555
815.274475,1601
815.393188,1569
815.511841,1577
815.630554,1557
815.749146,1570
815.867859,1545
815.986572,1576
816.105164,1541
816.223877,1528
816.342529,1568
816.461182,1565
816.579895,1571
816.698486,1531
816.817139,1596
816.935791,1630
817.054504,1564
817.173096,1578
817.291748,1569
817.4104,1522
817.529053,1543
817.647644,1542
817.766235,1595
817.884949,1519
818.00354,1509
818.122192,1507
818.240845,1435
818.359436,1516
818.478088,1467
818.59668,1446
818.715271,1510
818.833923,1445
818.952515,1431
819.071106,1489
819.189758,1458
819.30835,1482
819.426941,1409
819.545532,1416
819.664124,1382
819.782715,1437
819.901306,1464
820.019897,1420
820.138489,1436
820.25708,1419
820.375671,1432
820.494202,1398
820.612732,1393
820.731384,1395
820.849915,1456
820.968506,1430
821.087097,1404
821.205627,1394
821.324158,1439
821.442749,1399
821.561279,1399
821.679871,1447
821.798401,1374
821.916931,1436
822.035461,1412
822.154053,1432
822.272583,1413
822.391174,1434
822.509583,1370
822.628174,1404
822.746704,1376
822.865234,1396
822.983765,1378
823.102295,1403
823.220825,1365
823.339294,1426
823.457825,1370
823.576355,1394
823.694824,1402
823.813354,1414
823.931885,1385
824.050354,1389
824.168884,1397
824.287354,1396
824.405823,1359
824.524353,1421
824.642822,1370
824.761353,1388
824.879822,1387
824.998291,1369
825.116699,1361
825.235291,1417
825.353699,1388
825.472168,1358
825.590637,1362
825.709106,1343
825.827576,1370
825.946045,1355
826.064453,1369
826.182983,1378
826.301392,1336
826.4198,1328
826.53833,1397
826.656738,1332
826.775208,1350
826.893677,1345
827.012024,1420
827.130493,1347
827.248962,1344
827.36731,1352
827.485779,1322
827.604248,1349
827.722595,1361
827.841064,1330
827.959412,1330
828.077942,1293
828.196289,1379
828.314636,1323
828.433105,1354
828.551514,1355
828.669861,1344
828.78833,1280
828.906677,1315
829.025085,1350
829.143433,1345
829.261841,1316
829.38031,1326
829.498657,1334
829.617004,1359
829.735413,1350
829.85376,1338
829.972107,1337
830.090515,1368
830.208862,1331
830.327209,1357
830.445557,1328
830.563904,1349
830.682312,1320
830.800659,1315
830.919006,1338
831.037354,1382
831.155701,1325
831.274048,1337
831.392395,1337
831.51062,1383
831.629028,1330
831.747314,1352
831.865662,1337
831.984009,1372
832.102356,1345
832.220642,1333
832.338928,1335
832.457275,1342
832.575623,1346
832.693909,1320
832.812134,1350
832.930481,1357
833.048828,1339
833.167114,1358
833.2854,1335
833.403687,1353
833.521973,1356
833.640259,1334
833.758545,1346
833.876831,1334
833.995056,1334
834.113281,1357
834.231628,1302
834.349915,1346
834.468201,1356
834.586426,1349
834.704651,1352
834.822998,1317
834.941162,1334
835.059448,1326
835.177673,1364
835.295959,1337
835.414246,1361
835.53241,1337
835.650635,1338
835.768921,1304
835.887146,1335
836.005371,1328
836.123596,1329
836.241821,1343
836.360046,1350
836.478271,1384
836.596497,1358
836.714722,1328
836.832886,1384
836.95105,1339
837.069336,1322
837.1875,1368
837.305725,1369
837.423889,1315
837.542053,1327
837.660339,1330
837.778503,1345
837.896667,1308
838.014832,1327
838.132996,1354
838.25116,1353
838.369385,1342
838.487488,1354
838.605713,1317
838.723877,1350
838.84198,1317
838.960205,1324
839.078308,1358
839.196472,1318
839.314636,1347
839.4328,1336
839.550964,1357
839.669067,1315
839.787231,1314
839.905396,1363
840.023499,1352
840.141602,1369
840.259766,1394
840.377869,1335
840.495972,1367
840.614136,1387
840.732239,1385
840.850342,1334
840.968445,1356
841.086548,1335
841.204651,1335
841.322754,1380
841.440918,1361
841.55896,1352
841.677002,1380
841.795166,1358
841.913208,1384
842.031311,1341
842.149353,1347
842.267456,1338
842.385498,1322
842.503601,1319
842.621643,1338
842.739746,1349
842.857788,1369
842.97583,1317
843.093933,1380
843.211975,1350
843.330017,1385
843.44812,1386
843.566101,1368
843.684204,1326
843.802246,1333
843.920227,1333
844.038269,1374
844.156311,1322
844.274292,1314
844.392395,1399
844.510376,1359
844.628357,1317
844.74646,1386
844.864441,1346
844.982422,1327
845.100403,1353
845.218384,1314
845.336426,1284
845.454468,1322
845.572449,1352
845.69043,1368
845.808411,1351
845.926453,1327
846.044373,1356
846.162354,1341
846.280396,1334
846.398315,1344
846.516296,1341
846.634216,1302
846.752197,1310
846.870178,1295
846.988098,1300
847.106079,1336
847.22406,1304
847.34198,1290
847.4599,1344
847.577881,1347
847.695801,1305
847.813782,1342
847.931641,1314
848.049561,1338
848.167603,1319
848.285461,1395
848.403381,1361
848.521362,1369
848.639221,1327
848.75708,1341
848.875,1330
848.99292,1343
849.110901,1307
849.22876,1346
849.34668,1348
849.464539,1363
849.582458,1357
849.700317,1341
849.818176,1352
849.936096,1333
850.053955,1366
850.171875,1319
850.289673,1391
850.407593,1320
850.525452,1317
850.643311,1320
850.761169,1360
850.878967,1327
850.996887,1338
851.114746,1320
851.232544,1367
851.350403,1325
851.468262,1327
851.58606,1317
851.703979,1343
851.821777,1344
851.939636,1384
852.057434,1344
852.175232,1340
852.293091,1310
852.410889,1339
852.528687,1381
852.646545,1352
852.764343,1348
852.88208,1356
852.999939,1315
853.117676,1325
853.235535,1376
853.353271,1312
853.471069,1335
853.588928,1321
853.706604,1323
853.824402,1310
853.9422,1370
854.059998,1297
854.177734,1312
854.295532,1362
854.413269,1347
854.531006,1343
854.648804,1369
854.766541,1371
854.884277,1345
855.002014,1350
855.119751,1353
855.237549,1308
855.355225,1349
855.473022,1367
855.590698,1347
855.708435,1359
855.826172,1356
855.943848,1365
856.061646,1371
856.179321,1344
856.296997,1341
856.414795,1329
856.53241,1356
856.650085,1351
856.767822,1390
856.885559,1367
857.003174,1354
857.120911,1350
857.238586,1373
857.356201,1373
857.473938,1322
857.591614,1379
857.709351,1349
857.826965,1326
857.944641,1355
858.062317,1352
858.179993,1374
858.297668,1348
858.415283,1419
858.532959,1330
858.650574,1343
858.768188,1365
858.885803,1360
859.003479,1373
859.121094,1351
859.23877,1378
859.356384,1318
859.473999,1367
859.591675,1299
859.709229,1365
859.826843,1371
859.944458,1313
860.062012,1373
860.179626,1347
860.297302,1352
860.414856,1341
860.532471,1298
860.650024,1402
860.767639,1357
860.885193,1376
861.002808,1347
861.120361,1339
861.237976,1344
861.35553,1334
861.473022,1380
861.590698,1359
861.708191,1359
861.825745,1356
861.943298,1375
862.060852,1358
862.178406,1351
862.295959,1372
862.413513,1333
862.531006,1296
862.64856,1330
862.766113,1332
862.883667,1342
863.00116,1318
863.118713,1338
863.236206,1347
863.353699,1314
863.471252,1348
863.588745,1352
863.706177,1295
863.82373,1335
863.941162,1392
864.058716,1329
864.176208,1325
864.29364,1360
864.411194,1317
864.528687,1298
864.646118,1364
864.763611,1340
864.881042,1331
864.998535,1368
865.116028,1349
865.233459,1299
865.350891,1316
865.468384,1375
865.585754,1390
865.703308,1312
865.820679,1348
865.938171,1348
866.055542,1314
866.173035,1325
866.290466,1370
866.407837,1323
866.52533,1354
866.6427,1420
866.760071,1349
866.877563,1347
866.994934,1349
867.112305,1316
867.229736,1334
867.347107,1355
867.464539,1372
867.58197,1358
867.699341,1327
867.81665,1352
867.934082,1300
868.051453,1364
868.168823,1326
868.286194,1403
868.403564,1327
868.520935,1407
868.638306,1329
868.755676,1403
868.872986,1326
868.990295,1339
869.107727,1352
869.225037,1366
869.342346,1349
869.459717,1390
869.577026,1397
869.694336,1357
869.811707,1386
869.929016,1355
870.046326,1353
870.163635,1398
870.280945,1387
870.398254,1356
870.515564,1399
870.632812,1372
870.750183,1433
870.867432,1337
870.984741,1398
871.102051,1392
871.219299,1387
871.336609,1384
871.453918,1382
871.571106,1388
871.688416,1385
871.805664,1368
871.922852,1369
872.040222,1373
872.157471,1385
872.274719,1350
872.391968,1403
872.509155,1379
872.626465,1414
872.743652,1378
872.860962,1390
872.978149,1385
873.095337,1353
873.212646,1415
873.329834,1390
873.44696,1395
873.564209,1405
873.681396,1394
873.798645,1428
873.915894,1382
874.03302,1365
874.150208,1356
874.267456,1370
874.384583,1427
874.501831,1361
874.618958,1401
874.736145,1399
874.853333,1393
874.970459,1371
875.087646,1405
875.204834,1398
875.32196,1375
875.439148,1363
875.556274,1405
875.673401,1403
875.790527,1375
875.907715,1397
876.024841,1393
876.141968,1346
876.259094,1369
876.376282,1401
876.493347,1382
876.610474,1390
876.7276,1380
876.844727,1339
876.961853,1341
877.078918,1375
877.195984,1435
877.313171,1363
877.430237,1380
877.547302,1380
877.664368,1359
877.781433,1404
877.898499,1391
878.015625,1358
878.13269,1358
878.249695,1391
878.366821,1369
878.483887,1370
878.600952,1354
878.717957,1395
878.834961,1389
878.952087,1394
879.069092,1337
879.186157,1382
879.303162,1331
879.420227,1413
879.537231,1377
879.654236,1357
879.77124,1345
879.888306,1349
880.005249,1407
880.122314,1388
880.239319,1374
880.356323,1388
880.473328,1386
880.590271,1385
880.707275,1346
880.824341,1344
880.941284,1414
881.058228,1387
881.175232,1400
881.292236,1338
881.40918,1364
881.526123,1385
881.643066,1333
881.760071,1403
881.877014,1342
881.993958,1391
882.11084,1387
882.227783,1403
882.344727,1348
882.46167,1407
882.578613,1354
882.695618,1380
882.812439,1374
882.929382,1358
883.046326,1343
883.163208,1374
883.280151,1376
883.397034,1345
883.513916,1397
883.630798,1386
883.747742,1401
883.864563,1405
883.981506,1358
884.098389,1359
884.21521,1372
884.332153,1380
884.448975,1406
884.565796,1389
884.682678,1419
884.7995,1432
884.916443,1401
885.033264,1455
885.150085,1398
885.266968,1467
885.383789,1469
885.500671,1431
885.617493,1488
885.734314,1447
885.851196,1461
885.967896,1443
886.084717,1477
886.201599,1419
886.318359,1480
886.435181,1483
886.552002,1472
886.668762,1461
886.785645,1461
886.902344,1458
887.019165,1445
887.135925,1442
887.252747,1402
887.369446,1444
887.486267,1429
887.603027,1425
887.719788,1426
887.836548,1446
887.953247,1404
888.070068,1436
888.186829,1414
888.303528,1397
888.420288,1398
888.536987,1365
888.653687,1370
888.770447,1413
888.887146,1389
889.003967,1425
889.120667,1380
889.237305,1407
889.354065,1392
889.470703,1366
889.587463,1395
889.704163,1329
889.820862,1411
889.937561,1334
890.054199,1439
890.170837,1402
890.287598,1387
890.404236,1372
890.520874,1400
890.637634,1383
890.754211,1420
890.87085,1403
890.987549,1391
891.104187,1404
891.220886,1435
891.337463,1394
891.454102,1430
891.57074,1419
891.687378,1409
891.804077,1405
891.920654,1411
892.037231,1427
892.15387,1389
892.270447,1398
892.387085,1416
892.503723,1379
892.6203,1383
892.736877,1397
892.853516,1428
892.970032,1381
893.08667,1423
893.203186,1373
893.319763,1410
893.43634,1407
893.552917,1429
893.669556,1392
893.786011,1380
893.902588,1406
894.019165,1391
894.135681,1420
894.252197,1370
894.368835,1389
894.485291,1418
894.601868,1444
894.718384,1445
894.8349,1444
894.951355,1353
895.067932,1434
895.184448,1407
895.300964,1430
895.417419,1385
895.533936,1407
895.650452,1409
895.766907,1407
895.883423,1429
895.999878,1397
896.116333,1408
896.232849,1361
896.349304,1369
896.465759,1410
896.582214,1428
896.698669,1420
896.815125,1420
896.931641,1442
897.048035,1434
897.164551,1432
897.280884,1384
897.397339,1423
897.513794,1393
897.630249,1414
897.746582,1386
897.863098,1395
897.979431,1394
898.095886,1445
898.212341,1390
898.328674,1445
898.445129,1390
898.561462,1447
898.677795,1444
898.794312,1473
898.910645,1398
899.026978,1435
899.143433,1413
899.259766,1433
899.37616,1409
899.492493,1413
899.608765,1428
899.725159,1433
899.841553,1454
899.957947,1392
900.07428,1472
900.190552,1446
900.306946,1406
900.423157,1414
900.53949,1433
900.655884,1441
900.772156,1437
900.888489,1430
901.004822,1439
901.121033,1428
901.237366,1429
901.353699,1434
901.46991,1440
901.586304,1414
901.702515,1451
901.818787,1427
901.93512,1464
902.051331,1451
902.167603,1443
902.283875,1445
902.400085,1434
902.516418,1477
902.632629,1437
902.74884,1485
902.865112,1501
902.981384,1471
903.097595,1515
903.213867,1479
903.330017,1473
903.446289,1482
903.5625,1460
903.67865,1476
903.794922,1487
903.911072,1468
904.027344,1460
904.143494,1494
904.259705,1500
904.375916,1416
904.492065,1473
904.608215,1447
904.724426,1456
904.840576,1433
904.956726,1443
905.072876,1416
905.189087,1449
905.305176,1435
905.421387,1470
905.537537,1451
905.653687,1450
905.769775,1405
905.885925,1453
906.002014,1423
906.118164,1463
906.234314,1406
906.350403,1457
906.466492,1426
906.582642,1458
906.69873,1470
906.814758,1451
906.930908,1425
907.046936,1408
907.163086,1448
907.279175,1445
907.395264,1410
907.511353,1443
907.62738,1449
907.743408,1498
907.859497,1445
907.975525,1442
908.091553,1464
908.207703,1428
908.32373,1433
908.439758,1441
908.555786,1449
908.671814,1464
908.787842,1424
908.90387,1447
909.019775,1491
909.135864,1434
909.251892,1460
909.367859,1486
909.483826,1430
909.599854,1465
909.715881,1432
909.831848,1453
909.947815,1458
910.063782,1445
910.179749,1502
910.295776,1426
910.411743,1469
910.527649,1416
910.643616,1482
910.759583,1454
910.875488,1468
910.991455,1475
911.107361,1495
911.223267,1492
911.339294,1463
911.4552,1500
911.571106,1417
911.687073,1507
911.802979,1412
911.918823,1470
912.034729,1438
912.150635,1458
912.266602,1430
912.382446,1442
912.498352,1441
912.614197,1424
912.730103,1457
912.846008,1447
