792.44574,3088
792.56488,3040
792.68396,2956
792.80304,2908
792.92218,2780
793.041199,2714
793.160339,2754
793.279419,2697
793.398499,2716
793.517578,2641
793.636658,2629
793.755737,2595
793.874817,2586
793.993896,2522
794.112976,2459
794.232056,2477
794.351074,2408
794.470215,2422
794.589233,2356
794.708313,2340
794.827393,2324
794.946411,2344
795.065552,2337
795.18457,2345
795.303589,2270
795.422668,2282
795.541687,2298
795.660767,2228
795.779846,2204
795.898865,2194
796.017883,2182
796.136963,2250
796.255981,2158
796.375061,2195
796.49408,2153
796.613037,2150
796.732117,2124
796.851135,2106
796.970154,2077
797.089233,2088
797.208191,2119
797.327271,2085
797.446228,2104
797.565186,2056
797.684265,2047
797.803223,2053
797.922241,2035
798.04126,1999
798.160278,2035
798.279297,2003
798.398315,2020
798.517273,2019
798.636292,2012
798.75531,1980
798.874268,2006
798.993286,2021
799.112244,2022
799.231323,2000
799.350281,1979
799.469238,1978
799.588257,1973
799.707153,2040
799.826111,2008
799.945129,1940
800.064087,2011
800.183044,1981
800.302063,1975
800.421021,1965
800.539978,1978
800.658936,1939
800.777893,1940
800.896912,1947
801.015747,1900
801.134705,1936
801.253723,1971
801.37262,1924
801.491638,1976
801.610535,1960
801.729492,1951
801.84845,1918
801.967407,1983
802.086243,1926
802.205261,1944
802.324158,1962
802.443115,1954
802.562073,1925
802.680969,1895
802.799927,1926
802.918762,1962
803.037659,1909
803.156677,1925
803.275574,1902
803.39447,1944
803.513428,1999
803.632263,1941
803.751221,1930
803.870117,1959
803.989014,1932
804.107971,1917
804.226746,1926
804.345642,1930
804.4646,1952
804.583496,1956
804.702393,1990
804.821228,1943
804.940125,1935
805.059021,1941
805.177917,1900
805.296814,1919
805.415649,1915
805.534546,1928
805.653442,1915
805.772278,1924
805.891113,1939
806.01001,1945
806.128906,1903
806.247742,1967
806.366577,1952
806.485413,1933
806.604309,1965
806.723145,1980
806.84198,1907
806.960876,1938
807.079712,1914
807.198486,1953
807.317383,1925
807.436218,1948
807.554993,1931
807.673889,1946
807.792725,1960
807.91156,1940
808.030396,1947
808.14917,1971
808.268005,1942
808.386841,1908
808.505676,1933
808.624451,1984
808.743286,1914
808.862122,1979
808.980896,1951
809.099731,1906
809.218506,1917
809.337341,1935
809.456116,1977
809.57489,1945
809.693726,1954
809.8125,2017
809.931274,1897
810.050049,1964
810.168884,1939
810.287659,1982
810.406372,1969
810.525269,1931
810.643982,1972
810.762756,1992
810.881531,2009
811.000305,1957
811.11908,1964
811.237854,2020
811.356567,1979
811.475403,1938
811.594116,2008
811.71283,1974
811.831604,1985
811.950378,1996
812.069153,1955
812.187927,1971
812.30658,2014
812.425415,1956
812.544128,2000
812.662781,2009
812.781616,1990
812.900269,1990
813.019043,1979
813.137756,1939
813.256531,1983
813.375244,1951
813.493896,1957
813.612671,1963
813.731384,1968
813.850037,1979
813.96875,1940
814.087524,1955
814.206238,1901
814.324951,1946
814.443604,1951
814.562256,1947
814.68103,1965
814.799683,1958
814.918335,1941
815.037109,1917
815.155762,1938
815.274475,1915
815.393188,1918
815.511841,1925
815.630554,1853
815.749146,1900
815.867859,1894
815.986572,1857
816.105164,1878
816.223877,1932
816.342529,1927
816.461182,1898
816.579895,1894
816.698486,1867
816.817139,1914
816.935791,1893
817.054504,1900
817.173096,1926
817.291748,1881
817.4104,1928
817.529053,1865
817.647644,1822
817.766235,1824
817.884949,1794
818.00354,1765
818.122192,1750
818.240845,1713
818.359436,1738
818.478088,1680
818.59668,1659
818.715271,1667
818.833923,1581
818.952515,1650
819.071106,1584
819.189758,1562
819.30835,1608
819.426941,1568
819.545532,1557
819.664124,1567
819.782715,1522
819.901306,1545
820.019897,1554
820.138489,1541
820.25708,1538
820.375671,1511
820.494202,1527
820.612732,1498
820.731384,1508
820.849915,1524
820.968506,1503
821.087097,1499
821.205627,1497
821.324158,1515
821.442749,1472
821.561279,1463
821.679871,1438
821.798401,1478
821.916931,1477
822.035461,1425
822.154053,1493
822.272583,1472
822.391174,1515
822.509583,1467
822.628174,1463
822.746704,1435
822.865234,1483
822.983765,1472
823.102295,1444
823.220825,1430
823.339294,1452
823.457825,1483
823.576355,1447
823.694824,1480
823.813354,1458
823.931885,1469
824.050354,1478
824.168884,1467
824.287354,1469
824.405823,1495
824.524353,1495
824.642822,1491
824.761353,1544
824.879822,1481
824.998291,1478
825.116699,1458
825.235291,1472
825.353699,1480
825.472168,1480
825.590637,1428
825.709106,1477
825.827576,1434
825.946045,1468
826.064453,1456
826.182983,1409
826.301392,1399
826.4198,1383
826.53833,1406
826.656738,1399
826.775208,1421
826.893677,1429
827.012024,1418
827.130493,1399
827.248962,1412
827.36731,1376
827.485779,1396
827.604248,1409
827.722595,1416
827.841064,1383
827.959412,1403
828.077942,1391
828.196289,1406
828.314636,1380
828.433105,1393
828.551514,1370
828.669861,1411
828.78833,1362
828.906677,1406
829.025085,1441
829.143433,1389
829.261841,1385
829.38031,1385
829.498657,1352
829.617004,1407
829.735413,1360
829.85376,1352
829.972107,1336
830.090515,1364
830.208862,1380
830.327209,1330
830.445557,1392
830.563904,1342
830.682312,1347
830.800659,1383
830.919006,1400
831.037354,1397
831.155701,1396
831.274048,1436
831.392395,1415
831.51062,1419
831.629028,1377
831.747314,1395
831.865662,1351
831.984009,1372
832.102356,1409
832.220642,1400
832.338928,1393
832.457275,1404
832.575623,1437
832.693909,1375
832.812134,1384
832.930481,1417
833.048828,1414
833.167114,1418
833.2854,1406
833.403687,1436
833.521973,1379
833.640259,1379
833.758545,1365
833.876831,1384
833.995056,1412
834.113281,1374
834.231628,1414
834.349915,1409
834.468201,1396
834.586426,1388
834.704651,1379
834.822998,1418
834.941162,1389
835.059448,1348
835.177673,1403
835.295959,1377
835.414246,1424
835.53241,1401
835.650635,1401
835.768921,1363
835.887146,1441
836.005371,1378
836.123596,1399
836.241821,1396
836.360046,1403
836.478271,1421
836.596497,1390
836.714722,1409
836.832886,1434
836.95105,1431
837.069336,1423
837.1875,1428
837.305725,1468
837.423889,1420
837.542053,1441
837.660339,1433
837.778503,1447
837.896667,1439
838.014832,1429
838.132996,1454
838.25116,1414
838.369385,1388
838.487488,1486
838.605713,1424
838.723877,1434
838.84198,1461
838.960205,1431
839.078308,1472
839.196472,1433
839.314636,1467
839.4328,1444
839.550964,1409
839.669067,1455
839.787231,1446
839.905396,1403
840.023499,1471
840.141602,1469
840.259766,1460
840.377869,1478
840.495972,1413
840.614136,1473
840.732239,1477
840.850342,1448
840.968445,1459
841.086548,1453
841.204651,1453
841.322754,1456
841.440918,1421
841.55896,1454
841.677002,1495
841.795166,1496
841.913208,1458
842.031311,1422
842.149353,1505
842.267456,1470
842.385498,1448
842.503601,1416
842.621643,1419
842.739746,1425
842.857788,1484
842.97583,1455
843.093933,1427
843.211975,1480
843.330017,1432
843.44812,1436
843.566101,1426
843.684204,1419
843.802246,1396
843.920227,1451
844.038269,1421
844.156311,1440
844.274292,1434
844.392395,1466
844.510376,1442
844.628357,1478
844.74646,1421
844.864441,1429
844.982422,1424
845.100403,1454
845.218384,1404
845.336426,1412
845.454468,1395
845.572449,1425
845.69043,1436
845.808411,1397
845.926453,1405
846.044373,1439
846.162354,1465
846.280396,1406
846.398315,1452
846.516296,1433
846.634216,1402
846.752197,1409
846.870178,1422
846.988098,1433
847.106079,1429
847.22406,1401
847.34198,1428
847.4599,1391
847.577881,1404
847.695801,1405
847.813782,1415
847.931641,1418
848.049561,1423
848.167603,1460
848.285461,1384
848.403381,1403
848.521362,1395
848.639221,1406
848.75708,1444
848.875,1381
848.99292,1444
849.110901,1463
849.22876,1452
849.34668,1442
849.464539,1414
849.582458,1448
849.700317,1410
849.818176,1465
849.936096,1411
850.053955,1454
850.171875,1414
850.289673,1453
850.407593,1386
850.525452,1455
850.643311,1435
850.761169,1436
850.878967,1423
850.996887,1410
851.114746,1435
851.232544,1401
851.350403,1453
851.468262,1387
851.58606,1453
851.703979,1391
851.821777,1444
851.939636,1439
852.057434,1444
852.175232,1456
852.293091,1437
852.410889,1460
852.528687,1472
852.646545,1509
852.764343,1484
852.88208,1481
852.999939,1494
853.117676,1493
853.235535,1452
853.353271,1456
853.471069,1436
853.588928,1421
853.706604,1436
853.824402,1439
853.9422,1486
854.059998,1456
854.177734,1453
854.295532,1432
854.413269,1448
854.531006,1470
854.648804,1464
854.766541,1443
854.884277,1468
855.002014,1425
855.119751,1390
855.237549,1456
855.355225,1459
855.473022,1420
855.590698,1431
855.708435,1420
855.826172,1439
855.943848,1448
856.061646,1418
856.179321,1466
856.296997,1427
856.414795,1446
856.53241,1424
856.650085,1432
856.767822,1469
856.885559,1477
857.003174,1486
857.120911,1503
857.238586,1487
857.356201,1445
857.473938,1465
857.591614,1495
857.709351,1497
857.826965,1467
857.944641,1468
858.062317,1453
858.179993,1463
858.297668,1537
858.415283,1474
858.532959,1440
858.650574,1504
858.768188,1474
858.885803,1476
859.003479,1477
859.121094,1488
859.23877,1512
859.356384,1456
859.473999,1436
859.591675,1477
859.709229,1476
859.826843,1467
859.944458,1400
860.062012,1428
860.179626,1435
860.297302,1415
860.414856,1381
860.532471,1399
860.650024,1395
860.767639,1428
860.885193,1450
861.002808,1390
861.120361,1426
861.237976,1414
861.35553,1464
861.473022,1439
861.590698,1404
861.708191,1465
861.825745,1431
861.943298,1430
862.060852,1412
862.178406,1420
862.295959,1428
862.413513,1377
862.531006,1394
862.64856,1381
862.766113,1380
862.883667,1418
863.00116,1383
863.118713,1379
863.236206,1422
863.353699,1433
863.471252,1422
863.588745,1425
863.706177,1420
863.82373,1410
863.941162,1432
864.058716,1436
864.176208,1468
864.29364,1427
864.411194,1425
864.528687,1432
864.646118,1409
864.763611,1386
864.881042,1433
864.998535,1376
865.116028,1436
865.233459,1442
865.350891,1386
865.468384,1429
865.585754,1458
865.703308,1377
865.820679,1399
865.938171,1452
866.055542,1407
866.173035,1394
866.290466,1435
866.407837,1420
866.52533,1429
866.6427,1424
866.760071,1450
866.877563,1377
866.994934,1387
867.112305,1408
867.229736,1393
867.347107,1403
867.464539,1409
867.58197,1434
867.699341,1410
867.81665,1457
867.934082,1399
868.051453,1439
868.168823,1438
868.286194,1426
868.403564,1409
868.520935,1399
868.638306,1384
868.755676,1423
868.872986,1417
868.990295,1393
869.107727,1474
869.225037,1430
869.342346,1407
869.459717,1523
869.577026,1435
869.694336,1459
869.811707,1435
869.929016,1451
870.046326,1434
870.163635,1428
870.280945,1431
870.398254,1435
870.515564,1467
870.632812,1443
870.750183,1451
870.867432,1483
870.984741,1478
871.102051,1480
871.219299,1495
871.336609,1452
871.453918,1517
871.571106,1525
871.688416,1524
871.805664,1499
871.922852,1557
872.040222,1473
872.157471,1532
872.274719,1531
872.391968,1490
872.509155,1498
872.626465,1496
872.743652,1497
872.860962,1512
872.978149,1468
873.095337,1479
873.212646,1478
873.329834,1451
873.44696,1492
873.564209,1480
873.681396,1493
873.798645,1508
873.915894,1498
874.03302,1518
874.150208,1510
874.267456,1526
874.384583,1522
874.501831,1504
874.618958,1549
874.736145,1542
874.853333,1515
874.970459,1545
875.087646,1535
875.204834,1523
875.32196,1522
875.439148,1482
875.556274,1552
875.673401,1479
875.790527,1429
875.907715,1491
876.024841,1483
876.141968,1517
876.259094,1444
876.376282,1451
876.493347,1477
876.610474,1451
876.7276,1480
876.844727,1431
876.961853,1430
877.078918,1452
877.195984,1462
877.313171,1459
877.430237,1463
877.547302,1455
877.664368,1468
877.781433,1478
877.898499,1478
878.015625,1407
878.13269,1471
878.249695,1454
878.366821,1453
878.483887,1406
878.600952,1418
878.717957,1449
878.834961,1461
878.952087,1440
879.069092,1412
879.186157,1446
879.303162,1392
879.420227,1437
879.537231,1400
879.654236,1417
879.77124,1426
879.888306,1369
880.005249,1372
880.122314,1401
880.239319,1380
880.356323,1403
880.473328,1404
880.590271,1414
880.707275,1426
880.824341,1410
880.941284,1430
881.058228,1393
881.175232,1446
881.292236,1360
881.40918,1407
881.526123,1404
881.643066,1414
881.760071,1418
881.877014,1372
881.993958,1444
882.11084,1365
882.227783,1372
882.344727,1406
882.46167,1386
882.578613,1414
882.695618,1389
882.812439,1391
882.929382,1392
883.046326,1384
883.163208,1441
883.280151,1425
883.397034,1428
883.513916,1448
883.630798,1418
883.747742,1473
883.864563,1469
883.981506,1423
884.098389,1464
884.21521,1474
884.332153,1485
884.448975,1506
884.565796,1520
884.682678,1526
884.7995,1555
884.916443,1587
885.033264,1608
885.150085,1667
885.266968,1663
885.383789,1639
885.500671,1700
885.617493,1725
885.734314,1686
885.851196,1683
885.967896,1711
886.084717,1647
886.201599,1662
886.318359,1661
886.435181,1664
886.552002,1671
886.668762,1636
886.785645,1591
886.902344,1611
887.019165,1598
887.135925,1597
887.252747,1609
887.369446,1587
887.486267,1560
887.603027,1515
887.719788,1521
887.836548,1499
887.953247,1528
888.070068,1462
888.186829,1467
888.303528,1413
888.420288,1496
888.536987,1439
888.653687,1424
888.770447,1420
888.887146,1464
889.003967,1398
889.120667,1459
889.237305,1386
889.354065,1393
889.470703,1436
889.587463,1380
889.704163,1451
889.820862,1400
889.937561,1365
890.054199,1383
890.170837,1397
890.287598,1402
890.404236,1430
890.520874,1458
890.637634,1427
890.754211,1420
890.87085,1413
890.987549,1462
891.104187,1446
891.220886,1418
891.337463,1434
891.454102,1461
891.57074,1485
891.687378,1435
891.804077,1457
891.920654,1436
892.037231,1462
892.15387,1418
892.270447,1430
892.387085,1399
892.503723,1441
892.6203,1469
892.736877,1435
892.853516,1455
892.970032,1410
893.08667,1428
893.203186,1425
893.319763,1399
893.43634,1439
893.552917,1406
893.669556,1456
893.786011,1448
893.902588,1419
894.019165,1457
894.135681,1446
894.252197,1413
894.368835,1430
894.485291,1408
894.601868,1444
894.718384,1431
894.8349,1408
894.951355,1438
895.067932,1402
895.184448,1437
895.300964,1453
895.417419,1410
895.533936,1427
895.650452,1402
895.766907,1437
895.883423,1427
895.999878,1409
896.116333,1443
896.232849,1438
896.349304,1429
896.465759,1415
896.582214,1413
896.698669,1386
896.815125,1457
896.931641,1401
897.048035,1406
897.164551,1411
897.280884,1405
897.397339,1438
897.513794,1429
897.630249,1459
897.746582,1405
897.863098,1416
897.979431,1426
898.095886,1457
898.212341,1449
898.328674,1425
898.445129,1451
898.561462,1437
898.677795,1470
898.794312,1447
898.910645,1427
899.026978,1448
899.143433,1440
899.259766,1449
899.37616,1416
899.492493,1418
899.608765,1413
899.725159,1441
899.841553,1434
899.957947,1461
900.07428,1442
900.190552,1421
900.306946,1475
900.423157,1426
900.53949,1445
900.655884,1449
900.772156,1432
900.888489,1427
901.004822,1434
901.121033,1455
901.237366,1461
901.353699,1439
901.46991,1451
901.586304,1421
901.702515,1458
901.818787,1481
901.93512,1503
902.051331,1518
902.167603,1519
902.283875,1566
902.400085,1504
902.516418,1575
902.632629,1587
902.74884,1631
902.865112,1580
902.981384,1599
903.097595,1558
903.213867,1567
903.330017,1596
903.446289,1595
903.5625,1561
903.67865,1554
903.794922,1566
903.911072,1552
904.027344,1528
904.143494,1541
904.259705,1517
904.375916,1486
904.492065,1464
904.608215,1529
904.724426,1479
904.840576,1475
904.956726,1482
905.072876,1462
905.189087,1486
905.305176,1470
905.421387,1464
905.537537,1466
905.653687,1447
905.769775,1452
905.885925,1450
906.002014,1484
906.118164,1427
906.234314,1442
906.350403,1426
906.466492,1479
906.582642,1433
906.69873,1415
906.814758,1478
906.930908,1429
907.046936,1467
907.163086,1444
907.279175,1507
907.395264,1425
907.511353,1446
907.62738,1445
907.743408,1435
907.859497,1401
907.975525,1456
908.091553,1469
908.207703,1413
908.32373,1473
908.439758,1415
908.555786,1461
908.671814,1413
908.787842,1420
908.90387,1453
909.019775,1448
909.135864,1457
909.251892,1494
909.367859,1475
909.483826,1482
909.599854,1469
909.715881,1479
909.831848,1493
909.947815,1487
910.063782,1429
910.179749,1474
910.295776,1451
910.411743,1508
910.527649,1416
910.643616,1469
910.759583,1461
910.875488,1452
910.991455,1433
911.107361,1411
911.223267,1470
911.339294,1469
911.4552,1455
911.571106,1387
911.687073,1436
911.802979,1468
911.918823,1412
912.034729,1442
912.150635,1488
912.266602,1452
912.382446,1418
912.498352,1442
912.614197,1437
912.730103,1456
912.846008,1416
792.44574,3126
792.56488,3086
792.68396,3071
792.80304,2941
792.92218,2936
793.041199,2824
793.160339,2800
793.279419,2771
793.398499,2763
793.517578,2746
793.636658,2662
793.755737,2647
793.874817,2645
793.993896,2562
794.112976,2513
794.232056,2473
794.351074,2495
794.470215,2421
794.589233,2472
794.708313,2372
794.827393,2399
794.946411,2321
795.065552,2344
795.18457,2333
795.303589,2342
795.422668,2348
795.541687,2309
795.660767,2318
795.779846,2283
795.898865,2228
796.017883,2229
796.136963,2233
796.255981,2203
796.375061,2165
796.49408,2129
796.613037,2181
796.732117,2219
796.851135,2108
796.970154,2175
797.089233,2129
797.208191,2106
797.327271,2108
797.446228,2163
797.565186,2083
797.684265,2078
797.803223,2037
797.922241,2082
798.04126,2090
798.160278,2035
798.279297,2048
798.398315,2044
798.517273,2066
798.636292,2051
798.75531,1998
798.874268,2067
798.993286,2071
799.112244,2044
799.231323,1982
799.350281,2033
799.469238,2036
799.588257,2014
799.707153,2001
799.826111,2062
799.945129,2007
800.064087,2057
800.183044,2004
800.302063,2022
800.421021,2041
800.539978,1994
800.658936,2027
800.777893,2002
800.896912,2014
801.015747,1949
801.134705,1942
801.253723,2000
801.37262,1977
801.491638,1983
801.610535,2011
801.729492,1966
801.84845,1938
801.967407,1922
802.086243,2004
802.205261,1968
802.324158,1961
802.443115,1976
802.562073,2014
802.680969,1987
802.799927,1986
802.918762,1897
803.037659,1983
803.156677,1961
803.275574,1929
803.39447,1965
803.513428,1946
803.632263,2016
803.751221,1944
803.870117,1943
803.989014,1971
804.107971,1970
804.226746,1965
804.345642,1917
804.4646,1975
804.583496,1959
804.702393,1962
804.821228,1950
804.940125,1915
805.059021,1917
805.177917,1978
805.296814,1965
805.415649,1966
805.534546,1957
805.653442,1984
805.772278,1946
805.891113,1965
806.01001,1965
806.128906,1988
806.247742,1977
806.366577,1984
806.485413,1968
806.604309,1932
806.723145,1963
806.84198,1952
806.960876,2013
807.079712,1953
807.198486,2025
807.317383,2005
807.436218,1953
807.554993,1960
807.673889,2018
807.792725,1998
807.91156,2011
808.030396,1954
808.14917,2019
808.268005,1993
808.386841,1983
808.505676,1959
808.624451,1977
808.743286,1984
808.862122,1930
808.980896,2017
809.099731,1969
809.218506,1979
809.337341,1966
809.456116,1970
809.57489,1969
809.693726,1987
809.8125,1998
809.931274,2008
810.050049,2015
810.168884,1991
810.287659,1974
810.406372,2004
810.525269,1973
810.643982,2022
810.762756,2019
810.881531,1977
811.000305,1970
811.11908,1965
811.237854,1985
811.356567,1964
811.475403,2011
811.594116,2015
811.71283,1987
811.831604,2022
811.950378,1994
812.069153,2017
812.187927,2021
812.30658,2009
812.425415,2029
812.544128,2017
812.662781,2051
812.781616,1984
812.900269,1991
813.019043,1955
813.137756,2022
813.256531,1937
813.375244,2006
813.493896,2012
813.612671,1988
813.731384,1984
813.850037,1987
813.96875,2041
814.087524,1957
814.206238,2007
814.324951,1965
814.443604,1991
814.562256,1941
814.68103,1988
814.799683,1995
814.918335,1928
815.037109,1966
815.155762,1937
815.274475,1964
815.393188,1916
815.511841,1938
815.630554,1942
815.749146,1911
815.867859,1910
815.986572,1887
816.105164,1876
816.223877,1935
816.342529,1967
816.461182,1921
816.579895,1921
816.698486,1943
816.817139,1982
816.935791,1908
817.054504,1898
817.173096,1966
817.291748,1919
817.4104,1915
817.529053,1867
817.647644,1835
817.766235,1817
817.884949,1832
818.00354,1778
818.122192,1791
818.240845,1689
818.359436,1716
818.478088,1717
818.59668,1744
818.715271,1655
818.833923,1647
818.952515,1658
819.071106,1661
819.189758,1621
819.30835,1609
819.426941,1617
819.545532,1597
819.664124,1586
819.782715,1598
819.901306,1588
820.019897,1565
820.138489,1564
820.25708,1583
820.375671,1590
820.494202,1499
820.612732,1512
820.731384,1520
820.849915,1526
820.968506,1524
821.087097,1491
821.205627,1536
821.324158,1492
821.442749,1510
821.561279,1512
821.679871,1533
821.798401,1501
821.916931,1492
822.035461,1498
822.154053,1536
822.272583,1500
822.391174,1503
822.509583,1487
822.628174,1484
822.746704,1487
822.865234,1462
822.983765,1471
823.102295,1521
823.220825,1440
823.339294,1492
823.457825,1498
823.576355,1502
823.694824,1499
823.813354,1513
823.931885,1515
824.050354,1491
824.168884,1501
824.287354,1473
824.405823,1462
824.524353,1466
824.642822,1530
824.761353,1528
824.879822,1513
824.998291,1508
825.116699,1500
825.235291,1501
825.353699,1495
825.472168,1489
825.590637,1464
825.709106,1477
825.827576,1473
825.946045,1423
826.064453,1461
826.182983,1436
826.301392,1438
826.4198,1419
826.53833,1445
826.656738,1424
826.775208,1466
826.893677,1410
827.012024,1468
827.130493,1428
827.248962,1487
827.36731,1445
827.485779,1469
827.604248,1430
827.722595,1421
827.841064,1432
827.959412,1387
828.077942,1427
828.196289,1436
828.314636,1382
828.433105,1419
828.551514,1441
828.669861,1393
828.78833,1389
828.906677,1405
829.025085,1408
829.143433,1426
829.261841,1370
829.38031,1391
829.498657,1401
829.617004,1373
829.735413,1414
829.85376,1370
829.972107,1405
830.090515,1377
830.208862,1406
830.327209,1424
830.445557,1442
830.563904,1403
830.682312,1419
830.800659,1416
830.919006,1411
831.037354,1422
831.155701,1439
831.274048,1419
831.392395,1427
831.51062,1439
831.629028,1432
831.747314,1432
831.865662,1410
831.984009,1360
832.102356,1425
832.220642,1444
832.338928,1418
832.457275,1395
832.575623,1411
832.693909,1400
832.812134,1457
832.930481,1418
833.048828,1384
833.167114,1442
833.2854,1423
833.403687,1426
833.521973,1434
833.640259,1390
833.758545,1423
833.876831,1389
833.995056,1451
834.113281,1468
834.231628,1445
834.349915,1412
834.468201,1425
834.586426,1412
834.704651,1422
834.822998,1408
834.941162,1450
835.059448,1413
835.177673,1438
835.295959,1398
835.414246,1433
835.53241,1434
835.650635,1395
835.768921,1440
835.887146,1463
836.005371,1428
836.123596,1419
836.241821,1429
836.360046,1420
836.478271,1399
836.596497,1434
836.714722,1423
836.832886,1463
836.95105,1465
837.069336,1456
837.1875,1446
837.305725,1481
837.423889,1441
837.542053,1457
837.660339,1453
837.778503,1434
837.896667,1464
838.014832,1469
838.132996,1452
838.25116,1462
838.369385,1446
838.487488,1456
838.605713,1446
838.723877,1455
838.84198,1469
838.960205,1472
839.078308,1476
839.196472,1444
839.314636,1503
839.4328,1478
839.550964,1465
839.669067,1439
839.787231,1473
839.905396,1458
840.023499,1514
840.141602,1486
840.259766,1497
840.377869,1481
840.495972,1476
840.614136,1500
840.732239,1464
840.850342,1484
840.968445,1487
841.086548,1470
841.204651,1502
841.322754,1477
841.440918,1508
841.55896,1502
841.677002,1439
841.795166,1532
841.913208,1437
842.031311,1462
842.149353,1496
842.267456,1512
842.385498,1472
842.503601,1484
842.621643,1441
842.739746,1489
842.857788,1450
842.97583,1499
843.093933,1488
843.211975,1450
843.330017,1479
843.44812,1488
843.566101,1467
843.684204,1467
843.802246,1472
843.920227,1447
844.038269,1437
844.156311,1480
844.274292,1428
844.392395,1500
844.510376,1456
844.628357,1459
844.74646,1433
844.864441,1493
844.982422,1447
845.100403,1496
845.218384,1384
845.336426,1467
845.454468,1451
845.572449,1445
845.69043,1413
845.808411,1484
845.926453,1408
846.044373,1422
846.162354,1435
846.280396,1438
846.398315,1417
846.516296,1423
846.634216,1453
846.752197,1418
846.870178,1441
846.988098,1460
847.106079,1477
847.22406,1487
847.34198,1431
847.4599,1458
847.577881,1458
847.695801,1477
847.813782,1485
847.931641,1463
848.049561,1439
848.167603,1478
848.285461,1420
848.403381,1464
848.521362,1411
848.639221,1465
848.75708,1424
848.875,1456
848.99292,1465
849.110901,1470
849.22876,1475
849.34668,1477
849.464539,1438
849.582458,1485
849.700317,1491
849.818176,1487
849.936096,1443
850.053955,1454
850.171875,1449
850.289673,1468
850.407593,1433
850.525452,1480
850.643311,1461
850.761169,1458
850.878967,1448
850.996887,1454
851.114746,1445
851.232544,1438
851.350403,1439
851.468262,1460
851.58606,1439
851.703979,1457
851.821777,1444
851.939636,1418
852.057434,1448
852.175232,1486
852.293091,1493
852.410889,1466
852.528687,1492
852.646545,1516
852.764343,1493
852.88208,1496
852.999939,1442
853.117676,1455
853.235535,1482
853.353271,1482
853.471069,1437
853.588928,1467
853.706604,1495
853.824402,1463
853.9422,1498
854.059998,1473
854.177734,1473
854.295532,1465
854.413269,1462
854.531006,1459
854.648804,1499
854.766541,1461
854.884277,1444
855.002014,1466
855.119751,1501
855.237549,1522
855.355225,1481
855.473022,1491
855.590698,1486
855.708435,1493
855.826172,1471
855.943848,1475
856.061646,1470
856.179321,1498
856.296997,1464
856.414795,1502
856.53241,1456
856.650085,1499
856.767822,1493
856.885559,1502
857.003174,1513
857.120911,1521
857.238586,1499
857.356201,1538
857.473938,1519
857.591614,1520
857.709351,1484
857.826965,1469
857.944641,1531
858.062317,1509
858.179993,1521
858.297668,1511
858.415283,1486
858.532959,1502
858.650574,1535
858.768188,1482
858.885803,1485
859.003479,1521
859.121094,1474
859.23877,1513
859.356384,1467
859.473999,1469
859.591675,1460
859.709229,1509
859.826843,1465
859.944458,1450
860.062012,1422
860.179626,1425
860.297302,1454
860.414856,1472
860.532471,1466
860.650024,1482
860.767639,1526
860.885193,1438
861.002808,1480
861.120361,1483
861.237976,1457
861.35553,1467
861.473022,1472
861.590698,1450
861.708191,1477
861.825745,1471
861.943298,1437
862.060852,1477
862.178406,1410
862.295959,1481
862.413513,1392
862.531006,1444
862.64856,1433
862.766113,1419
862.883667,1457
863.00116,1416
863.118713,1402
863.236206,1444
863.353699,1475
863.471252,1458
863.588745,1464
863.706177,1459
863.82373,1435
863.941162,1443
864.058716,1486
864.176208,1445
864.29364,1430
864.411194,1497
864.528687,1447
864.646118,1454
864.763611,1437
864.881042,1424
864.998535,1468
865.116028,1473
865.233459,1421
865.350891,1414
865.468384,1442
865.585754,1478
865.703308,1452
865.820679,1423
865.938171,1458
866.055542,1475
866.173035,1453
866.290466,1439
866.407837,1426
866.52533,1429
866.6427,1436
866.760071,1443
866.877563,1422
866.994934,1454
867.112305,1421
867.229736,1464
867.347107,1411
867.464539,1441
867.58197,1445
867.699341,1420
867.81665,1470
867.934082,1474
868.051453,1421
868.168823,1436
868.286194,1386
868.403564,1464
868.520935,1434
868.638306,1436
868.755676,1455
868.872986,1458
868.990295,1484
869.107727,1451
869.225037,1440
869.342346,1454
869.459717,1488
869.577026,1481
869.694336,1489
869.811707,1468
869.929016,1481
870.046326,1448
870.163635,1462
870.280945,1512
870.398254,1500
870.515564,1487
870.632812,1472
870.750183,1524
870.867432,1504
870.984741,1507
871.102051,1468
871.219299,1548
871.336609,1500
871.453918,1542
871.571106,1500
871.688416,1531
871.805664,1552
871.922852,1552
872.040222,1542
872.157471,1573
872.274719,1570
872.391968,1554
872.509155,1515
872.626465,1517
872.743652,1548
872.860962,1559
872.978149,1459
873.095337,1533
873.212646,1518
873.329834,1527
873.44696,1467
873.564209,1504
873.681396,1532
873.798645,1528
873.915894,1493
874.03302,1543
874.150208,1559
874.267456,1541
874.384583,1518
874.501831,1537
874.618958,1552
874.736145,1567
874.853333,1587
874.970459,1581
875.087646,1562
875.204834,1548
875.32196,1569
875.439148,1542
875.556274,1542
875.673401,1580
875.790527,1499
875.907715,1519
876.024841,1527
876.141968,1542
876.259094,1536
876.376282,1497
876.493347,1455
876.610474,1528
876.7276,1474
876.844727,1528
876.961853,1501
877.078918,1474
877.195984,1490
877.313171,1521
877.430237,1511
877.547302,1426
877.664368,1493
877.781433,1463
877.898499,1498
878.015625,1485
878.13269,1498
878.249695,1487
878.366821,1453
878.483887,1483
878.600952,1468
878.717957,1483
878.834961,1448
878.952087,1446
879.069092,1461
879.186157,1441
879.303162,1445
879.420227,1444
879.537231,1487
879.654236,1468
879.77124,1434
879.888306,1417
880.005249,1456
880.122314,1425
880.239319,1414
880.356323,1426
880.473328,1452
880.590271,1453
880.707275,1432
880.824341,1430
880.941284,1421
881.058228,1406
881.175232,1459
881.292236,1450
881.40918,1387
881.526123,1412
881.643066,1445
881.760071,1421
881.877014,1423
881.993958,1461
882.11084,1432
882.227783,1443
882.344727,1435
882.46167,1459
882.578613,1437
882.695618,1440
882.812439,1445
882.929382,1434
883.046326,1449
883.163208,1469
883.280151,1446
883.397034,1439
883.513916,1472
883.630798,1431
883.747742,1473
883.864563,1465
883.981506,1484
884.098389,1463
884.21521,1474
884.332153,1487
884.448975,1459
884.565796,1512
884.682678,1493
884.7995,1535
884.916443,1580
885.033264,1659
885.150085,1619
885.266968,1710
885.383789,1709
885.500671,1709
885.617493,1719
885.734314,1714
885.851196,1726
885.967896,1704
886.084717,1718
886.201599,1727
886.318359,1680
886.435181,1685
886.552002,1652
886.668762,1620
886.785645,1634
886.902344,1689
887.019165,1600
887.135925,1622
887.252747,1608
887.369446,1607
887.486267,1566
887.603027,1531
887.719788,1526
887.836548,1543
887.953247,1518
888.070068,1517
888.186829,1497
888.303528,1525
888.420288,1513
888.536987,1485
888.653687,1486
888.770447,1451
888.887146,1509
889.003967,1460
889.120667,1447
889.237305,1501
889.354065,1439
889.470703,1418
889.587463,1416
889.704163,1482
889.820862,1421
889.937561,1459
890.054199,1418
890.170837,1476
890.287598,1441
890.404236,1418
890.520874,1438
890.637634,1453
890.754211,1499
890.87085,1423
890.987549,1441
891.104187,1415
891.220886,1465
891.337463,1491
891.454102,1442
891.57074,1464
891.687378,1448
891.804077,1455
891.920654,1457
892.037231,1448
892.15387,1476
892.270447,1443
892.387085,1465
892.503723,1477
892.6203,1459
892.736877,1432
892.853516,1449
892.970032,1497
893.08667,1456
893.203186,1495
893.319763,1462
893.43634,1442
893.552917,1459
893.669556,1482
893.786011,1501
893.902588,1438
894.019165,1477
894.135681,1437
894.252197,1443
894.368835,1434
894.485291,1467
894.601868,1436
894.718384,1448
894.8349,1463
894.951355,1466
895.067932,1447
895.184448,1478
895.300964,1488
895.417419,1462
895.533936,1440
895.650452,1469
895.766907,1451
895.883423,1460
895.999878,1421
896.116333,1470
896.232849,1424
896.349304,1419
896.465759,1437
896.582214,1451
896.698669,1464
896.815125,1411
896.931641,1450
897.048035,1429
897.164551,1473
897.280884,1442
897.397339,1446
897.513794,1431
897.630249,1454
897.746582,1450
897.863098,1505
897.979431,1431
898.095886,1453
898.212341,1463
898.328674,1497
898.445129,1493
898.561462,1458
898.677795,1478
898.794312,1493
898.910645,1462
899.026978,1499
899.143433,1457
899.259766,1470
899.37616,1469
899.492493,1451
899.608765,1455
899.725159,1451
899.841553,1482
899.957947,1452
900.07428,1473
900.190552,1447
900.306946,1440
900.423157,1443
900.53949,1486
900.655884,1508
900.772156,1489
900.888489,1492
901.004822,1476
901.121033,1469
901.237366,1476
901.353699,1489
901.46991,1470
901.586304,1530
901.702515,1496
901.818787,1504
901.93512,1498
902.051331,1548
902.167603,1599
902.283875,1585
902.400085,1593
902.516418,1570
902.632629,1614
902.74884,1664
902.865112,1617
902.981384,1636
903.097595,1586
903.213867,1620
903.330017,1601
903.446289,1610
903.5625,1553
903.67865,1586
903.794922,1562
903.911072,1559
904.027344,1616
904.143494,1568
904.259705,1551
904.375916,1527
904.492065,1520
904.608215,1539
904.724426,1490
904.840576,1486
904.956726,1492
905.072876,1514
905.189087,1470
905.305176,1511
905.421387,1496
905.537537,1524
905.653687,1465
905.769775,1471
905.885925,1493
906.002014,1480
906.118164,1464
906.234314,1487
906.350403,1480
906.466492,1464
906.582642,1513
906.69873,1491
906.814758,1477
906.930908,1494
907.046936,1477
907.163086,1480
907.279175,1445
907.395264,1482
907.511353,1510
907.62738,1517
907.743408,1468
907.859497,1482
907.975525,1519
908.091553,1446
908.207703,1506
908.32373,1454
908.439758,1503
908.555786,1448
908.671814,1464
908.787842,1498
908.90387,1471
909.019775,1452
909.135864,1481
909.251892,1507
909.367859,1486
909.483826,1510
909.599854,1531
909.715881,1495
909.831848,1507
909.947815,1508
910.063782,1508
910.179749,1506
910.295776,1509
910.411743,1532
910.527649,1494
910.643616,1497
910.759583,1513
910.875488,1498
910.991455,1466
911.107361,1469
911.223267,1471
911.339294,1477
911.4552,1492
911.571106,1473
911.687073,1469
911.802979,1505
911.918823,1494
912.034729,1492
912.150635,1505
912.266602,1484
912.382446,1433
912.498352,1487
912.614197,1452
912.730103,1487
912.846008,1480
792.44574,3133
792.56488,3084
792.68396,2966
792.80304,3068
792.92218,2904
793.041199,2887
793.160339,2782
793.279419,2760
793.398499,2756
793.517578,2702
793.636658,2610
793.755737,2631
793.874817,2618
793.993896,2580
794.112976,2529
794.232056,2533
794.351074,2468
794.470215,2441
794.589233,2450
794.708313,2405
794.827393,2415
794.946411,2371
795.065552,2386
795.18457,2365
795.303589,2383
795.422668,2364
795.541687,2315
795.660767,2290
795.779846,2233
795.898865,2293
796.017883,2258
796.136963,2234
796.255981,2235
796.375061,2229
796.49408,2216
796.613037,2209
796.732117,2194
796.851135,2134
796.970154,2143
797.089233,2137
797.208191,2122
797.327271,2137
797.446228,2106
797.565186,2146
797.684265,2122
797.803223,2066
797.922241,2053
798.04126,2081
798.160278,2076
798.279297,2047
798.398315,2071
798.517273,2054
798.636292,2054
798.75531,2030
798.874268,2047
798.993286,2053
799.112244,2029
799.231323,2117
799.350281,2046
799.469238,2046
799.588257,2036
799.707153,2001
799.826111,2044
799.945129,2029
800.064087,2027
800.183044,2023
800.302063,2011
800.421021,2004
800.539978,2001
800.658936,1958
800.777893,2021
800.896912,1995
801.015747,1993
801.134705,2048
801.253723,2015
801.37262,1980
801.491638,1965
801.610535,2005
801.729492,1980
801.84845,1944
801.967407,1981
802.086243,1965
802.205261,1994
802.324158,2002
802.443115,1998
802.562073,1996
802.680969,2010
802.799927,2004
802.918762,1989
803.037659,1974
803.156677,1997
803.275574,1963
803.39447,1972
803.513428,1921
803.632263,2017
803.751221,1983
803.870117,1930
803.989014,1977
804.107971,2042
804.226746,1930
804.345642,2007
804.4646,1977
804.583496,1999
804.702393,1986
804.821228,1978
804.940125,2008
805.059021,1955
805.177917,1988
805.296814,1946
805.415649,1975
805.534546,2013
805.653442,1965
805.772278,2017
805.891113,1986
806.01001,1999
806.128906,2003
806.247742,2009
806.366577,2005
806.485413,1959
806.604309,1976
806.723145,1969
806.84198,1966
806.960876,1939
807.079712,1919
807.198486,1958
807.317383,1951
807.436218,1999
807.554993,1990
807.673889,1982
807.792725,1992
807.91156,1996
808.030396,1997
808.14917,1940
808.268005,1982
808.386841,1981
808.505676,1974
808.624451,1974
808.743286,1971
808.862122,1991
808.980896,1948
809.099731,2017
809.218506,1962
809.337341,2015
809.456116,2032
809.57489,2002
809.693726,2014
809.8125,1964
809.931274,2015
810.050049,2004
810.168884,1956
810.287659,1993
810.406372,1968
810.525269,1965
810.643982,2016
810.762756,2003
810.881531,1970
811.000305,1973
811.11908,2015
811.237854,1991
811.356567,2000
811.475403,1979
811.594116,2004
811.71283,2011
811.831604,2031
811.950378,2021
812.069153,1932
812.187927,2024
812.30658,2062
812.425415,2011
812.544128,1999
812.662781,2026
812.781616,2003
812.900269,2004
813.019043,2013
813.137756,2001
813.256531,2013
813.375244,2017
813.493896,2002
813.612671,2057
813.731384,1993
813.850037,2044
813.96875,2025
814.087524,1981
814.206238,1989
814.324951,1972
814.443604,2035
814.562256,1989
814.68103,2018
814.799683,1965
814.918335,1973
815.037109,1962
815.155762,1998
815.274475,1971
815.393188,1954
815.511841,1880
815.630554,1907
815.749146,1912
815.867859,1938
815.986572,1870
816.105164,1890
816.223877,1929
816.342529,1902
816.461182,1945
816.579895,1955
816.698486,1874
816.817139,1934
816.935791,1935
817.054504,1930
817.173096,1900
817.291748,1901
817.4104,1935
817.529053,1868
817.647644,1859
817.766235,1864
817.884949,1806
818.00354,1803
818.122192,1764
818.240845,1771
818.359436,1756
818.478088,1670
818.59668,1683
818.715271,1688
818.833923,1656
818.952515,1599
819.071106,1634
819.189758,1618
819.30835,1596
819.426941,1637
819.545532,1591
819.664124,1550
819.782715,1558
819.901306,1609
820.019897,1589
820.138489,1554
820.25708,1538
820.375671,1578
820.494202,1554
820.612732,1587
820.731384,1498
820.849915,1570
820.968506,1574
821.087097,1537
821.205627,1505
821.324158,1515
821.442749,1504
821.561279,1498
821.679871,1540
821.798401,1553
821.916931,1540
822.035461,1530
822.154053,1492
822.272583,1509
822.391174,1545
822.509583,1509
822.628174,1551
822.746704,1484
822.865234,1496
822.983765,1441
823.102295,1494
823.220825,1455
823.339294,1457
823.457825,1473
823.576355,1506
823.694824,1499
823.813354,1505
823.931885,1503
824.050354,1540
824.168884,1503
824.287354,1508
824.405823,1510
824.524353,1531
824.642822,1508
824.761353,1530
824.879822,1564
824.998291,1518
825.116699,1494
825.235291,1499
825.353699,1448
825.472168,1465
825.590637,1488
825.709106,1500
825.827576,1487
825.946045,1443
826.064453,1498
826.182983,1473
826.301392,1538
826.4198,1428
826.53833,1457
826.656738,1434
826.775208,1484
826.893677,1444
827.012024,1415
827.130493,1420
827.248962,1436
827.36731,1436
827.485779,1444
827.604248,1425
827.722595,1477
827.841064,1402
827.959412,1444
828.077942,1419
828.196289,1437
828.314636,1427
828.433105,1409
828.551514,1443
828.669861,1453
828.78833,1406
828.906677,1382
829.025085,1389
829.143433,1420
829.261841,1407
829.38031,1419
829.498657,1400
829.617004,1441
829.735413,1405
829.85376,1408
829.972107,1402
830.090515,1420
830.208862,1395
830.327209,1379
830.445557,1414
830.563904,1406
830.682312,1375
830.800659,1406
830.919006,1443
831.037354,1445
831.155701,1431
831.274048,1432
831.392395,1400
831.51062,1397
831.629028,1402
831.747314,1389
831.865662,1414
831.984009,1411
832.102356,1449
832.220642,1442
832.338928,1482
832.457275,1446
832.575623,1403
832.693909,1416
832.812134,1453
832.930481,1396
833.048828,1437
833.167114,1447
833.2854,1411
833.403687,1426
833.521973,1448
833.640259,1425
833.758545,1425
833.876831,1430
833.995056,1420
834.113281,1392
834.231628,1442
834.349915,1437
834.468201,1415
834.586426,1462
834.704651,1423
834.822998,1411
834.941162,1442
835.059448,1472
835.177673,1412
835.295959,1454
835.414246,1465
835.53241,1421
835.650635,1430
835.768921,1427
835.887146,1473
836.005371,1434
836.123596,1460
836.241821,1460
836.360046,1428
836.478271,1440
836.596497,1432
836.714722,1452
836.832886,1478
836.95105,1484
837.069336,1468
837.1875,1487
837.305725,1491
837.423889,1446
837.542053,1506
837.660339,1448
837.778503,1485
837.896667,1474
838.014832,1485
838.132996,1445
838.25116,1442
838.369385,1468
838.487488,1457
838.605713,1469
838.723877,1512
838.84198,1481
838.960205,1495
839.078308,1479
839.196472,1478
839.314636,1425
839.4328,1449
839.550964,1506
839.669067,1472
839.787231,1472
839.905396,1439
840.023499,1509
840.141602,1484
840.259766,1420
840.377869,1501
840.495972,1487
840.614136,1473
840.732239,1519
840.850342,1493
840.968445,1477
841.086548,1451
841.204651,1525
841.322754,1512
841.440918,1471
841.55896,1493
841.677002,1503
841.795166,1495
841.913208,1479
842.031311,1481
842.149353,1461
842.267456,1505
842.385498,1511
842.503601,1491
842.621643,1478
842.739746,1498
842.857788,1436
842.97583,1460
843.093933,1473
843.211975,1485
843.330017,1491
843.44812,1538
843.566101,1476
843.684204,1473
843.802246,1489
843.920227,1471
844.038269,1510
844.156311,1466
844.274292,1448
844.392395,1497
844.510376,1468
844.628357,1477
844.74646,1476
844.864441,1455
844.982422,1413
845.100403,1449
845.218384,1438
845.336426,1461
845.454468,1440
845.572449,1413
845.69043,1442
845.808411,1432
845.926453,1447
846.044373,1396
846.162354,1449
846.280396,1431
846.398315,1490
846.516296,1436
846.634216,1430
846.752197,1453
846.870178,1434
846.988098,1490
847.106079,1465
847.22406,1450
847.34198,1457
847.4599,1458
847.577881,1459
847.695801,1449
847.813782,1459
847.931641,1491
848.049561,1460
848.167603,1410
848.285461,1443
848.403381,1483
848.521362,1444
848.639221,1452
848.75708,1480
848.875,1505
848.99292,1527
849.110901,1440
849.22876,1521
849.34668,1495
849.464539,1441
849.582458,1466
849.700317,1495
849.818176,1452
849.936096,1519
850.053955,1486
850.171875,1464
850.289673,1491
850.407593,1432
850.525452,1484
850.643311,1466
850.761169,1455
850.878967,1476
850.996887,1427
851.114746,1455
851.232544,1452
851.350403,1441
851.468262,1458
851.58606,1420
851.703979,1443
851.821777,1501
851.939636,1449
852.057434,1482
852.175232,1478
852.293091,1465
852.410889,1476
852.528687,1499
852.646545,1524
852.764343,1532
852.88208,1502
852.999939,1496
853.117676,1484
853.235535,1452
853.353271,1483
853.471069,1498
853.588928,1471
853.706604,1469
853.824402,1423
853.9422,1484
854.059998,1461
854.177734,1429
854.295532,1497
854.413269,1483
854.531006,1461
854.648804,1462
854.766541,1485
854.884277,1526
855.002014,1469
855.119751,1484
855.237549,1493
855.355225,1465
855.473022,1482
855.590698,1432
855.708435,1515
855.826172,1483
855.943848,1475
856.061646,1493
856.179321,1460
856.296997,1480
856.414795,1506
856.53241,1522
856.650085,1481
856.767822,1490
856.885559,1507
857.003174,1526
857.120911,1506
857.238586,1516
857.356201,1532
857.473938,1494
857.591614,1586
857.709351,1497
857.826965,1510
857.944641,1517
858.062317,1539
858.179993,1452
858.297668,1532
858.415283,1546
858.532959,1520
858.650574,1548
858.768188,1497
858.885803,1488
859.003479,1493
859.121094,1512
859.23877,1495
859.356384,1446
859.473999,1486
859.591675,1506
859.709229,1500
859.826843,1486
859.944458,1475
860.062012,1506
860.179626,1446
860.297302,1444
860.414856,1471
860.532471,1439
860.650024,1461
860.767639,1444
860.885193,1455
861.002808,1484
861.120361,1445
861.237976,1483
861.35553,1487
861.473022,1464
861.590698,1495
861.708191,1496
861.825745,1458
861.943298,1447
862.060852,1524
862.178406,1436
862.295959,1467
862.413513,1441
862.531006,1459
862.64856,1445
862.766113,1421
862.883667,1425
863.00116,1476
863.118713,1478
863.236206,1439
863.353699,1408
863.471252,1427
863.588745,1458
863.706177,1443
863.82373,1464
863.941162,1460
864.058716,1471
864.176208,1428
864.29364,1481
864.411194,1460
864.528687,1404
864.646118,1491
864.763611,1455
864.881042,1453
864.998535,1425
865.116028,1464
865.233459,1463
865.350891,1442
865.468384,1472
865.585754,1456
865.703308,1414
865.820679,1435
865.938171,1445
866.055542,1463
866.173035,1459
866.290466,1477
866.407837,1423
866.52533,1454
866.6427,1413
866.760071,1458
866.877563,1466
866.994934,1420
867.112305,1450
867.229736,1437
867.347107,1413
867.464539,1495
867.58197,1470
867.699341,1471
867.81665,1465
867.934082,1461
868.051453,1477
868.168823,1472
868.286194,1451
868.403564,1486
868.520935,1451
868.638306,1441
868.755676,1473
868.872986,1459
868.990295,1415
869.107727,1493
869.225037,1462
869.342346,1515
869.459717,1450
869.577026,1457
869.694336,1487
869.811707,1484
869.929016,1488
870.046326,1517
870.163635,1536
870.280945,1458
870.398254,1513
870.515564,1504
870.632812,1529
870.750183,1530
870.867432,1501
870.984741,1538
871.102051,1493
871.219299,1493
871.336609,1546
871.453918,1543
871.571106,1603
871.688416,1536
871.805664,1506
871.922852,1521
872.040222,1579
872.157471,1564
872.274719,1524
872.391968,1566
872.509155,1555
872.626465,1496
872.743652,1513
872.860962,1546
872.978149,1518
873.095337,1517
873.212646,1505
873.329834,1480
873.44696,1482
873.564209,1532
873.681396,1548
873.798645,1538
873.915894,1572
874.03302,1530
874.150208,1530
874.267456,1562
874.384583,1566
874.501831,1567
874.618958,1594
874.736145,1539
874.853333,1593
874.970459,1550
875.087646,1565
875.204834,1586
875.32196,1570
875.439148,1529
875.556274,1514
875.673401,1553
875.790527,1529
875.907715,1502
876.024841,1533
876.141968,1522
876.259094,1523
876.376282,1485
876.493347,1521
876.610474,1490
876.7276,1510
876.844727,1472
876.961853,1521
877.078918,1491
877.195984,1511
877.313171,1510
877.430237,1521
877.547302,1521
877.664368,1476
877.781433,1473
877.898499,1499
878.015625,1479
878.13269,1486
878.249695,1491
878.366821,1479
878.483887,1486
878.600952,1480
878.717957,1466
878.834961,1440
878.952087,1496
879.069092,1465
879.186157,1467
879.303162,1466
879.420227,1442
879.537231,1469
879.654236,1445
879.77124,1477
879.888306,1469
880.005249,1450
880.122314,1448
880.239319,1430
880.356323,1430
880.473328,1400
880.590271,1422
880.707275,1481
880.824341,1434
880.941284,1453
881.058228,1438
881.175232,1454
881.292236,1390
881.40918,1442
881.526123,1425
881.643066,1417
881.760071,1445
881.877014,1455
881.993958,1439
882.11084,1455
882.227783,1405
882.344727,1495
882.46167,1456
882.578613,1469
882.695618,1433
882.812439,1474
882.929382,1448
883.046326,1477
883.163208,1466
883.280151,1413
883.397034,1444
883.513916,1496
883.630798,1461
883.747742,1469
883.864563,1530
883.981506,1473
884.098389,1451
884.21521,1488
884.332153,1512
884.448975,1492
884.565796,1497
884.682678,1584
884.7995,1610
884.916443,1642
885.033264,1658
885.150085,1660
885.266968,1737
885.383789,1703
885.500671,1712
885.617493,1763
885.734314,1741
885.851196,1714
885.967896,1715
886.084717,1681
886.201599,1760
886.318359,1723
886.435181,1692
886.552002,1644
886.668762,1696
886.785645,1662
886.902344,1661
887.019165,1654
887.135925,1619
887.252747,1643
887.369446,1546
887.486267,1602
887.603027,1564
887.719788,1538
887.836548,1543
887.953247,1529
888.070068,1514
888.186829,1491
888.303528,1515
888.420288,1473
888.536987,1460
888.653687,1450
888.770447,1445
888.887146,1456
889.003967,1430
889.120667,1476
889.237305,1452
889.354065,1452
889.470703,1418
889.587463,1458
889.704163,1489
889.820862,1433
889.937561,1497
890.054199,1455
890.170837,1436
890.287598,1452
890.404236,1489
890.520874,1455
890.637634,1482
890.754211,1389
890.87085,1428
890.987549,1484
891.104187,1467
891.220886,1499
891.337463,1427
891.454102,1491
891.57074,1491
891.687378,1478
891.804077,1490
891.920654,1455
892.037231,1526
892.15387,1496
892.270447,1476
892.387085,1459
892.503723,1446
892.6203,1469
892.736877,1444
892.853516,1500
892.970032,1435
893.08667,1451
893.203186,1458
893.319763,1456
893.43634,1457
893.552917,1442
893.669556,1506
893.786011,1457
893.902588,1466
894.019165,1419
894.135681,1474
894.252197,1499
894.368835,1418
894.485291,1497
894.601868,1474
894.718384,1495
894.8349,1472
894.951355,1469
895.067932,1450
895.184448,1426
895.300964,1455
895.417419,1471
895.533936,1426
895.650452,1475
895.766907,1457
895.883423,1415
895.999878,1448
896.116333,1450
896.232849,1490
896.349304,1456
896.465759,1490
896.582214,1480
896.698669,1480
896.815125,1470
896.931641,1450
897.048035,1489
897.164551,1466
897.280884,1470
897.397339,1517
897.513794,1471
897.630249,1492
897.746582,1474
897.863098,1476
897.979431,1470
898.095886,1445
898.212341,1467
898.328674,1491
898.445129,1523
898.561462,1486
898.677795,1492
898.794312,1481
898.910645,1455
899.026978,1467
899.143433,1490
899.259766,1461
899.37616,1445
899.492493,1480
899.608765,1507
899.725159,1486
899.841553,1458
899.957947,1487
900.07428,1506
900.190552,1505
900.306946,1523
900.423157,1483
900.53949,1481
900.655884,1454
900.772156,1509
900.888489,1469
901.004822,1505
901.121033,1489
901.237366,1473
901.353699,1474
901.46991,1513
901.586304,1505
901.702515,1487
901.818787,1520
901.93512,1596
902.051331,1573
902.167603,1583
902.283875,1556
902.400085,1580
902.516418,1631
902.632629,1640
902.74884,1670
902.865112,1658
902.981384,1638
903.097595,1621
903.213867,1610
903.330017,1608
903.446289,1633
903.5625,1586
903.67865,1566
903.794922,1586
903.911072,1581
904.027344,1594
904.143494,1594
904.259705,1572
904.375916,1519
904.492065,1543
904.608215,1553
904.724426,1520
904.840576,1458
904.956726,1529
905.072876,1554
905.189087,1517
905.305176,1496
905.421387,1499
905.537537,1502
905.653687,1467
905.769775,1513
905.885925,1498
906.002014,1513
906.118164,1492
906.234314,1487
906.350403,1495
906.466492,1456
906.582642,1507
906.69873,1505
906.814758,1503
906.930908,1480
907.046936,1498
907.163086,1498
907.279175,1469
907.395264,1482
907.511353,1516
907.62738,1479
907.743408,1505
907.859497,1491
907.975525,1549
908.091553,1485
908.207703,1495
908.32373,1547
908.439758,1494
908.555786,1512
908.671814,1514
908.787842,1449
908.90387,1533
909.019775,1487
909.135864,1526
909.251892,1495
909.367859,1477
909.483826,1471
909.599854,1498
909.715881,1521
909.831848,1518
909.947815,1513
910.063782,1515
910.179749,1519
910.295776,1526
910.411743,1514
910.527649,1533
910.643616,1537
910.759583,1504
910.875488,1534
910.991455,1524
911.107361,1487
911.223267,1486
911.339294,1502
911.4552,1539
911.571106,1482
911.687073,1509
911.802979,1524
911.918823,1506
912.034729,1502
912.150635,1516
912.266602,1511
912.382446,1511
912.498352,1490
912.614197,1525
912.730103,1474
912.846008,1470
