792.44574,1647
792.56488,1642
792.68396,1637
792.80304,1605
792.92218,1561
793.041199,1592
793.160339,1587
793.279419,1549
793.398499,1546
793.517578,1564
793.636658,1537
793.755737,1556
793.874817,1542
793.993896,1558
794.112976,1484
794.232056,1538
794.351074,1511
794.470215,1523
794.589233,1524
794.708313,1510
794.827393,1546
794.946411,1508
795.065552,1507
795.18457,1474
795.303589,1532
795.422668,1514
795.541687,1515
795.660767,1545
795.779846,1488
795.898865,1518
796.017883,1481
796.136963,1467
796.255981,1475
796.375061,1489
796.49408,1494
796.613037,1532
796.732117,1464
796.851135,1498
796.970154,1455
797.089233,1470
797.208191,1491
797.327271,1434
797.446228,1505
797.565186,1465
797.684265,1480
797.803223,1486
797.922241,1434
798.04126,1457
798.160278,1448
798.279297,1435
798.398315,1515
798.517273,1470
798.636292,1481
798.75531,1470
798.874268,1465
798.993286,1482
799.112244,1444
799.231323,1524
799.350281,1454
799.469238,1446
799.588257,1476
799.707153,1441
799.826111,1432
799.945129,1510
800.064087,1459
800.183044,1475
800.302063,1456
800.421021,1406
800.539978,1438
800.658936,1490
800.777893,1445
800.896912,1472
801.015747,1400
801.134705,1445
801.253723,1438
801.37262,1442
801.491638,1494
801.610535,1448
801.729492,1505
801.84845,1450
801.967407,1489
802.086243,1435
802.205261,1455
802.324158,1447
802.443115,1428
802.562073,1440
802.680969,1428
802.799927,1481
802.918762,1433
803.037659,1441
803.156677,1457
803.275574,1445
803.39447,1420
803.513428,1452
803.632263,1465
803.751221,1417
803.870117,1503
803.989014,1439
804.107971,1435
804.226746,1424
804.345642,1433
804.4646,1460
804.583496,1438
804.702393,1414
804.821228,1412
804.940125,1433
805.059021,1424
805.177917,1452
805.296814,1449
805.415649,1449
805.534546,1430
805.653442,1442
805.772278,1406
805.891113,1447
806.01001,1447
806.128906,1452
806.247742,1478
806.366577,1465
806.485413,1427
806.604309,1486
806.723145,1450
806.84198,1445
806.960876,1471
807.079712,1390
807.198486,1439
807.317383,1467
807.436218,1444
807.554993,1417
807.673889,1455
807.792725,1464
807.91156,1476
808.030396,1434
808.14917,1462
808.268005,1437
808.386841,1446
808.505676,1431
808.624451,1413
808.743286,1434
808.862122,1450
808.980896,1447
809.099731,1451
809.218506,1457
809.337341,1459
809.456116,1409
809.57489,1463
809.693726,1454
809.8125,1476
809.931274,1417
810.050049,1414
810.168884,1465
810.287659,1427
810.406372,1436
810.525269,1413
810.643982,1425
810.762756,1462
810.881531,1403
811.000305,1428
811.11908,1438
811.237854,1428
811.356567,1481
811.475403,1424
811.594116,1390
811.71283,1444
811.831604,1440
811.950378,1433
812.069153,1451
812.187927,1458
812.30658,1390
812.425415,1416
812.544128,1447
812.662781,1473
812.781616,1421
812.900269,1396
813.019043,1448
813.137756,1442
813.256531,1454
813.375244,1391
813.493896,1408
813.612671,1441
813.731384,1433
813.850037,1460
813.96875,1430
814.087524,1378
814.206238,1469
814.324951,1422
814.443604,1399
814.562256,1436
814.68103,1382
814.799683,1357
814.918335,1397
815.037109,1434
815.155762,1429
815.274475,1430
815.393188,1436
815.511841,1399
815.630554,1417
815.749146,1403
815.867859,1407
815.986572,1408
816.105164,1372
816.223877,1431
816.342529,1375
816.461182,1364
816.579895,1394
816.698486,1425
816.817139,1418
816.935791,1392
817.054504,1450
817.173096,1401
817.291748,1436
817.4104,1378
817.529053,1379
817.647644,1398
817.766235,1379
817.884949,1366
818.00354,1373
818.122192,1386
818.240845,1357
818.359436,1347
818.478088,1354
818.59668,1367
818.715271,1386
818.833923,1343
818.952515,1339
819.071106,1345
819.189758,1354
819.30835,1333
819.426941,1314
819.545532,1386
819.664124,1338
819.782715,1354
819.901306,1344
820.019897,1319
820.138489,1318
820.25708,1326
820.375671,1330
820.494202,1382
820.612732,1328
820.731384,1313
820.849915,1326
820.968506,1291
821.087097,1305
821.205627,1363
821.324158,1342
821.442749,1325
821.561279,1325
821.679871,1329
821.798401,1293
821.916931,1361
822.035461,1333
822.154053,1328
822.272583,1347
822.391174,1311
822.509583,1313
822.628174,1313
822.746704,1317
822.865234,1340
822.983765,1289
823.102295,1335
823.220825,1325
823.339294,1341
823.457825,1327
823.576355,1324
823.694824,1304
823.813354,1354
823.931885,1308
824.050354,1315
824.168884,1283
824.287354,1297
824.405823,1295
824.524353,1317
824.642822,1333
824.761353,1312
824.879822,1339
824.998291,1307
825.116699,1319
825.235291,1325
825.353699,1321
825.472168,1274
825.590637,1346
825.709106,1315
825.827576,1247
825.946045,1312
826.064453,1256
826.182983,1302
826.301392,1290
826.4198,1299
826.53833,1285
826.656738,1309
826.775208,1324
826.893677,1295
827.012024,1305
827.130493,1277
827.248962,1303
827.36731,1288
827.485779,1299
827.604248,1262
827.722595,1281
827.841064,1273
827.959412,1253
828.077942,1286
828.196289,1282
828.314636,1270
828.433105,1271
828.551514,1263
828.669861,1282
828.78833,1305
828.906677,1275
829.025085,1275
829.143433,1270
829.261841,1270
829.38031,1254
829.498657,1211
829.617004,1282
829.735413,1281
829.85376,1297
829.972107,1291
830.090515,1276
830.208862,1265
830.327209,1298
830.445557,1287
830.563904,1292
830.682312,1286
830.800659,1265
830.919006,1268
831.037354,1225
831.155701,1326
831.274048,1266
831.392395,1262
831.51062,1305
831.629028,1299
831.747314,1296
831.865662,1250
831.984009,1249
832.102356,1281
832.220642,1231
832.338928,1269
832.457275,1282
832.575623,1269
832.693909,1251
832.812134,1294
832.930481,1254
833.048828,1286
833.167114,1288
833.2854,1289
833.403687,1238
833.521973,1280
833.640259,1275
833.758545,1254
833.876831,1269
833.995056,1280
834.113281,1268
834.231628,1255
834.349915,1278
834.468201,1271
834.586426,1288
834.704651,1274
834.822998,1269
834.941162,1303
835.059448,1238
835.177673,1254
835.295959,1275
835.414246,1236
835.53241,1253
835.650635,1271
835.768921,1236
835.887146,1304
836.005371,1283
836.123596,1263
836.241821,1237
836.360046,1247
836.478271,1261
836.596497,1296
836.714722,1269
836.832886,1236
836.95105,1270
837.069336,1283
837.1875,1267
837.305725,1240
837.423889,1292
837.542053,1217
837.660339,1227
837.778503,1322
837.896667,1255
838.014832,1253
838.132996,1230
838.25116,1296
838.369385,1255
838.487488,1258
838.605713,1264
838.723877,1319
838.84198,1257
838.960205,1251
839.078308,1218
839.196472,1292
839.314636,1272
839.4328,1253
839.550964,1268
839.669067,1229
839.787231,1288
839.905396,1270
840.023499,1276
840.141602,1248
840.259766,1236
840.377869,1237
840.495972,1269
840.614136,1287
840.732239,1287
840.850342,1271
840.968445,1241
841.086548,1240
841.204651,1255
841.322754,1225
841.440918,1287
841.55896,1259
841.677002,1269
841.795166,1263
841.913208,1268
842.031311,1306
842.149353,1271
842.267456,1256
842.385498,1269
842.503601,1264
842.621643,1308
842.739746,1234
842.857788,1245
842.97583,1307
843.093933,1228
843.211975,1266
843.330017,1262
843.44812,1252
843.566101,1244
843.684204,1286
843.802246,1215
843.920227,1217
844.038269,1280
844.156311,1252
844.274292,1259
844.392395,1247
844.510376,1262
844.628357,1239
844.74646,1230
844.864441,1280
844.982422,1257
845.100403,1251
845.218384,1273
845.336426,1258
845.454468,1274
845.572449,1247
845.69043,1251
845.808411,1214
845.926453,1233
846.044373,1236
846.162354,1235
846.280396,1255
846.398315,1195
846.516296,1269
846.634216,1230
846.752197,1234
846.870178,1242
846.988098,1251
847.106079,1249
847.22406,1280
847.34198,1262
847.4599,1232
847.577881,1280
847.695801,1209
847.813782,1234
847.931641,1259
848.049561,1265
848.167603,1250
848.285461,1243
848.403381,1256
848.521362,1267
848.639221,1256
848.75708,1250
848.875,1224
848.99292,1224
849.110901,1297
849.22876,1256
849.34668,1253
849.464539,1253
849.582458,1294
849.700317,1226
849.818176,1253
849.936096,1292
850.053955,1276
850.171875,1252
850.289673,1283
850.407593,1292
850.525452,1253
850.643311,1232
850.761169,1257
850.878967,1244
850.996887,1264
851.114746,1264
851.232544,1285
851.350403,1295
851.468262,1242
851.58606,1268
851.703979,1245
851.821777,1335
851.939636,1260
852.057434,1231
852.175232,1265
852.293091,1252
852.410889,1254
852.528687,1261
852.646545,1274
852.764343,1240
852.88208,1286
852.999939,1241
853.117676,1255
853.235535,1267
853.353271,1264
853.471069,1266
853.588928,1269
853.706604,1260
853.824402,1242
853.9422,1251
854.059998,1249
854.177734,1275
854.295532,1263
854.413269,1265
854.531006,1239
854.648804,1278
854.766541,1230
854.884277,1273
855.002014,1235
855.119751,1258
855.237549,1250
855.355225,1263
855.473022,1228
855.590698,1216
855.708435,1286
855.826172,1240
855.943848,1278
856.061646,1273
856.179321,1273
856.296997,1222
856.414795,1265
856.53241,1235
856.650085,1262
856.767822,1240
856.885559,1234
857.003174,1259
857.120911,1236
857.238586,1257
857.356201,1282
857.473938,1291
857.591614,1253
857.709351,1279
857.826965,1288
857.944641,1234
858.062317,1242
858.179993,1260
858.297668,1231
858.415283,1262
858.532959,1288
858.650574,1267
858.768188,1265
858.885803,1264
859.003479,1274
859.121094,1262
859.23877,1291
859.356384,1270
859.473999,1270
859.591675,1250
859.709229,1290
859.826843,1267
859.944458,1244
860.062012,1292
860.179626,1261
860.297302,1350
860.414856,1244
860.532471,1280
860.650024,1271
860.767639,1278
860.885193,1307
861.002808,1243
861.120361,1287
861.237976,1267
861.35553,1267
861.473022,1279
861.590698,1272
861.708191,1263
861.825745,1298
861.943298,1272
862.060852,1278
862.178406,1292
862.295959,1227
862.413513,1242
862.531006,1245
862.64856,1260
862.766113,1267
862.883667,1247
863.00116,1289
863.118713,1244
863.236206,1287
863.353699,1270
863.471252,1294
863.588745,1269
863.706177,1277
863.82373,1269
863.941162,1233
864.058716,1300
864.176208,1296
864.29364,1274
864.411194,1299
864.528687,1238
864.646118,1282
864.763611,1237
864.881042,1258
864.998535,1294
865.116028,1257
865.233459,1283
865.350891,1286
865.468384,1272
865.585754,1290
865.703308,1266
865.820679,1298
865.938171,1275
866.055542,1291
866.173035,1269
866.290466,1271
866.407837,1280
866.52533,1255
866.6427,1266
866.760071,1235
866.877563,1270
866.994934,1301
867.112305,1258
867.229736,1231
867.347107,1283
867.464539,1218
867.58197,1282
867.699341,1280
867.81665,1265
867.934082,1273
868.051453,1285
868.168823,1254
868.286194,1291
868.403564,1306
868.520935,1308
868.638306,1262
868.755676,1270
868.872986,1264
868.990295,1293
869.107727,1277
869.225037,1273
869.342346,1294
869.459717,1279
869.577026,1298
869.694336,1288
869.811707,1275
869.929016,1277
870.046326,1293
870.163635,1263
870.280945,1284
870.398254,1273
870.515564,1297
870.632812,1287
870.750183,1273
870.867432,1283
870.984741,1236
871.102051,1296
871.219299,1271
871.336609,1339
871.453918,1277
871.571106,1296
871.688416,1257
871.805664,1273
871.922852,1277
872.040222,1298
872.157471,1279
872.274719,1293
872.391968,1277
872.509155,1282
872.626465,1262
872.743652,1273
872.860962,1290
872.978149,1306
873.095337,1271
873.212646,1295
873.329834,1249
873.44696,1273
873.564209,1245
873.681396,1303
873.798645,1300
873.915894,1292
874.03302,1299
874.150208,1291
874.267456,1304
874.384583,1280
874.501831,1303
874.618958,1278
874.736145,1257
874.853333,1292
874.970459,1311
875.087646,1298
875.204834,1333
875.32196,1302
875.439148,1273
875.556274,1274
875.673401,1299
875.790527,1271
875.907715,1296
876.024841,1279
876.141968,1303
876.259094,1277
876.376282,1295
876.493347,1328
876.610474,1281
876.7276,1288
876.844727,1273
876.961853,1278
877.078918,1299
877.195984,1294
877.313171,1260
877.430237,1286
877.547302,1331
877.664368,1324
877.781433,1300
877.898499,1286
878.015625,1288
878.13269,1281
878.249695,1305
878.366821,1285
878.483887,1346
878.600952,1260
878.717957,1284
878.834961,1327
878.952087,1291
879.069092,1356
879.186157,1299
879.303162,1277
879.420227,1285
879.537231,1293
879.654236,1272
879.77124,1266
879.888306,1266
880.005249,1309
880.122314,1276
880.239319,1293
880.356323,1286
880.473328,1299
880.590271,1291
880.707275,1308
880.824341,1293
880.941284,1301
881.058228,1267
881.175232,1308
881.292236,1259
881.40918,1267
881.526123,1287
881.643066,1318
881.760071,1333
881.877014,1293
881.993958,1310
882.11084,1284
882.227783,1298
882.344727,1276
882.46167,1289
882.578613,1263
882.695618,1302
882.812439,1322
882.929382,1271
883.046326,1316
883.163208,1320
883.280151,1287
883.397034,1285
883.513916,1335
883.630798,1287
883.747742,1331
883.864563,1283
883.981506,1324
884.098389,1298
884.21521,1339
884.332153,1314
884.448975,1312
884.565796,1308
884.682678,1298
884.7995,1331
884.916443,1325
885.033264,1333
885.150085,1312
885.266968,1355
885.383789,1314
885.500671,1354
885.617493,1305
885.734314,1301
885.851196,1346
885.967896,1352
886.084717,1293
886.201599,1345
886.318359,1282
886.435181,1311
886.552002,1346
886.668762,1340
886.785645,1327
886.902344,1293
887.019165,1329
887.135925,1298
887.252747,1311
887.369446,1336
887.486267,1340
887.603027,1317
887.719788,1368
887.836548,1290
887.953247,1347
888.070068,1307
888.186829,1311
888.303528,1310
888.420288,1329
888.536987,1295
888.653687,1322
888.770447,1322
888.887146,1309
889.003967,1286
889.120667,1314
889.237305,1296
889.354065,1356
889.470703,1311
889.587463,1298
889.704163,1339
889.820862,1340
889.937561,1305
890.054199,1317
890.170837,1330
890.287598,1294
890.404236,1311
890.520874,1327
890.637634,1360
890.754211,1299
890.87085,1339
890.987549,1344
891.104187,1343
891.220886,1330
891.337463,1344
891.454102,1342
891.57074,1342
891.687378,1363
891.804077,1313
891.920654,1306
892.037231,1358
892.15387,1341
892.270447,1288
892.387085,1365
892.503723,1335
892.6203,1305
892.736877,1307
892.853516,1338
892.970032,1315
893.08667,1359
893.203186,1312
893.319763,1354
893.43634,1332
893.552917,1352
893.669556,1356
893.786011,1336
893.902588,1359
894.019165,1351
894.135681,1336
894.252197,1315
894.368835,1356
894.485291,1396
894.601868,1321
894.718384,1321
894.8349,1328
894.951355,1365
895.067932,1339
895.184448,1339
895.300964,1329
895.417419,1365
895.533936,1338
895.650452,1346
895.766907,1347
895.883423,1304
895.999878,1389
896.116333,1310
896.232849,1350
896.349304,1283
896.465759,1344
896.582214,1303
896.698669,1347
896.815125,1345
896.931641,1307
897.048035,1374
897.164551,1352
897.280884,1332
897.397339,1333
897.513794,1339
897.630249,1322
897.746582,1376
897.863098,1342
897.979431,1328
898.095886,1338
898.212341,1338
898.328674,1308
898.445129,1333
898.561462,1379
898.677795,1354
898.794312,1322
898.910645,1329
899.026978,1361
899.143433,1372
899.259766,1366
899.37616,1327
899.492493,1341
899.608765,1344
899.725159,1345
899.841553,1345
899.957947,1379
900.07428,1340
900.190552,1364
900.306946,1349
900.423157,1352
900.53949,1363
900.655884,1356
900.772156,1353
900.888489,1345
901.004822,1334
901.121033,1337
901.237366,1350
901.353699,1402
901.46991,1340
901.586304,1368
901.702515,1367
901.818787,1335
901.93512,1342
902.051331,1352
902.167603,1328
902.283875,1355
902.400085,1335
902.516418,1381
902.632629,1326
902.74884,1365
902.865112,1361
902.981384,1354
903.097595,1367
903.213867,1358
903.330017,1370
903.446289,1355
903.5625,1360
903.67865,1351
903.794922,1379
903.911072,1339
904.027344,1372
904.143494,1318
904.259705,1384
904.375916,1332
904.492065,1370
904.608215,1352
904.724426,1380
904.840576,1389
904.956726,1352
905.072876,1374
905.189087,1379
905.305176,1381
905.421387,1387
905.537537,1430
905.653687,1355
905.769775,1369
905.885925,1363
906.002014,1345
906.118164,1364
906.234314,1402
906.350403,1380
906.466492,1394
906.582642,1391
906.69873,1410
906.814758,1390
906.930908,1383
907.046936,1353
907.163086,1414
907.279175,1352
907.395264,1354
907.511353,1363
907.62738,1393
907.743408,1410
907.859497,1357
907.975525,1359
908.091553,1339
908.207703,1379
908.32373,1353
908.439758,1353
908.555786,1404
908.671814,1372
908.787842,1366
908.90387,1355
909.019775,1371
909.135864,1365
909.251892,1401
909.367859,1388
909.483826,1379
909.599854,1362
909.715881,1354
909.831848,1395
909.947815,1401
910.063782,1368
910.179749,1404
910.295776,1392
910.411743,1360
910.527649,1389
910.643616,1391
910.759583,1388
910.875488,1414
910.991455,1389
911.107361,1405
911.223267,1385
911.339294,1443
911.4552,1359
911.571106,1393
911.687073,1384
911.802979,1369
911.918823,1408
912.034729,1383
912.150635,1391
912.266602,1351
912.382446,1359
912.498352,1373
912.614197,1379
912.730103,1386
912.846008,1413
792.44574,1661
792.56488,1638
792.68396,1641
792.80304,1648
792.92218,1628
793.041199,1558
793.160339,1623
793.279419,1617
793.398499,1631
793.517578,1611
793.636658,1560
793.755737,1593
793.874817,1603
793.993896,1553
794.112976,1589
794.232056,1540
794.351074,1575
794.470215,1527
794.589233,1576
794.708313,1585
794.827393,1586
794.946411,1521
795.065552,1516
795.18457,1596
795.303589,1533
795.422668,1569
795.541687,1547
795.660767,1516
795.779846,1506
795.898865,1577
796.017883,1498
796.136963,1526
796.255981,1543
796.375061,1518
796.49408,1492
796.613037,1523
796.732117,1550
796.851135,1507
796.970154,1493
797.089233,1523
797.208191,1500
797.327271,1490
797.446228,1497
797.565186,1549
797.684265,1532
797.803223,1575
797.922241,2160
798.04126,2294
798.160278,1986
798.279297,1460
798.398315,1544
798.517273,1460
798.636292,1473
798.75531,1488
798.874268,1463
798.993286,1511
799.112244,1476
799.231323,1458
799.350281,1527
799.469238,1486
799.588257,1461
799.707153,1458
799.826111,1493
799.945129,1458
800.064087,1485
800.183044,1470
800.302063,1524
800.421021,1459
800.539978,1473
800.658936,1469
800.777893,1496
800.896912,1476
801.015747,1469
801.134705,1500
801.253723,1492
801.37262,1484
801.491638,1471
801.610535,1494
801.729492,1509
801.84845,1452
801.967407,1472
802.086243,1499
802.205261,1491
802.324158,1486
802.443115,1472
802.562073,1461
802.680969,1485
802.799927,1477
802.918762,1503
803.037659,1469
803.156677,1480
803.275574,1472
803.39447,1454
803.513428,1500
803.632263,1479
803.751221,1446
803.870117,1455
803.989014,1493
804.107971,1442
804.226746,1477
804.345642,1450
804.4646,1510
804.583496,1469
804.702393,1473
804.821228,1480
804.940125,1497
805.059021,1466
805.177917,1474
805.296814,1491
805.415649,1456
805.534546,1531
805.653442,1472
805.772278,1494
805.891113,1486
806.01001,1478
806.128906,1506
806.247742,1477
806.366577,1457
806.485413,1454
806.604309,1465
806.723145,1506
806.84198,1482
806.960876,1524
807.079712,1405
807.198486,1477
807.317383,1496
807.436218,1475
807.554993,1460
807.673889,1479
807.792725,1457
807.91156,1449
808.030396,1469
808.14917,1478
808.268005,1492
808.386841,1467
808.505676,1465
808.624451,1469
808.743286,1445
808.862122,1475
808.980896,1455
809.099731,1444
809.218506,1451
809.337341,1486
809.456116,1455
809.57489,1479
809.693726,1499
809.8125,1478
809.931274,1468
810.050049,1519
810.168884,2252
810.287659,2582
810.406372,2526
810.525269,2270
810.643982,7522
810.762756,1350
810.881531,1415
811.000305,1477
811.11908,1465
811.237854,1473
811.356567,1468
811.475403,1453
811.594116,1454
811.71283,1467
811.831604,1423
811.950378,1457
812.069153,1468
812.187927,1503
812.30658,1435
812.425415,1448
812.544128,1467
812.662781,1421
812.781616,1458
812.900269,1483
813.019043,1436
813.137756,1485
813.256531,1452
813.375244,1466
813.493896,1434
813.612671,1424
813.731384,1469
813.850037,1444
813.96875,1472
814.087524,1451
814.206238,1431
814.324951,1451
814.443604,1438
814.562256,1436
814.68103,1428
814.799683,1476
814.918335,1420
815.037109,1430
815.155762,1468
815.274475,1415
815.393188,1433
815.511841,1461
815.630554,1415
815.749146,1452
815.867859,1397
815.986572,1462
816.105164,1447
816.223877,1406
816.342529,1473
816.461182,1420
816.579895,1448
816.698486,1447
816.817139,1419
816.935791,1429
817.054504,1425
817.173096,1411
817.291748,1426
817.4104,1438
817.529053,1440
817.647644,1430
817.766235,1409
817.884949,1406
818.00354,1393
818.122192,1412
818.240845,1382
818.359436,1339
818.478088,1357
818.59668,1395
818.715271,1351
818.833923,1376
818.952515,1390
819.071106,1371
819.189758,1384
819.30835,1360
819.426941,1371
819.545532,1343
819.664124,1381
819.782715,1388
819.901306,1385
820.019897,1350
820.138489,1375
820.25708,1373
820.375671,1348
820.494202,1372
820.612732,1312
820.731384,1350
820.849915,1343
820.968506,1360
821.087097,1346
821.205627,1377
821.324158,1352
821.442749,1386
821.561279,1340
821.679871,1357
821.798401,1353
821.916931,1363
822.035461,1377
822.154053,1363
822.272583,1320
822.391174,1370
822.509583,1366
822.628174,1370
822.746704,1321
822.865234,1334
822.983765,1341
823.102295,1352
823.220825,1337
823.339294,1369
823.457825,1325
823.576355,1364
823.694824,1326
823.813354,1330
823.931885,1321
824.050354,1354
824.168884,1333
824.287354,1343
824.405823,1363
824.524353,1332
824.642822,1311
824.761353,1383
824.879822,1322
824.998291,1319
825.116699,1330
825.235291,1331
825.353699,1373
825.472168,1308
825.590637,1356
825.709106,1338
825.827576,1279
825.946045,1369
826.064453,1302
826.182983,1342
826.301392,1338
826.4198,1318
826.53833,1292
826.656738,1311
826.775208,1310
826.893677,1328
827.012024,1307
827.130493,1325
827.248962,1300
827.36731,1324
827.485779,1282
827.604248,1301
827.722595,1290
827.841064,1288
827.959412,1331
828.077942,1289
828.196289,1313
828.314636,1312
828.433105,1331
828.551514,1275
828.669861,1298
828.78833,1302
828.906677,1305
829.025085,1290
829.143433,1341
829.261841,1297
829.38031,1346
829.498657,1312
829.617004,1290
829.735413,1307
829.85376,1321
829.972107,1283
830.090515,1261
830.208862,1268
830.327209,1315
830.445557,1332
830.563904,1323
830.682312,1297
830.800659,1255
830.919006,1310
831.037354,1312
831.155701,1309
831.274048,1311
831.392395,1281
831.51062,1314
831.629028,1301
831.747314,1306
831.865662,1326
831.984009,1291
832.102356,1275
832.220642,1269
832.338928,1284
832.457275,1322
832.575623,1258
832.693909,1293
832.812134,1307
832.930481,1331
833.048828,1283
833.167114,1299
833.2854,1290
833.403687,1265
833.521973,1320
833.640259,1246
833.758545,1277
833.876831,1291
833.995056,1274
834.113281,1299
834.231628,1303
834.349915,1304
834.468201,1286
834.586426,1284
834.704651,1288
834.822998,1314
834.941162,1305
835.059448,1301
835.177673,1303
835.295959,1311
835.414246,1339
835.53241,1267
835.650635,1279
835.768921,1278
835.887146,1273
836.005371,1290
836.123596,1273
836.241821,1283
836.360046,1361
836.478271,1258
836.596497,1322
836.714722,1295
836.832886,1319
836.95105,1260
837.069336,1309
837.1875,1284
837.305725,1299
837.423889,1281
837.542053,1319
837.660339,1273
837.778503,1296
837.896667,1302
838.014832,1290
838.132996,1247
838.25116,1281
838.369385,1275
838.487488,1304
838.605713,1312
838.723877,1343
838.84198,1307
838.960205,1275
839.078308,1324
839.196472,1276
839.314636,1293
839.4328,1302
839.550964,1319
839.669067,1280
839.787231,1302
839.905396,1290
840.023499,1287
840.141602,1306
840.259766,1304
840.377869,1296
840.495972,1283
840.614136,1266
840.732239,1316
840.850342,1258
840.968445,1297
841.086548,1323
841.204651,1332
841.322754,1285
841.440918,1295
841.55896,1299
841.677002,1258
841.795166,1333
841.913208,1267
842.031311,1286
842.149353,1309
842.267456,1295
842.385498,1264
842.503601,1296
842.621643,1266
842.739746,1261
842.857788,1325
842.97583,1270
843.093933,1250
843.211975,1284
843.330017,1276
843.44812,1263
843.566101,1291
843.684204,1286
843.802246,1270
843.920227,1298
844.038269,1272
844.156311,1266
844.274292,1278
844.392395,1304
844.510376,1303
844.628357,1312
844.74646,1275
844.864441,1293
844.982422,1260
845.100403,1297
845.218384,1254
845.336426,1266
845.454468,1287
845.572449,1254
845.69043,1258
845.808411,1282
845.926453,1279
846.044373,1294
846.162354,1219
846.280396,1290
846.398315,1271
846.516296,1281
846.634216,1237
846.752197,1288
846.870178,1304
846.988098,1285
847.106079,1275
847.22406,1323
847.34198,1308
847.4599,1299
847.577881,1268
847.695801,1263
847.813782,1253
847.931641,1240
848.049561,1263
848.167603,1267
848.285461,1282
848.403381,1299
848.521362,1226
848.639221,1237
848.75708,1243
848.875,1322
848.99292,1269
849.110901,1306
849.22876,1308
849.34668,1241
849.464539,1325
849.582458,1254
849.700317,1247
849.818176,1338
849.936096,1283
850.053955,1270
850.171875,1226
850.289673,1277
850.407593,1292
850.525452,1249
850.643311,1262
850.761169,1232
850.878967,1243
850.996887,1292
851.114746,1269
851.232544,1296
851.350403,1280
851.468262,1244
851.58606,1284
851.703979,1283
851.821777,1288
851.939636,1300
852.057434,1280
852.175232,1266
852.293091,1297
852.410889,1290
852.528687,1289
852.646545,1278
852.764343,1299
852.88208,1276
852.999939,1301
853.117676,1281
853.235535,1278
853.353271,1291
853.471069,1272
853.588928,1334
853.706604,1312
853.824402,1269
853.9422,1252
854.059998,1278
854.177734,1284
854.295532,1292
854.413269,1297
854.531006,1281
854.648804,1308
854.766541,1279
854.884277,1262
855.002014,1294
855.119751,1322
855.237549,1288
855.355225,1276
855.473022,1305
855.590698,1276
855.708435,1284
855.826172,1280
855.943848,1309
856.061646,1294
856.179321,1309
856.296997,1291
856.414795,1279
856.53241,1303
856.650085,1287
856.767822,1280
856.885559,1343
857.003174,1284
857.120911,1277
857.238586,1298
857.356201,1308
857.473938,1314
857.591614,1283
857.709351,1226
857.826965,1278
857.944641,1285
858.062317,1299
858.179993,1313
858.297668,1299
858.415283,1262
858.532959,1302
858.650574,1274
858.768188,1291
858.885803,1307
859.003479,1297
859.121094,1305
859.23877,1267
859.356384,1310
859.473999,1326
859.591675,1280
859.709229,1293
859.826843,1278
859.944458,1293
860.062012,1279
860.179626,1294
860.297302,1331
860.414856,1282
860.532471,1286
860.650024,1276
860.767639,1305
860.885193,1262
861.002808,1311
861.120361,1297
861.237976,1269
861.35553,1270
861.473022,1275
861.590698,1293
861.708191,1309
861.825745,1305
861.943298,1269
862.060852,1252
862.178406,1308
862.295959,1256
862.413513,1327
862.531006,1268
862.64856,1308
862.766113,1291
862.883667,1276
863.00116,1307
863.118713,1292
863.236206,1325
863.353699,1301
863.471252,1249
863.588745,1304
863.706177,1280
863.82373,1289
863.941162,1250
864.058716,1290
864.176208,1297
864.29364,1229
864.411194,1339
864.528687,1277
864.646118,1264
864.763611,1290
864.881042,1283
864.998535,1278
865.116028,1258
865.233459,1305
865.350891,1296
865.468384,1300
865.585754,1321
865.703308,1324
865.820679,1254
865.938171,1298
866.055542,1312
866.173035,1291
866.290466,1286
866.407837,1291
866.52533,1300
866.6427,1299
866.760071,1297
866.877563,1259
866.994934,1296
867.112305,1290
867.229736,1345
867.347107,1278
867.464539,1307
867.58197,1317
867.699341,1314
867.81665,1285
867.934082,1312
868.051453,1304
868.168823,1309
868.286194,1271
868.403564,1269
868.520935,1278
868.638306,1308
868.755676,1260
868.872986,1314
868.990295,1295
869.107727,1341
869.225037,1312
869.342346,1318
869.459717,1306
869.577026,1311
869.694336,1297
869.811707,1349
869.929016,1337
870.046326,1332
870.163635,1289
870.280945,1328
870.398254,1307
870.515564,1336
870.632812,1313
870.750183,1335
870.867432,1268
870.984741,1266
871.102051,1277
871.219299,1324
871.336609,1292
871.453918,1319
871.571106,1314
871.688416,1304
871.805664,1319
871.922852,1316
872.040222,1295
872.157471,1345
872.274719,1323
872.391968,1302
872.509155,1321
872.626465,1338
872.743652,1275
872.860962,1348
872.978149,1317
873.095337,1336
873.212646,1340
873.329834,1318
873.44696,1323
873.564209,1269
873.681396,1279
873.798645,1308
873.915894,1315
874.03302,1307
874.150208,1300
874.267456,1292
874.384583,1275
874.501831,1337
874.618958,1277
874.736145,1334
874.853333,1270
874.970459,1295
875.087646,1328
875.204834,1309
875.32196,1297
875.439148,1291
875.556274,1268
875.673401,1327
875.790527,1282
875.907715,1330
876.024841,1302
876.141968,1331
876.259094,1291
876.376282,1321
876.493347,1324
876.610474,1330
876.7276,1289
876.844727,1288
876.961853,1320
877.078918,1315
877.195984,1329
877.313171,1316
877.430237,1312
877.547302,1306
877.664368,1315
877.781433,1306
877.898499,1320
878.015625,1299
878.13269,1321
878.249695,1289
878.366821,1283
878.483887,1373
878.600952,1284
878.717957,1349
878.834961,1321
878.952087,1333
879.069092,1322
879.186157,1328
879.303162,1331
879.420227,1319
879.537231,1345
879.654236,1300
879.77124,1353
879.888306,1304
880.005249,1321
880.122314,1305
880.239319,1300
880.356323,1310
880.473328,1311
880.590271,1317
880.707275,1318
880.824341,1329
880.941284,1350
881.058228,1298
881.175232,1325
881.292236,1367
881.40918,1336
881.526123,1327
881.643066,1313
881.760071,1316
881.877014,1293
881.993958,1324
882.11084,1299
882.227783,1314
882.344727,1323
882.46167,1297
882.578613,1319
882.695618,1310
882.812439,1333
882.929382,1312
883.046326,1331
883.163208,1289
883.280151,1277
883.397034,1369
883.513916,1314
883.630798,1302
883.747742,1317
883.864563,1365
883.981506,1301
884.098389,1326
884.21521,1371
884.332153,1315
884.448975,1325
884.565796,1346
884.682678,1334
884.7995,1365
884.916443,1329
885.033264,1365
885.150085,1364
885.266968,1327
885.383789,1349
885.500671,1349
885.617493,1326
885.734314,1338
885.851196,1316
885.967896,1340
886.084717,1335
886.201599,1372
886.318359,1394
886.435181,1388
886.552002,1332
886.668762,1353
886.785645,1356
886.902344,1353
887.019165,1365
887.135925,1359
887.252747,1358
887.369446,1358
887.486267,1365
887.603027,1363
887.719788,1337
887.836548,1343
887.953247,1298
888.070068,1380
888.186829,1380
888.303528,1382
888.420288,1351
888.536987,1352
888.653687,1328
888.770447,1360
888.887146,1331
889.003967,1322
889.120667,1384
889.237305,1282
889.354065,1380
889.470703,1371
889.587463,1315
889.704163,1371
889.820862,1348
889.937561,1349
890.054199,1337
890.170837,1326
890.287598,1319
890.404236,1350
890.520874,1395
890.637634,1325
890.754211,1347
890.87085,1346
890.987549,1380
891.104187,1386
891.220886,1341
891.337463,1396
891.454102,1343
891.57074,1375
891.687378,1322
891.804077,1371
891.920654,1397
892.037231,1322
892.15387,1356
892.270447,1349
892.387085,1390
892.503723,1353
892.6203,1351
892.736877,1359
892.853516,1343
892.970032,1372
893.08667,1346
893.203186,1383
893.319763,1383
893.43634,1344
893.552917,1376
893.669556,1366
893.786011,1366
893.902588,1413
894.019165,1376
894.135681,1380
894.252197,1398
894.368835,1338
894.485291,1410
894.601868,1374
894.718384,1374
894.8349,1364
894.951355,1371
895.067932,1374
895.184448,1377
895.300964,1367
895.417419,1363
895.533936,1359
895.650452,1388
895.766907,1374
895.883423,1347
895.999878,1389
896.116333,1358
896.232849,1347
896.349304,1399
896.465759,1345
896.582214,1398
896.698669,1380
896.815125,1394
896.931641,1367
897.048035,1371
897.164551,1383
897.280884,1400
897.397339,1363
897.513794,1399
897.630249,1385
897.746582,1439
897.863098,1390
897.979431,1370
898.095886,1391
898.212341,1358
898.328674,1384
898.445129,1376
898.561462,1393
898.677795,1378
898.794312,1353
898.910645,1438
899.026978,1313
899.143433,1392
899.259766,1418
899.37616,1413
899.492493,1347
899.608765,1385
899.725159,1388
899.841553,1388
899.957947,1375
900.07428,1403
900.190552,1382
900.306946,1436
900.423157,1362
900.53949,1367
900.655884,1385
900.772156,1444
900.888489,1357
901.004822,1421
901.121033,1368
901.237366,1397
901.353699,1432
901.46991,1404
901.586304,1374
901.702515,1382
901.818787,1401
901.93512,1380
902.051331,1421
902.167603,1348
902.283875,1419
902.400085,1362
902.516418,1452
902.632629,1375
902.74884,1448
902.865112,1380
902.981384,1414
903.097595,1412
903.213867,1397
903.330017,1399
903.446289,1396
903.5625,1405
903.67865,1430
903.794922,1403
903.911072,1400
904.027344,1440
904.143494,1416
904.259705,1444
904.375916,1408
904.492065,1408
904.608215,1388
904.724426,1380
904.840576,1416
904.956726,1358
905.072876,1378
905.189087,1368
905.305176,1414
905.421387,1384
905.537537,1416
905.653687,1414
905.769775,1388
905.885925,1377
906.002014,1411
906.118164,1438
906.234314,1400
906.350403,1431
906.466492,1432
906.582642,1369
906.69873,1368
906.814758,1369
906.930908,1461
907.046936,1398
907.163086,1427
907.279175,1408
907.395264,1436
907.511353,1419
907.62738,1406
907.743408,1382
907.859497,1433
907.975525,1426
908.091553,1348
908.207703,1400
908.32373,1426
908.439758,1401
908.555786,1424
908.671814,1423
908.787842,1407
908.90387,1404
909.019775,1404
909.135864,1402
909.251892,1392
909.367859,1403
909.483826,1424
909.599854,1427
909.715881,1438
909.831848,1391
909.947815,1425
910.063782,1401
910.179749,1433
910.295776,1405
910.411743,1427
910.527649,1424
910.643616,1431
910.759583,1449
910.875488,1466
910.991455,1404
911.107361,1377
911.223267,1409
911.339294,1464
911.4552,1425
911.571106,1410
911.687073,1426
911.802979,1400
911.918823,1358
912.034729,1441
912.150635,1415
912.266602,1389
912.382446,1462
912.498352,1418
912.614197,1405
912.730103,1441
912.846008,1389
792.44574,1734
792.56488,1702
792.68396,1671
792.80304,1674
792.92218,1619
793.041199,1600
793.160339,1612
793.279419,1617
793.398499,1642
793.517578,1591
793.636658,1638
793.755737,1622
793.874817,1570
793.993896,1596
794.112976,1569
794.232056,1578
794.351074,1576
794.470215,1613
794.589233,1634
794.708313,1561
794.827393,1553
794.946411,1573
795.065552,1562
795.18457,1567
795.303589,1529
795.422668,1588
795.541687,1591
795.660767,1555
795.779846,1549
795.898865,1526
796.017883,1544
796.136963,1578
796.255981,1509
796.375061,1565
796.49408,1533
796.613037,1514
796.732117,1536
796.851135,1492
796.970154,1560
797.089233,1534
797.208191,1497
797.327271,1531
797.446228,1522
797.565186,1559
797.684265,1496
797.803223,1484
797.922241,1553
798.04126,1512
798.160278,1510
798.279297,1501
798.398315,1529
798.517273,1501
798.636292,1485
798.75531,1526
798.874268,1503
798.993286,1505
799.112244,1465
799.231323,1480
799.350281,1469
799.469238,1529
799.588257,1510
799.707153,1531
799.826111,1475
799.945129,1454
800.064087,1516
800.183044,1489
800.302063,1531
800.421021,1505
800.539978,1482
800.658936,1503
800.777893,1518
800.896912,1474
801.015747,1488
801.134705,1463
801.253723,1485
801.37262,1487
801.491638,1505
801.610535,1501
801.729492,1488
801.84845,1488
801.967407,1477
802.086243,1482
802.205261,1480
802.324158,1533
802.443115,1492
802.562073,1467
802.680969,1527
802.799927,1475
802.918762,1464
803.037659,1468
803.156677,1502
803.275574,1506
803.39447,1533
803.513428,1460
803.632263,1464
803.751221,1491
803.870117,1503
803.989014,1510
804.107971,1487
804.226746,1464
804.345642,1524
804.4646,1485
804.583496,1505
804.702393,1523
804.821228,1453
804.940125,1475
805.059021,1502
805.177917,1498
805.296814,1482
805.415649,1506
805.534546,1493
805.653442,1503
805.772278,1451
805.891113,1487
806.01001,1530
806.128906,1535
806.247742,1482
806.366577,1469
806.485413,1497
806.604309,1460
806.723145,1482
806.84198,1516
806.960876,1536
807.079712,1448
807.198486,1508
807.317383,1506
807.436218,1474
807.554993,1510
807.673889,1474
807.792725,1449
807.91156,1502
808.030396,1502
808.14917,1480
808.268005,1469
808.386841,1471
808.505676,1471
808.624451,1438
808.743286,1498
808.862122,1427
808.980896,1526
809.099731,1494
809.218506,1489
809.337341,1496
809.456116,1454
809.57489,1500
809.693726,1495
809.8125,1482
809.931274,1528
810.050049,1464
810.168884,1450
810.287659,1448
810.406372,1514
810.525269,1484
810.643982,1500
810.762756,1508
810.881531,1450
811.000305,1470
811.11908,1483
811.237854,1485
811.356567,1486
811.475403,1483
811.594116,1477
811.71283,1520
811.831604,1469
811.950378,1465
812.069153,1458
812.187927,1477
812.30658,1494
812.425415,1454
812.544128,1501
812.662781,1499
812.781616,1445
812.900269,1464
813.019043,1498
813.137756,1439
813.256531,1454
813.375244,1477
813.493896,1485
813.612671,1480
813.731384,1477
813.850037,1478
813.96875,1465
814.087524,1455
814.206238,1460
814.324951,1466
814.443604,1520
814.562256,1476
814.68103,1471
814.799683,1481
814.918335,1468
815.037109,1475
815.155762,1480
815.274475,1448
815.393188,1447
815.511841,1450
815.630554,1486
815.749146,1434
815.867859,1437
815.986572,1466
816.105164,1450
816.223877,1461
816.342529,1446
816.461182,1475
816.579895,1444
816.698486,1450
816.817139,1418
816.935791,1483
817.054504,1454
817.173096,1416
817.291748,1427
817.4104,1436
817.529053,1443
817.647644,1458
817.766235,1420
817.884949,1399
818.00354,1424
818.122192,1370
818.240845,1410
818.359436,1393
818.478088,1374
818.59668,1405
818.715271,1409
818.833923,1369
818.952515,1385
819.071106,1375
819.189758,1351
819.30835,1361
819.426941,1352
819.545532,1375
819.664124,1427
819.782715,1359
819.901306,1445
820.019897,1309
820.138489,1369
820.25708,1378
820.375671,1344
820.494202,1371
820.612732,1356
820.731384,1365
820.849915,1400
820.968506,1360
821.087097,1343
821.205627,1374
821.324158,1395
821.442749,1355
821.561279,1365
821.679871,1343
821.798401,1361
821.916931,1369
822.035461,1384
822.154053,1382
822.272583,1372
822.391174,1321
822.509583,1363
822.628174,1349
822.746704,1354
822.865234,1322
822.983765,1318
823.102295,1344
823.220825,1330
823.339294,1331
823.457825,1317
823.576355,1388
823.694824,1398
823.813354,1317
823.931885,1367
824.050354,1356
824.168884,1336
824.287354,1352
824.405823,1364
824.524353,1352
824.642822,1368
824.761353,1351
824.879822,1344
824.998291,1318
825.116699,1324
825.235291,1321
825.353699,1339
825.472168,1323
825.590637,1376
825.709106,1327
825.827576,1326
825.946045,1308
826.064453,1354
826.182983,1332
826.301392,1354
826.4198,1282
826.53833,1343
826.656738,1320
826.775208,1323
826.893677,1335
827.012024,1331
827.130493,1308
827.248962,1325
827.36731,1342
827.485779,1324
827.604248,1353
827.722595,1317
827.841064,1286
827.959412,1299
828.077942,1333
828.196289,1328
828.314636,1303
828.433105,1330
828.551514,1364
828.669861,1346
828.78833,1339
828.906677,1332
829.025085,1315
829.143433,1323
829.261841,1292
829.38031,1340
829.498657,1323
829.617004,1324
829.735413,1353
829.85376,1255
829.972107,1319
830.090515,1295
830.208862,1307
830.327209,1319
830.445557,1256
830.563904,1335
830.682312,1334
830.800659,1307
830.919006,1332
831.037354,1304
831.155701,1298
831.274048,1343
831.392395,1338
831.51062,1344
831.629028,1309
831.747314,1283
831.865662,1347
831.984009,1285
832.102356,1319
832.220642,1314
832.338928,1287
832.457275,1295
832.575623,1365
832.693909,1300
832.812134,1286
832.930481,1343
833.048828,1283
833.167114,1307
833.2854,1299
833.403687,1290
833.521973,1332
833.640259,1304
833.758545,1318
833.876831,1255
833.995056,1282
834.113281,1295
834.231628,1307
834.349915,1294
834.468201,1320
834.586426,1326
834.704651,1301
834.822998,1272
834.941162,1306
835.059448,1292
835.177673,1302
835.295959,1284
835.414246,1329
835.53241,1321
835.650635,1287
835.768921,1292
835.887146,1275
836.005371,1306
836.123596,1281
836.241821,1302
836.360046,1268
836.478271,1306
836.596497,1310
836.714722,1318
836.832886,1343
836.95105,1327
837.069336,1309
837.1875,1275
837.305725,1296
837.423889,1324
837.542053,1293
837.660339,1291
837.778503,1302
837.896667,1299
838.014832,1329
838.132996,1337
838.25116,1288
838.369385,1331
838.487488,1322
838.605713,1313
838.723877,1334
838.84198,1308
838.960205,1249
839.078308,1318
839.196472,1269
839.314636,1299
839.4328,1290
839.550964,1330
839.669067,1255
839.787231,1305
839.905396,1297
840.023499,1322
840.141602,1315
840.259766,1311
840.377869,1258
840.495972,1275
840.614136,1294
840.732239,1302
840.850342,1272
840.968445,1266
841.086548,1285
841.204651,1306
841.322754,1288
841.440918,1314
841.55896,1239
841.677002,1263
841.795166,1323
841.913208,1286
842.031311,1250
842.149353,1272
842.267456,1315
842.385498,1328
842.503601,1292
842.621643,1363
842.739746,1286
842.857788,1302
842.97583,1323
843.093933,1336
843.211975,1286
843.330017,1302
843.44812,1272
843.566101,1299
843.684204,1292
843.802246,1269
843.920227,1343
844.038269,1313
844.156311,1294
844.274292,1310
844.392395,1323
844.510376,1248
844.628357,1303
844.74646,1265
844.864441,1279
844.982422,1259
845.100403,1261
845.218384,1274
845.336426,1280
845.454468,1268
845.572449,1293
845.69043,1283
845.808411,1284
845.926453,1297
846.044373,1308
846.162354,1297
846.280396,1298
846.398315,1275
846.516296,1287
846.634216,1258
846.752197,1288
846.870178,1233
846.988098,1261
847.106079,1259
847.22406,1298
847.34198,1272
847.4599,1275
847.577881,1274
847.695801,1277
847.813782,1296
847.931641,1273
848.049561,1294
848.167603,1310
848.285461,1258
848.403381,1296
848.521362,1309
848.639221,1297
848.75708,1272
848.875,1303
848.99292,1252
849.110901,1300
849.22876,1270
849.34668,1284
849.464539,1256
849.582458,1270
849.700317,1273
849.818176,1304
849.936096,1292
850.053955,1287
850.171875,1245
850.289673,1299
850.407593,1323
850.525452,1273
850.643311,1298
850.761169,1283
850.878967,1273
850.996887,1262
851.114746,1275
851.232544,1258
851.350403,1274
851.468262,1282
851.58606,1313
851.703979,1287
851.821777,1265
851.939636,1316
852.057434,1305
852.175232,1285
852.293091,1261
852.410889,1284
852.528687,1314
852.646545,1324
852.764343,1241
852.88208,1303
852.999939,1277
853.117676,1312
853.235535,1322
853.353271,1266
853.471069,1321
853.588928,1283
853.706604,1308
853.824402,1295
853.9422,1283
854.059998,1309
854.177734,1302
854.295532,1301
854.413269,1301
854.531006,1297
854.648804,1305
854.766541,1264
854.884277,1299
855.002014,1243
855.119751,1246
855.237549,1318
855.355225,1308
855.473022,1286
855.590698,1291
855.708435,1321
855.826172,1265
855.943848,1318
856.061646,1281
856.179321,1264
856.296997,1313
856.414795,1325
856.53241,1319
856.650085,1306
856.767822,1300
856.885559,1318
857.003174,1301
857.120911,1323
857.238586,1320
857.356201,1293
857.473938,1330
857.591614,1291
857.709351,1347
857.826965,1258
857.944641,1323
858.062317,1309
858.179993,1326
858.297668,1309
858.415283,1318
858.532959,1287
858.650574,1293
858.768188,1307
858.885803,1301
859.003479,1274
859.121094,1277
859.23877,1299
859.356384,1315
859.473999,1303
859.591675,1307
859.709229,1318
859.826843,1316
859.944458,1328
860.062012,1309
860.179626,1283
860.297302,1340
860.414856,1333
860.532471,1309
860.650024,1307
860.767639,1297
860.885193,1296
861.002808,1292
861.120361,1269
861.237976,1310
861.35553,1335
861.473022,1304
861.590698,1280
861.708191,1349
861.825745,1296
861.943298,1300
862.060852,1268
862.178406,1294
862.295959,1320
862.413513,1316
862.531006,1298
862.64856,1309
862.766113,1300
862.883667,1294
863.00116,1296
863.118713,1297
863.236206,1290
863.353699,1333
863.471252,1312
863.588745,1276
863.706177,1289
863.82373,1272
863.941162,1302
864.058716,1276
864.176208,1282
864.29364,1328
864.411194,1321
864.528687,1333
864.646118,1299
864.763611,1296
864.881042,1285
864.998535,1294
865.116028,1335
865.233459,1277
865.350891,1297
865.468384,1336
865.585754,1293
865.703308,1346
865.820679,1328
865.938171,1338
866.055542,1281
866.173035,1274
866.290466,1355
866.407837,1304
866.52533,1316
866.6427,1322
866.760071,1293
866.877563,1330
866.994934,1299
867.112305,1322
867.229736,1324
867.347107,1318
867.464539,1278
867.58197,1328
867.699341,1272
867.81665,1303
867.934082,1341
868.051453,1296
868.168823,1344
868.286194,1321
868.403564,1341
868.520935,1318
868.638306,1325
868.755676,1292
868.872986,1305
868.990295,1322
869.107727,1335
869.225037,1303
869.342346,1296
869.459717,1346
869.577026,1277
869.694336,1338
869.811707,1331
869.929016,1290
870.046326,1317
870.163635,1295
870.280945,1340
870.398254,1329
870.515564,1314
870.632812,1280
870.750183,1354
870.867432,1379
870.984741,1293
871.102051,1350
871.219299,1314
871.336609,1307
871.453918,1355
871.571106,1307
871.688416,1354
871.805664,1277
871.922852,1276
872.040222,1291
872.157471,1315
872.274719,1342
872.391968,1320
872.509155,1349
872.626465,1277
872.743652,1360
872.860962,1305
872.978149,1324
873.095337,1308
873.212646,1319
873.329834,1350
873.44696,1337
873.564209,1326
873.681396,1327
873.798645,1354
873.915894,1296
874.03302,1319
874.150208,1312
874.267456,1328
874.384583,1304
874.501831,1313
874.618958,1316
874.736145,1339
874.853333,1341
874.970459,1336
875.087646,1333
875.204834,1353
875.32196,1309
875.439148,1279
875.556274,1319
875.673401,1336
875.790527,1339
875.907715,1310
876.024841,1298
876.141968,1326
876.259094,1358
876.376282,1333
876.493347,1354
876.610474,1316
876.7276,1322
876.844727,1347
876.961853,1311
877.078918,1366
877.195984,1298
877.313171,1300
877.430237,1336
877.547302,1327
877.664368,1334
877.781433,1343
877.898499,1298
878.015625,1365
878.13269,1320
878.249695,1342
878.366821,1353
878.483887,1350
878.600952,1319
878.717957,1362
878.834961,1340
878.952087,1327
879.069092,1343
879.186157,1376
879.303162,1330
879.420227,1310
879.537231,1340
879.654236,1311
879.77124,1343
879.888306,1301
880.005249,1346
880.122314,1331
880.239319,1339
880.356323,1379
880.473328,1336
880.590271,1349
880.707275,1321
880.824341,1294
880.941284,1335
881.058228,1329
881.175232,1361
881.292236,1316
881.40918,1369
881.526123,1345
881.643066,1351
881.760071,1351
881.877014,1317
881.993958,1346
882.11084,1313
882.227783,1323
882.344727,1319
882.46167,1351
882.578613,1359
882.695618,1365
882.812439,1332
882.929382,1363
883.046326,1350
883.163208,1344
883.280151,1342
883.397034,1313
883.513916,1344
883.630798,1358
883.747742,1340
883.864563,1373
883.981506,1337
884.098389,1328
884.21521,1326
884.332153,1333
884.448975,1332
884.565796,1379
884.682678,1351
884.7995,1355
884.916443,1388
885.033264,1363
885.150085,1352
885.266968,1385
885.383789,1364
885.500671,1364
885.617493,1365
885.734314,1341
885.851196,1371
885.967896,1348
886.084717,1375
886.201599,1406
886.318359,1352
886.435181,1349
886.552002,1377
886.668762,1357
886.785645,1326
886.902344,1374
887.019165,1351
887.135925,1352
887.252747,1379
887.369446,1371
887.486267,1388
887.603027,1357
887.719788,1356
887.836548,1348
887.953247,1369
888.070068,1381
888.186829,1345
888.303528,1374
888.420288,1355
888.536987,1381
888.653687,1383
888.770447,1363
888.887146,1378
889.003967,1372
889.120667,1387
889.237305,1351
889.354065,1385
889.470703,1353
889.587463,1349
889.704163,1357
889.820862,1328
889.937561,1370
890.054199,1342
890.170837,1386
890.287598,1333
890.404236,1365
890.520874,1384
890.637634,1358
890.754211,1381
890.87085,1374
890.987549,1404
891.104187,1391
891.220886,1403
891.337463,1375
891.454102,1361
891.57074,1338
891.687378,1368
891.804077,1364
891.920654,1383
892.037231,1401
892.15387,1344
892.270447,1356
892.387085,1395
892.503723,1365
892.6203,1422
892.736877,1406
892.853516,1327
892.970032,1389
893.08667,1317
893.203186,1384
893.319763,1373
893.43634,1350
893.552917,1389
893.669556,1437
893.786011,1355
893.902588,1362
894.019165,1394
894.135681,1349
894.252197,1400
894.368835,1398
894.485291,1365
894.601868,1423
894.718384,1332
894.8349,1387
894.951355,1371
895.067932,1380
895.184448,1381
895.300964,1402
895.417419,1323
895.533936,1343
895.650452,1364
895.766907,1395
895.883423,1381
895.999878,1356
896.116333,1348
896.232849,1393
896.349304,1365
896.465759,1389
896.582214,1366
896.698669,1358
896.815125,1399
896.931641,1387
897.048035,1378
897.164551,1379
897.280884,1407
897.397339,1403
897.513794,1420
897.630249,1407
897.746582,1384
897.863098,1397
897.979431,1411
898.095886,1383
898.212341,1340
898.328674,1431
898.445129,1380
898.561462,1450
898.677795,1410
898.794312,1388
898.910645,1392
899.026978,1390
899.143433,1361
899.259766,1376
899.37616,1396
899.492493,1400
899.608765,1384
899.725159,1425
899.841553,1407
899.957947,1415
900.07428,1371
900.190552,1379
900.306946,1391
900.423157,1386
900.53949,1367
900.655884,1416
900.772156,1438
900.888489,1364
901.004822,1462
901.121033,1387
901.237366,1418
901.353699,1411
901.46991,1408
901.586304,1406
901.702515,1388
901.818787,1397
901.93512,1418
902.051331,1409
902.167603,1420
902.283875,1417
902.400085,1397
902.516418,1411
902.632629,1383
902.74884,1426
902.865112,1410
902.981384,1399
903.097595,1420
903.213867,1459
903.330017,1404
903.446289,1427
903.5625,1380
903.67865,1394
903.794922,1399
903.911072,1385
904.027344,1451
904.143494,1394
904.259705,1423
904.375916,1412
904.492065,1419
904.608215,1404
904.724426,1422
904.840576,1389
904.956726,1431
905.072876,1425
905.189087,1412
905.305176,1449
905.421387,1377
905.537537,1424
905.653687,1439
905.769775,1465
905.885925,1454
906.002014,1386
906.118164,1423
906.234314,1384
906.350403,1370
906.466492,1399
906.582642,1444
906.69873,1452
906.814758,1457
906.930908,1418
907.046936,1401
907.163086,1472
907.279175,1437
907.395264,1402
907.511353,1434
907.62738,1439
907.743408,1420
907.859497,1420
907.975525,1426
908.091553,1438
908.207703,1380
908.32373,1473
908.439758,1402
908.555786,1405
908.671814,1411
908.787842,1426
908.90387,1424
909.019775,1404
909.135864,1429
909.251892,1411
909.367859,1446
909.483826,1458
909.599854,1426
909.715881,1388
909.831848,1463
909.947815,1462
910.063782,1413
910.179749,1433
910.295776,1471
910.411743,1446
910.527649,1413
910.643616,1414
910.759583,1462
910.875488,1439
910.991455,1371
911.107361,1457
911.223267,1391
911.339294,1435
911.4552,1427
911.571106,1411
911.687073,1459
911.802979,1427
911.918823,1434
912.034729,1469
912.150635,1406
912.266602,1406
912.382446,1451
912.498352,1417
912.614197,1412
912.730103,1441
912.846008,1419
