792.44574,1543
792.56488,1588
792.68396,1576
792.80304,1542
792.92218,1486
793.041199,1480
793.160339,1497
793.279419,1510
793.398499,1533
793.517578,1475
793.636658,1490
793.755737,1479
793.874817,1515
793.993896,1481
794.112976,1501
794.232056,1443
794.351074,1456
794.470215,1495
794.589233,1451
794.708313,1473
794.827393,1474
794.946411,1455
795.065552,1468
795.18457,1460
795.303589,1470
795.422668,1447
795.541687,1442
795.660767,1467
795.779846,1426
795.898865,1433
796.017883,1438
796.136963,1424
796.255981,1450
796.375061,1486
796.49408,1465
796.613037,1489
796.732117,1406
796.851135,1454
796.970154,1422
797.089233,1419
797.208191,1441
797.327271,1465
797.446228,1444
797.565186,1432
797.684265,1437
797.803223,1455
797.922241,1401
798.04126,1451
798.160278,1461
798.279297,1399
798.398315,1441
798.517273,1473
798.636292,1413
798.75531,1448
798.874268,1420
798.993286,1418
799.112244,1402
799.231323,1410
799.350281,1398
799.469238,1442
799.588257,1399
799.707153,1433
799.826111,1429
799.945129,1383
800.064087,1430
800.183044,1413
800.302063,1420
800.421021,1452
800.539978,1429
800.658936,1444
800.777893,1439
800.896912,1401
801.015747,1401
801.134705,1413
801.253723,1440
801.37262,1405
801.491638,1403
801.610535,1426
801.729492,1401
801.84845,1400
801.967407,1460
802.086243,1381
802.205261,1432
802.324158,1419
802.443115,1408
802.562073,1422
802.680969,1432
802.799927,1428
802.918762,1439
803.037659,1447
803.156677,1389
803.275574,1429
803.39447,1418
803.513428,1379
803.632263,1439
803.751221,1387
803.870117,1426
803.989014,1403
804.107971,1401
804.226746,1430
804.345642,1441
804.4646,1410
804.583496,1415
804.702393,1389
804.821228,1484
804.940125,1414
805.059021,1430
805.177917,1409
805.296814,1384
805.415649,1436
805.534546,1371
805.653442,1423
805.772278,1414
805.891113,1397
806.01001,1396
806.128906,1397
806.247742,1426
806.366577,1437
806.485413,1398
806.604309,1413
806.723145,1380
806.84198,1435
806.960876,1387
807.079712,1405
807.198486,1431
807.317383,1451
807.436218,1415
807.554993,1427
807.673889,1384
807.792725,1415
807.91156,1434
808.030396,1369
808.14917,1431
808.268005,1401
808.386841,1392
808.505676,1393
808.624451,1392
808.743286,1365
808.862122,1414
808.980896,1397
809.099731,1438
809.218506,1381
809.337341,1433
809.456116,1416
809.57489,1381
809.693726,1405
809.8125,1402
809.931274,1403
810.050049,1375
810.168884,1458
810.287659,1396
810.406372,1457
810.525269,1366
810.643982,1375
810.762756,1403
810.881531,1419
811.000305,1415
811.11908,1404
811.237854,1404
811.356567,1414
811.475403,1402
811.594116,1402
811.71283,1423
811.831604,1365
811.950378,1429
812.069153,1396
812.187927,1381
812.30658,1410
812.425415,1410
812.544128,1407
812.662781,1367
812.781616,1421
812.900269,1382
813.019043,1392
813.137756,1367
813.256531,1390
813.375244,1405
813.493896,1410
813.612671,1406
813.731384,1390
813.850037,1377
813.96875,1400
814.087524,1392
814.206238,1348
814.324951,1406
814.443604,1382
814.562256,1350
814.68103,1428
814.799683,1378
814.918335,1413
815.037109,1357
815.155762,1377
815.274475,1390
815.393188,1380
815.511841,1382
815.630554,1381
815.749146,1402
815.867859,1370
815.986572,1358
816.105164,1366
816.223877,1376
816.342529,1357
816.461182,1418
816.579895,1345
816.698486,1390
816.817139,1394
816.935791,1371
817.054504,1413
817.173096,1348
817.291748,1387
817.4104,1374
817.529053,1401
817.647644,1384
817.766235,1364
817.884949,1361
818.00354,1374
818.122192,1375
818.240845,1342
818.359436,1336
818.478088,1354
818.59668,1343
818.715271,1298
818.833923,1359
818.952515,1307
819.071106,1363
819.189758,1327
819.30835,1348
819.426941,1347
819.545532,1292
819.664124,1387
819.782715,1369
819.901306,1317
820.019897,1300
820.138489,1323
820.25708,1355
820.375671,1293
820.494202,1285
820.612732,1292
820.731384,1294
820.849915,1357
820.968506,1268
821.087097,1333
821.205627,1340
821.324158,1337
821.442749,1278
821.561279,1324
821.679871,1274
821.798401,1284
821.916931,1265
822.035461,1326
822.154053,1319
822.272583,1303
822.391174,1310
822.509583,1305
822.628174,1288
822.746704,1301
822.865234,1303
822.983765,1310
823.102295,1322
823.220825,1248
823.339294,1294
823.457825,1325
823.576355,1287
823.694824,1262
823.813354,1284
823.931885,1301
824.050354,1281
824.168884,1286
824.287354,1310
824.405823,1288
824.524353,1238
824.642822,1278
824.761353,1317
824.879822,1276
824.998291,1263
825.116699,1284
825.235291,1262
825.353699,1314
825.472168,1285
825.590637,1293
825.709106,1283
825.827576,1276
825.946045,1288
826.064453,1258
826.182983,1272
826.301392,1267
826.4198,1271
826.53833,1256
826.656738,1272
826.775208,1248
826.893677,1274
827.012024,1269
827.130493,1281
827.248962,1277
827.36731,1281
827.485779,1233
827.604248,1299
827.722595,1257
827.841064,1265
827.959412,1327
828.077942,1264
828.196289,1245
828.314636,1313
828.433105,1265
828.551514,1268
828.669861,1223
828.78833,1294
828.906677,1244
829.025085,1246
829.143433,1268
829.261841,1255
829.38031,1277
829.498657,1258
829.617004,1286
829.735413,1284
829.85376,1289
829.972107,1282
830.090515,1269
830.208862,1301
830.327209,1255
830.445557,1234
830.563904,1272
830.682312,1251
830.800659,1255
830.919006,1263
831.037354,1266
831.155701,1299
831.274048,1265
831.392395,1252
831.51062,1320
831.629028,1271
831.747314,1289
831.865662,1215
831.984009,1248
832.102356,1222
832.220642,1247
832.338928,1233
832.457275,1246
832.575623,1280
832.693909,1207
832.812134,1289
832.930481,1241
833.048828,1248
833.167114,1254
833.2854,1262
833.403687,1279
833.521973,1274
833.640259,1264
833.758545,1280
833.876831,1217
833.995056,1246
834.113281,1231
834.231628,1285
834.349915,1243
834.468201,1214
834.586426,1278
834.704651,1236
834.822998,1257
834.941162,1275
835.059448,1249
835.177673,1263
835.295959,1205
835.414246,1233
835.53241,1252
835.650635,1254
835.768921,1267
835.887146,1245
836.005371,1250
836.123596,1254
836.241821,1227
836.360046,1265
836.478271,1278
836.596497,1243
836.714722,1233
836.832886,1232
836.95105,1271
837.069336,1271
837.1875,1291
837.305725,1235
837.423889,1271
837.542053,1259
837.660339,1240
837.778503,1289
837.896667,1256
838.014832,1280
838.132996,1243
838.25116,1274
838.369385,1273
838.487488,1283
838.605713,1267
838.723877,1264
838.84198,1221
838.960205,1251
839.078308,1249
839.196472,1244
839.314636,1246
839.4328,1237
839.550964,1227
839.669067,1250
839.787231,1220
839.905396,1252
840.023499,1283
840.141602,1276
840.259766,1276
840.377869,1255
840.495972,1254
840.614136,1259
840.732239,1272
840.850342,1240
840.968445,1254
841.086548,1257
841.204651,1246
841.322754,1232
841.440918,1267
841.55896,1308
841.677002,1257
841.795166,1269
841.913208,1206
842.031311,1214
842.149353,1216
842.267456,1218
842.385498,1269
842.503601,1283
842.621643,1247
842.739746,1248
842.857788,1251
842.97583,1242
843.093933,1236
843.211975,1242
843.330017,1227
843.44812,1254
843.566101,1210
843.684204,1209
843.802246,1240
843.920227,1258
844.038269,1249
844.156311,1296
844.274292,1246
844.392395,1246
844.510376,1263
844.628357,1220
844.74646,1231
844.864441,1266
844.982422,1261
845.100403,1226
845.218384,1226
845.336426,1254
845.454468,1234
845.572449,1236
845.69043,1258
845.808411,1269
845.926453,1228
846.044373,1231
846.162354,1223
846.280396,1252
846.398315,1206
846.516296,1261
846.634216,1226
846.752197,1234
846.870178,1231
846.988098,1250
847.106079,1242
847.22406,1267
847.34198,1223
847.4599,1267
847.577881,1205
847.695801,1247
847.813782,1238
847.931641,1238
848.049561,1221
848.167603,1260
848.285461,1227
848.403381,1191
848.521362,1233
848.639221,1268
848.75708,1253
848.875,1239
848.99292,1242
849.110901,1239
849.22876,1239
849.34668,1210
849.464539,1217
849.582458,1243
849.700317,1222
849.818176,1213
849.936096,1254
850.053955,1214
850.171875,1254
850.289673,1228
850.407593,1261
850.525452,1239
850.643311,1263
850.761169,1239
850.878967,1242
850.996887,1256
851.114746,1253
851.232544,1236
851.350403,1235
851.468262,1215
851.58606,1263
851.703979,1215
851.821777,1266
851.939636,1246
852.057434,1252
852.175232,1248
852.293091,1239
852.410889,1248
852.528687,1211
852.646545,1238
852.764343,1230
852.88208,1244
852.999939,1247
853.117676,1250
853.235535,1211
853.353271,1234
853.471069,1273
853.588928,1250
853.706604,1206
853.824402,1264
853.9422,1279
854.059998,1271
854.177734,1262
854.295532,1268
854.413269,1249
854.531006,1250
854.648804,1282
854.766541,1237
854.884277,1234
855.002014,1278
855.119751,1217
855.237549,1247
855.355225,1231
855.473022,1228
855.590698,1215
855.708435,1247
855.826172,1230
855.943848,1262
856.061646,1269
856.179321,1226
856.296997,1210
856.414795,1253
856.53241,1252
856.650085,1233
856.767822,1256
856.885559,1276
857.003174,1240
857.120911,1252
857.238586,1217
857.356201,1288
857.473938,1229
857.591614,1223
857.709351,1231
857.826965,1211
857.944641,1224
858.062317,1220
858.179993,1265
858.297668,1243
858.415283,1302
858.532959,1250
858.650574,1285
858.768188,1299
858.885803,1194
859.003479,1267
859.121094,1237
859.23877,1254
859.356384,1285
859.473999,1233
859.591675,1231
859.709229,1234
859.826843,1255
859.944458,1237
860.062012,1242
860.179626,1221
860.297302,1261
860.414856,1236
860.532471,1242
860.650024,1253
860.767639,1288
860.885193,1237
861.002808,1241
861.120361,1224
861.237976,1222
861.35553,1261
861.473022,1255
861.590698,1246
861.708191,1233
861.825745,1248
861.943298,1287
862.060852,1248
862.178406,1264
862.295959,1229
862.413513,1282
862.531006,1297
862.64856,1248
862.766113,1252
862.883667,1247
863.00116,1232
863.118713,1251
863.236206,1251
863.353699,1235
863.471252,1190
863.588745,1243
863.706177,1238
863.82373,1248
863.941162,1275
864.058716,1232
864.176208,1264
864.29364,1246
864.411194,1297
864.528687,1222
864.646118,1276
864.763611,1255
864.881042,1258
864.998535,1247
865.116028,1239
865.233459,1261
865.350891,1238
865.468384,1247
865.585754,1255
865.703308,1246
865.820679,1267
865.938171,1279
866.055542,1263
866.173035,1277
866.290466,1235
866.407837,1279
866.52533,1266
866.6427,1262
866.760071,1229
866.877563,1214
866.994934,1229
867.112305,1242
867.229736,1233
867.347107,1267
867.464539,1256
867.58197,1254
867.699341,1286
867.81665,1277
867.934082,1226
868.051453,1250
868.168823,1249
868.286194,1281
868.403564,1253
868.520935,1238
868.638306,1284
868.755676,1281
868.872986,1293
868.990295,1277
869.107727,1282
869.225037,1304
869.342346,1259
869.459717,1256
869.577026,1244
869.694336,1263
869.811707,1270
869.929016,1308
870.046326,1228
870.163635,1263
870.280945,1253
870.398254,1266
870.515564,1260
870.632812,1265
870.750183,1288
870.867432,1214
870.984741,1259
871.102051,1259
871.219299,1278
871.336609,1278
871.453918,1262
871.571106,1231
871.688416,1290
871.805664,1257
871.922852,1245
872.040222,1267
872.157471,1319
872.274719,1278
872.391968,1253
872.509155,1271
872.626465,1220
872.743652,1259
872.860962,1268
872.978149,1275
873.095337,1262
873.212646,1246
873.329834,1267
873.44696,1273
873.564209,1233
873.681396,1261
873.798645,1246
873.915894,1268
874.03302,1305
874.150208,1296
874.267456,1238
874.384583,1272
874.501831,1314
874.618958,1247
874.736145,1261
874.853333,1264
874.970459,1274
875.087646,1269
875.204834,1276
875.32196,1287
875.439148,1300
875.556274,1295
875.673401,1255
875.790527,1274
875.907715,1290
876.024841,1264
876.141968,1223
876.259094,1253
876.376282,1270
876.493347,1292
876.610474,1292
876.7276,1295
876.844727,1282
876.961853,1269
877.078918,1279
877.195984,1310
877.313171,1272
877.430237,1285
877.547302,1287
877.664368,1280
877.781433,1267
877.898499,1250
878.015625,1249
878.13269,1288
878.249695,1279
878.366821,1261
878.483887,1252
878.600952,1248
878.717957,1256
878.834961,1301
878.952087,1253
879.069092,1273
879.186157,1222
879.303162,1284
879.420227,1247
879.537231,1284
879.654236,1240
879.77124,1255
879.888306,1254
880.005249,1265
880.122314,1278
880.239319,1283
880.356323,1261
880.473328,1293
880.590271,1306
880.707275,1309
880.824341,1296
880.941284,1287
881.058228,1245
881.175232,1234
881.292236,1264
881.40918,1271
881.526123,1306
881.643066,1257
881.760071,1319
881.877014,1276
881.993958,1271
882.11084,1293
882.227783,1261
882.344727,1281
882.46167,1288
882.578613,1278
882.695618,1298
882.812439,1268
882.929382,1282
883.046326,1280
883.163208,1265
883.280151,1305
883.397034,1301
883.513916,1306
883.630798,1278
883.747742,1254
883.864563,1261
883.981506,1316
884.098389,1250
884.21521,1331
884.332153,1287
884.448975,1292
884.565796,1328
884.682678,1288
884.7995,1279
884.916443,1297
885.033264,1269
885.150085,1287
885.266968,1318
885.383789,1298
885.500671,1294
885.617493,1298
885.734314,1284
885.851196,1273
885.967896,1292
886.084717,1279
886.201599,1307
886.318359,1330
886.435181,1283
886.552002,1243
886.668762,1284
886.785645,1287
886.902344,1322
887.019165,1315
887.135925,1312
887.252747,1295
887.369446,1287
887.486267,1285
887.603027,1273
887.719788,1284
887.836548,1298
887.953247,1276
888.070068,1311
888.186829,1296
888.303528,1324
888.420288,1298
888.536987,1309
888.653687,1270
888.770447,1348
888.887146,1297
889.003967,1284
889.120667,1292
889.237305,1276
889.354065,1311
889.470703,1267
889.587463,1324
889.704163,1312
889.820862,1281
889.937561,1322
890.054199,1308
890.170837,1284
890.287598,1328
890.404236,1329
890.520874,1329
890.637634,1339
890.754211,1334
890.87085,1310
890.987549,1293
891.104187,1345
891.220886,1316
891.337463,1311
891.454102,1336
891.57074,1317
891.687378,1321
891.804077,1277
891.920654,1318
892.037231,1301
892.15387,1331
892.270447,1307
892.387085,1304
892.503723,1337
892.6203,1333
892.736877,1319
892.853516,1288
892.970032,1300
893.08667,1351
893.203186,1314
893.319763,1356
893.43634,1304
893.552917,1327
893.669556,1356
893.786011,1315
893.902588,1352
894.019165,1361
894.135681,1310
894.252197,1322
894.368835,1327
894.485291,1340
894.601868,1326
894.718384,1307
894.8349,1328
894.951355,1355
895.067932,1336
895.184448,1287
895.300964,1303
895.417419,1313
895.533936,1342
895.650452,1349
895.766907,1317
895.883423,1318
895.999878,1336
896.116333,1323
896.232849,1350
896.349304,1288
896.465759,1331
896.582214,1297
896.698669,1337
896.815125,1299
896.931641,1312
897.048035,1313
897.164551,1348
897.280884,1316
897.397339,1309
897.513794,1322
897.630249,1362
897.746582,1314
897.863098,1319
897.979431,1342
898.095886,1368
898.212341,1341
898.328674,1329
898.445129,1302
898.561462,1356
898.677795,1343
898.794312,1347
898.910645,1326
899.026978,1348
899.143433,1310
899.259766,1328
899.37616,1333
899.492493,1327
899.608765,1324
899.725159,1331
899.841553,1312
899.957947,1310
900.07428,1357
900.190552,1335
900.306946,1352
900.423157,1316
900.53949,1318
900.655884,1352
900.772156,1329
900.888489,1331
901.004822,1316
901.121033,1359
901.237366,1330
901.353699,1347
901.46991,1345
901.586304,1333
901.702515,1307
901.818787,1346
901.93512,1352
902.051331,1312
902.167603,1332
902.283875,1388
902.400085,1331
902.516418,1319
902.632629,1326
902.74884,1319
902.865112,1335
902.981384,1313
903.097595,1348
903.213867,1318
903.330017,1337
903.446289,1321
903.5625,1291
903.67865,1331
903.794922,1363
903.911072,1366
904.027344,1388
904.143494,1354
904.259705,1343
904.375916,1332
904.492065,1313
904.608215,1330
904.724426,1389
904.840576,1335
904.956726,1352
905.072876,1339
905.189087,1324
905.305176,1386
905.421387,1357
905.537537,1343
905.653687,1362
905.769775,1357
905.885925,1365
906.002014,1358
906.118164,1344
906.234314,1367
906.350403,1294
906.466492,1349
906.582642,1343
906.69873,1362
906.814758,1384
906.930908,1311
907.046936,1370
907.163086,1352
907.279175,1367
907.395264,1382
907.511353,1355
907.62738,1395
907.743408,1341
907.859497,1346
907.975525,1385
908.091553,1377
908.207703,1378
908.32373,1325
908.439758,1371
908.555786,1370
908.671814,1371
908.787842,1350
908.90387,1398
909.019775,1363
909.135864,1379
909.251892,1343
909.367859,1341
909.483826,1384
909.599854,1393
909.715881,1381
909.831848,1388
909.947815,1383
910.063782,1337
910.179749,1367
910.295776,1376
910.411743,1377
910.527649,1362
910.643616,1382
910.759583,1348
910.875488,1348
910.991455,1389
911.107361,1356
911.223267,1380
911.339294,1362
911.4552,1391
911.571106,1378
911.687073,1367
911.802979,1371
911.918823,1363
912.034729,1350
912.150635,1365
912.266602,1363
912.382446,1406
912.498352,1354
912.614197,1370
912.730103,1362
912.846008,1360
792.44574,1627
792.56488,1576
792.68396,1630
792.80304,1588
792.92218,1581
793.041199,1538
793.160339,1529
793.279419,1580
793.398499,1557
793.517578,1497
793.636658,1534
793.755737,1524
793.874817,1574
793.993896,1500
794.112976,1508
794.232056,1531
794.351074,1526
794.470215,1508
794.589233,1542
794.708313,1514
794.827393,1522
794.946411,1465
795.065552,1517
795.18457,1532
795.303589,1533
795.422668,1503
795.541687,1539
795.660767,1534
795.779846,1502
795.898865,1443
796.017883,1500
796.136963,1453
796.255981,1519
796.375061,1470
796.49408,1514
796.613037,1514
796.732117,1495
796.851135,1501
796.970154,1515
797.089233,1470
797.208191,1489
797.327271,1485
797.446228,1472
797.565186,1500
797.684265,1457
797.803223,1458
797.922241,1495
798.04126,1441
798.160278,1477
798.279297,1484
798.398315,1442
798.517273,1450
798.636292,1448
798.75531,1496
798.874268,1481
798.993286,1480
799.112244,1436
799.231323,1513
799.350281,1486
799.469238,1469
799.588257,1457
799.707153,1468
799.826111,1436
799.945129,1477
800.064087,1461
800.183044,1464
800.302063,1427
800.421021,1473
800.539978,1461
800.658936,1425
800.777893,1446
800.896912,1445
801.015747,1438
801.134705,1419
801.253723,1418
801.37262,1451
801.491638,1434
801.610535,1497
801.729492,1381
801.84845,1482
801.967407,1442
802.086243,1461
802.205261,1482
802.324158,1462
802.443115,1497
802.562073,1443
802.680969,1410
802.799927,1443
802.918762,1453
803.037659,1461
803.156677,1477
803.275574,1419
803.39447,1431
803.513428,1463
803.632263,1439
803.751221,1444
803.870117,1448
803.989014,1456
804.107971,1450
804.226746,1433
804.345642,1456
804.4646,1460
804.583496,1436
804.702393,1440
804.821228,1467
804.940125,1438
805.059021,1405
805.177917,1423
805.296814,1438
805.415649,1403
805.534546,1440
805.653442,1489
805.772278,1483
805.891113,1460
806.01001,1444
806.128906,1449
806.247742,1470
806.366577,1446
806.485413,1457
806.604309,1458
806.723145,1429
806.84198,1428
806.960876,1432
807.079712,1401
807.198486,1430
807.317383,1438
807.436218,1429
807.554993,1452
807.673889,1449
807.792725,1435
807.91156,1445
808.030396,1463
808.14917,1431
808.268005,1434
808.386841,1432
808.505676,1432
808.624451,1435
808.743286,1435
808.862122,1468
808.980896,1465
809.099731,1430
809.218506,1452
809.337341,1410
809.456116,1441
809.57489,1452
809.693726,1433
809.8125,1454
809.931274,1478
810.050049,1406
810.168884,1433
810.287659,1413
810.406372,1442
810.525269,1418
810.643982,1422
810.762756,1443
810.881531,1457
811.000305,1479
811.11908,1445
811.237854,1414
811.356567,1445
811.475403,1438
811.594116,1426
811.71283,1410
811.831604,1415
811.950378,1439
812.069153,1444
812.187927,1431
812.30658,1400
812.425415,1445
812.544128,1422
812.662781,1456
812.781616,1386
812.900269,1427
813.019043,1391
813.137756,1413
813.256531,1428
813.375244,1424
813.493896,1417
813.612671,1430
813.731384,1390
813.850037,1419
813.96875,1413
814.087524,1453
814.206238,1376
814.324951,1372
814.443604,1417
814.562256,1407
814.68103,1438
814.799683,1363
814.918335,1431
815.037109,1383
815.155762,1449
815.274475,1392
815.393188,1377
815.511841,1405
815.630554,1447
815.749146,1430
815.867859,1431
815.986572,1410
816.105164,1405
816.223877,1375
816.342529,1372
816.461182,1405
816.579895,1427
816.698486,1396
816.817139,1391
816.935791,1414
817.054504,1380
817.173096,1423
817.291748,1417
817.4104,1410
817.529053,1366
817.647644,1428
817.766235,1388
817.884949,1366
818.00354,1405
818.122192,1383
818.240845,1347
818.359436,1356
818.478088,1381
818.59668,1409
818.715271,1395
818.833923,1401
818.952515,1370
819.071106,1360
819.189758,1387
819.30835,1336
819.426941,1334
819.545532,1334
819.664124,1344
819.782715,1342
819.901306,1334
820.019897,1382
820.138489,1354
820.25708,1352
820.375671,1381
820.494202,1324
820.612732,1349
820.731384,1320
820.849915,1321
820.968506,1343
821.087097,1361
821.205627,1325
821.324158,1329
821.442749,1354
821.561279,1315
821.679871,1325
821.798401,1372
821.916931,1330
822.035461,1325
822.154053,1340
822.272583,1350
822.391174,1339
822.509583,1332
822.628174,1327
822.746704,1355
822.865234,1321
822.983765,1355
823.102295,1342
823.220825,1311
823.339294,1394
823.457825,1326
823.576355,1302
823.694824,1339
823.813354,1355
823.931885,1347
824.050354,1328
824.168884,1322
824.287354,1322
824.405823,1325
824.524353,1342
824.642822,1282
824.761353,1333
824.879822,1311
824.998291,1320
825.116699,1336
825.235291,1305
825.353699,1346
825.472168,1321
825.590637,1368
825.709106,1350
825.827576,1272
825.946045,1298
826.064453,1330
826.182983,1286
826.301392,1344
826.4198,1297
826.53833,1333
826.656738,1303
826.775208,1305
826.893677,1330
827.012024,1291
827.130493,1288
827.248962,1295
827.36731,1271
827.485779,1315
827.604248,1285
827.722595,1314
827.841064,1250
827.959412,1284
828.077942,1267
828.196289,1321
828.314636,1300
828.433105,1293
828.551514,1305
828.669861,1320
828.78833,1293
828.906677,1284
829.025085,1312
829.143433,1304
829.261841,1310
829.38031,1284
829.498657,1323
829.617004,1279
829.735413,1333
829.85376,1283
829.972107,1290
830.090515,1252
830.208862,1270
830.327209,1283
830.445557,1280
830.563904,1281
830.682312,1298
830.800659,1299
830.919006,1339
831.037354,1308
831.155701,1338
831.274048,1285
831.392395,1289
831.51062,1269
831.629028,1244
831.747314,1271
831.865662,1276
831.984009,1258
832.102356,1332
832.220642,1289
832.338928,1249
832.457275,1283
832.575623,1298
832.693909,1274
832.812134,1289
832.930481,1289
833.048828,1331
833.167114,1290
833.2854,1315
833.403687,1287
833.521973,1265
833.640259,1262
833.758545,1325
833.876831,1299
833.995056,1270
834.113281,1255
834.231628,1342
834.349915,1261
834.468201,1255
834.586426,1266
834.704651,1280
834.822998,1295
834.941162,1289
835.059448,1262
835.177673,1284
835.295959,1289
835.414246,1305
835.53241,1291
835.650635,1275
835.768921,1276
835.887146,1294
836.005371,1312
836.123596,1295
836.241821,1274
836.360046,1293
836.478271,1285
836.596497,1263
836.714722,1316
836.832886,1283
836.95105,1254
837.069336,1279
837.1875,1306
837.305725,1245
837.423889,1297
837.542053,1331
837.660339,1258
837.778503,1311
837.896667,1297
838.014832,1281
838.132996,1310
838.25116,1293
838.369385,1268
838.487488,1287
838.605713,1298
838.723877,1247
838.84198,1251
838.960205,1277
839.078308,1292
839.196472,1297
839.314636,1251
839.4328,1270
839.550964,1279
839.669067,1275
839.787231,1291
839.905396,1307
840.023499,1238
840.141602,1288
840.259766,1249
840.377869,1272
840.495972,1261
840.614136,1288
840.732239,1282
840.850342,1269
840.968445,1310
841.086548,1220
841.204651,1255
841.322754,1294
841.440918,1246
841.55896,1254
841.677002,1279
841.795166,1222
841.913208,1296
842.031311,1266
842.149353,1265
842.267456,1276
842.385498,1304
842.503601,1294
842.621643,1252
842.739746,1275
842.857788,1239
842.97583,1266
843.093933,1250
843.211975,1291
843.330017,1255
843.44812,1256
843.566101,1221
843.684204,1266
843.802246,1241
843.920227,1263
844.038269,1301
844.156311,1234
844.274292,1269
844.392395,1257
844.510376,1263
844.628357,1267
844.74646,1269
844.864441,1273
844.982422,1259
845.100403,1284
845.218384,1255
845.336426,1256
845.454468,1288
845.572449,1260
845.69043,1263
845.808411,1238
845.926453,1263
846.044373,1226
846.162354,1256
846.280396,1234
846.398315,1244
846.516296,1256
846.634216,1292
846.752197,1232
846.870178,1267
846.988098,1288
847.106079,1251
847.22406,1261
847.34198,1234
847.4599,1291
847.577881,1280
847.695801,1248
847.813782,1227
847.931641,1231
848.049561,1261
848.167603,1216
848.285461,1272
848.403381,1257
848.521362,1254
848.639221,1272
848.75708,1276
848.875,1251
848.99292,1302
849.110901,1315
849.22876,1268
849.34668,1241
849.464539,1275
849.582458,1237
849.700317,1272
849.818176,1228
849.936096,1267
850.053955,1243
850.171875,1295
850.289673,1254
850.407593,1271
850.525452,1255
850.643311,1280
850.761169,1242
850.878967,1260
850.996887,1259
851.114746,1270
851.232544,1253
851.350403,1283
851.468262,1238
851.58606,1294
851.703979,1279
851.821777,1229
851.939636,1296
852.057434,1269
852.175232,1240
852.293091,1257
852.410889,1251
852.528687,1256
852.646545,1280
852.764343,1309
852.88208,1269
852.999939,1304
853.117676,1304
853.235535,1285
853.353271,1286
853.471069,1283
853.588928,1286
853.706604,1282
853.824402,1258
853.9422,1261
854.059998,1245
854.177734,1283
854.295532,1260
854.413269,1277
854.531006,1216
854.648804,1282
854.766541,1245
854.884277,1248
855.002014,1247
855.119751,1307
855.237549,1328
855.355225,1239
855.473022,1234
855.590698,1279
855.708435,1245
855.826172,1271
855.943848,1253
856.061646,1258
856.179321,1247
856.296997,1292
856.414795,1276
856.53241,1278
856.650085,1298
856.767822,1252
856.885559,1298
857.003174,1250
857.120911,1302
857.238586,1270
857.356201,1296
857.473938,1274
857.591614,1277
857.709351,1299
857.826965,1278
857.944641,1282
858.062317,1296
858.179993,1285
858.297668,1271
858.415283,1229
858.532959,1314
858.650574,1328
858.768188,1320
858.885803,1301
859.003479,1247
859.121094,1266
859.23877,1295
859.356384,1303
859.473999,1265
859.591675,1332
859.709229,1287
859.826843,1302
859.944458,1235
860.062012,1268
860.179626,1270
860.297302,1291
860.414856,1290
860.532471,1285
860.650024,1273
860.767639,1305
860.885193,1265
861.002808,1272
861.120361,1255
861.237976,1260
861.35553,1305
861.473022,1254
861.590698,1313
861.708191,1304
861.825745,1322
861.943298,1277
862.060852,1224
862.178406,1246
862.295959,1301
862.413513,1229
862.531006,1236
862.64856,1292
862.766113,1267
862.883667,1279
863.00116,1295
863.118713,1286
863.236206,1312
863.353699,1269
863.471252,1267
863.588745,1283
863.706177,1309
863.82373,1275
863.941162,1292
864.058716,1287
864.176208,1272
864.29364,1265
864.411194,1321
864.528687,1283
864.646118,1339
864.763611,1259
864.881042,1260
864.998535,1292
865.116028,1320
865.233459,1272
865.350891,1259
865.468384,1308
865.585754,1338
865.703308,1248
865.820679,1307
865.938171,1223
866.055542,1292
866.173035,1284
866.290466,1274
866.407837,1300
866.52533,1287
866.6427,1282
866.760071,1289
866.877563,1258
866.994934,1293
867.112305,1273
867.229736,1326
867.347107,1283
867.464539,1294
867.58197,1321
867.699341,1240
867.81665,1297
867.934082,1274
868.051453,1296
868.168823,1274
868.286194,1282
868.403564,1288
868.520935,1272
868.638306,1267
868.755676,1303
868.872986,1268
868.990295,1296
869.107727,1318
869.225037,1304
869.342346,1280
869.459717,1259
869.577026,1269
869.694336,1277
869.811707,1261
869.929016,1303
870.046326,1290
870.163635,1274
870.280945,1276
870.398254,1324
870.515564,1314
870.632812,1268
870.750183,1302
870.867432,1320
870.984741,1283
871.102051,1277
871.219299,1295
871.336609,1291
871.453918,1275
871.571106,1285
871.688416,1304
871.805664,1281
871.922852,1319
872.040222,1296
872.157471,1280
872.274719,1269
872.391968,1289
872.509155,1320
872.626465,1289
872.743652,1285
872.860962,1298
872.978149,1313
873.095337,1306
873.212646,1326
873.329834,1307
873.44696,1248
873.564209,1294
873.681396,1338
873.798645,1246
873.915894,1341
874.03302,1292
874.150208,1305
874.267456,1285
874.384583,1300
874.501831,1325
874.618958,1298
874.736145,1318
874.853333,1262
874.970459,1287
875.087646,1287
875.204834,1274
875.32196,1302
875.439148,1289
875.556274,1282
875.673401,1314
875.790527,1282
875.907715,1305
876.024841,1297
876.141968,1305
876.259094,1309
876.376282,1280
876.493347,1309
876.610474,1310
876.7276,1331
876.844727,1328
876.961853,1320
877.078918,1304
877.195984,1321
877.313171,1283
877.430237,1314
877.547302,1333
877.664368,1311
877.781433,1326
877.898499,1296
878.015625,1302
878.13269,1291
878.249695,1310
878.366821,1265
878.483887,1292
878.600952,1316
878.717957,1284
878.834961,1293
878.952087,1320
879.069092,1322
879.186157,1337
879.303162,1276
879.420227,1315
879.537231,1282
879.654236,1316
879.77124,1307
879.888306,1278
880.005249,1315
880.122314,1334
880.239319,1296
880.356323,1290
880.473328,1292
880.590271,1303
880.707275,1308
880.824341,1276
880.941284,1314
881.058228,1325
881.175232,1328
881.292236,1280
881.40918,1337
881.526123,1306
881.643066,1360
881.760071,1304
881.877014,1299
881.993958,1348
882.11084,1307
882.227783,1314
882.344727,1345
882.46167,1333
882.578613,1304
882.695618,1289
882.812439,1298
882.929382,1306
883.046326,1325
883.163208,1310
883.280151,1338
883.397034,1330
883.513916,1322
883.630798,1334
883.747742,1316
883.864563,1279
883.981506,1348
884.098389,1320
884.21521,1324
884.332153,1322
884.448975,1284
884.565796,1297
884.682678,1357
884.7995,1357
884.916443,1337
885.033264,1341
885.150085,1298
885.266968,1330
885.383789,1308
885.500671,1333
885.617493,1302
885.734314,1377
885.851196,1277
885.967896,1313
886.084717,1296
886.201599,1312
886.318359,1320
886.435181,1310
886.552002,1350
886.668762,1319
886.785645,1353
886.902344,1341
887.019165,1340
887.135925,1320
887.252747,1320
887.369446,1322
887.486267,1322
887.603027,1359
887.719788,1347
887.836548,1311
887.953247,1327
888.070068,1331
888.186829,1339
888.303528,1354
888.420288,1342
888.536987,1344
888.653687,1312
888.770447,1327
888.887146,1346
889.003967,1393
889.120667,1360
889.237305,1325
889.354065,1351
889.470703,1335
889.587463,1341
889.704163,1362
889.820862,1297
889.937561,1337
890.054199,1364
890.170837,1333
890.287598,1314
890.404236,1339
890.520874,1377
890.637634,1357
890.754211,1360
890.87085,1347
890.987549,1346
891.104187,1323
891.220886,1318
891.337463,1326
891.454102,1347
891.57074,1338
891.687378,1343
891.804077,1336
891.920654,1334
892.037231,1327
892.15387,1336
892.270447,1337
892.387085,1340
892.503723,1377
892.6203,1405
892.736877,1343
892.853516,1350
892.970032,1326
893.08667,1363
893.203186,1358
893.319763,1359
893.43634,1349
893.552917,1361
893.669556,1380
893.786011,1337
893.902588,1382
894.019165,1357
894.135681,1324
894.252197,1356
894.368835,1357
894.485291,1375
894.601868,1379
894.718384,1357
894.8349,1340
894.951355,1344
895.067932,1346
895.184448,1365
895.300964,1359
895.417419,1388
895.533936,1345
895.650452,1342
895.766907,1357
895.883423,1351
895.999878,1334
896.116333,1379
896.232849,1364
896.349304,1359
896.465759,1338
896.582214,1308
896.698669,1335
896.815125,1384
896.931641,1356
897.048035,1321
897.164551,1368
897.280884,1381
897.397339,1330
897.513794,1382
897.630249,1361
897.746582,1393
897.863098,1370
897.979431,1372
898.095886,1370
898.212341,1346
898.328674,1334
898.445129,1378
898.561462,1393
898.677795,1355
898.794312,1360
898.910645,1378
899.026978,1345
899.143433,1371
899.259766,1377
899.37616,1348
899.492493,1397
899.608765,1332
899.725159,1409
899.841553,1386
899.957947,1364
900.07428,1361
900.190552,1354
900.306946,1377
900.423157,1385
900.53949,1306
900.655884,1357
900.772156,1406
900.888489,1398
901.004822,1358
901.121033,1354
901.237366,1368
901.353699,1346
901.46991,1386
901.586304,1313
901.702515,1388
901.818787,1373
901.93512,1384
902.051331,1354
902.167603,1397
902.283875,1380
902.400085,1346
902.516418,1363
902.632629,1346
902.74884,1369
902.865112,1358
902.981384,1394
903.097595,1386
903.213867,1400
903.330017,1394
903.446289,1369
903.5625,1387
903.67865,1382
903.794922,1363
903.911072,1353
904.027344,1426
904.143494,1402
904.259705,1384
904.375916,1367
904.492065,1381
904.608215,1350
904.724426,1384
904.840576,1420
904.956726,1374
905.072876,1381
905.189087,1365
905.305176,1432
905.421387,1373
905.537537,1408
905.653687,1380
905.769775,1436
905.885925,1361
906.002014,1343
906.118164,1369
906.234314,1382
906.350403,1392
906.466492,1407
906.582642,1397
906.69873,1417
906.814758,1363
906.930908,1455
907.046936,1406
907.163086,1392
907.279175,1392
907.395264,1368
907.511353,1359
907.62738,1404
907.743408,1393
907.859497,1407
907.975525,1422
908.091553,1407
908.207703,1403
908.32373,1383
908.439758,1411
908.555786,1381
908.671814,1400
908.787842,1408
908.90387,1421
909.019775,1370
909.135864,1400
909.251892,1367
909.367859,1413
909.483826,1421
909.599854,1457
909.715881,1381
909.831848,1367
909.947815,1395
910.063782,1355
910.179749,1397
910.295776,1399
910.411743,1395
910.527649,1392
910.643616,1401
910.759583,1403
910.875488,1415
910.991455,1368
911.107361,1403
911.223267,1405
911.339294,1413
911.4552,1428
911.571106,1393
911.687073,1386
911.802979,1432
911.918823,1445
912.034729,1394
912.150635,1373
912.266602,1418
912.382446,1433
912.498352,1413
912.614197,1433
912.730103,1387
912.846008,1424
792.44574,1618
792.56488,1613
792.68396,1631
792.80304,1579
792.92218,1519
793.041199,1549
793.160339,1545
793.279419,1615
793.398499,1537
793.517578,1553
793.636658,1531
793.755737,1590
793.874817,1530
793.993896,1541
794.112976,1524
794.232056,1567
794.351074,1498
794.470215,1562
794.589233,1498
794.708313,1516
794.827393,1462
794.946411,1529
795.065552,1568
795.18457,1496
795.303589,1529
795.422668,1503
795.541687,1504
795.660767,1528
795.779846,1476
795.898865,1497
796.017883,1504
796.136963,1486
796.255981,1523
796.375061,1541
796.49408,1530
796.613037,1482
796.732117,1475
796.851135,1509
796.970154,1522
797.089233,1507
797.208191,1525
797.327271,1525
797.446228,1511
797.565186,1491
797.684265,1480
797.803223,1427
797.922241,1479
798.04126,1489
798.160278,1464
798.279297,1475
798.398315,1473
798.517273,1468
798.636292,1483
798.75531,1488
798.874268,1426
798.993286,1451
799.112244,1473
799.231323,1480
799.350281,1448
799.469238,1455
799.588257,1494
799.707153,1527
799.826111,1487
799.945129,1467
800.064087,1493
800.183044,1416
800.302063,1476
800.421021,1492
800.539978,1477
800.658936,1458
800.777893,1514
800.896912,1454
801.015747,1399
801.134705,1426
801.253723,1439
801.37262,1496
801.491638,1471
801.610535,1502
801.729492,1483
801.84845,1455
801.967407,1493
802.086243,1466
802.205261,1474
802.324158,1437
802.443115,1441
802.562073,1489
802.680969,1505
802.799927,1513
802.918762,1471
803.037659,1471
803.156677,1467
803.275574,1504
803.39447,1464
803.513428,1469
803.632263,1430
803.751221,1504
803.870117,1503
803.989014,1462
804.107971,1430
804.226746,1449
804.345642,1462
804.4646,1515
804.583496,1455
804.702393,1465
804.821228,1509
804.940125,1466
805.059021,1440
805.177917,1470
805.296814,1432
805.415649,1476
805.534546,1462
805.653442,1470
805.772278,1413
805.891113,1472
806.01001,1501
806.128906,1452
806.247742,1489
806.366577,1432
806.485413,1504
806.604309,1470
806.723145,1461
806.84198,1426
806.960876,1422
807.079712,1452
807.198486,1443
807.317383,1447
807.436218,1463
807.554993,1419
807.673889,1443
807.792725,1466
807.91156,1424
808.030396,1448
808.14917,1435
808.268005,1450
808.386841,1423
808.505676,1424
808.624451,1430
808.743286,1437
808.862122,1445
808.980896,1439
809.099731,1414
809.218506,1463
809.337341,1466
809.456116,1395
809.57489,1465
809.693726,1441
809.8125,1500
809.931274,1427
810.050049,1436
810.168884,1464
810.287659,1470
810.406372,1438
810.525269,1419
810.643982,1448
810.762756,1467
810.881531,1447
811.000305,1451
811.11908,1455
811.237854,1447
811.356567,1456
811.475403,1449
811.594116,1441
811.71283,1500
811.831604,1427
811.950378,1455
812.069153,1411
812.187927,1461
812.30658,1482
812.425415,1392
812.544128,1439
812.662781,1464
812.781616,1413
812.900269,1406
813.019043,1438
813.137756,1448
813.256531,1430
813.375244,1434
813.493896,1399
813.612671,1432
813.731384,1432
813.850037,1422
813.96875,1439
814.087524,1443
814.206238,1471
814.324951,1398
814.443604,1438
814.562256,1439
814.68103,1431
814.799683,1485
814.918335,1460
815.037109,1457
815.155762,1436
815.274475,1436
815.393188,1436
815.511841,1399
815.630554,1409
815.749146,1455
815.867859,1414
815.986572,1398
816.105164,1432
816.223877,1392
816.342529,1447
816.461182,1431
816.579895,1399
816.698486,1432
816.817139,1436
816.935791,1396
817.054504,1369
817.173096,1381
817.291748,1439
817.4104,1385
817.529053,1414
817.647644,1385
817.766235,1385
817.884949,1359
818.00354,1426
818.122192,1407
818.240845,1399
818.359436,1350
818.478088,1346
818.59668,1407
818.715271,1355
818.833923,1354
818.952515,1366
819.071106,1396
819.189758,1368
819.30835,1382
819.426941,1335
819.545532,1364
819.664124,1390
819.782715,1371
819.901306,1375
820.019897,1353
820.138489,1354
820.25708,1378
820.375671,1343
820.494202,1338
820.612732,1362
820.731384,1369
820.849915,1361
820.968506,1351
821.087097,1333
821.205627,1350
821.324158,1323
821.442749,1374
821.561279,1340
821.679871,1317
821.798401,1343
821.916931,1332
822.035461,1388
822.154053,1341
822.272583,1323
822.391174,1327
822.509583,1349
822.628174,1352
822.746704,1334
822.865234,1312
822.983765,1324
823.102295,1364
823.220825,1333
823.339294,1351
823.457825,1358
823.576355,1344
823.694824,1335
823.813354,1311
823.931885,1334
824.050354,1343
824.168884,1358
824.287354,1319
824.405823,1331
824.524353,1310
824.642822,1358
824.761353,1343
824.879822,1317
824.998291,1325
825.116699,1343
825.235291,1350
825.353699,1349
825.472168,1348
825.590637,1268
825.709106,1335
825.827576,1319
825.946045,1328
826.064453,1328
826.182983,1322
826.301392,1314
826.4198,1337
826.53833,1331
826.656738,1317
826.775208,1343
826.893677,1377
827.012024,1304
827.130493,1312
827.248962,1297
827.36731,1324
827.485779,1325
827.604248,1327
827.722595,1318
827.841064,1285
827.959412,1291
828.077942,1289
828.196289,1257
828.314636,1339
828.433105,1304
828.551514,1279
828.669861,1316
828.78833,1359
828.906677,1308
829.025085,1299
829.143433,1324
829.261841,1276
829.38031,1332
829.498657,1276
829.617004,1290
829.735413,1314
829.85376,1310
829.972107,1266
830.090515,1326
830.208862,1316
830.327209,1324
830.445557,1274
830.563904,1306
830.682312,1290
830.800659,1309
830.919006,1291
831.037354,1323
831.155701,1307
831.274048,1327
831.392395,1276
831.51062,1267
831.629028,1298
831.747314,1303
831.865662,1294
831.984009,1294
832.102356,1298
832.220642,1288
832.338928,1328
832.457275,1287
832.575623,1273
832.693909,1286
832.812134,1302
832.930481,1317
833.048828,1276
833.167114,1301
833.2854,1270
833.403687,1281
833.521973,1287
833.640259,1334
833.758545,1278
833.876831,1292
833.995056,1285
834.113281,1254
834.231628,1302
834.349915,1300
834.468201,1284
834.586426,1309
834.704651,1305
834.822998,1296
834.941162,1291
835.059448,1292
835.177673,1287
835.295959,1279
835.414246,1317
835.53241,1291
835.650635,1299
835.768921,1277
835.887146,1300
836.005371,1295
836.123596,1295
836.241821,1274
836.360046,1265
836.478271,1309
836.596497,1320
836.714722,1327
836.832886,1313
836.95105,1351
837.069336,1306
837.1875,1321
837.305725,1259
837.423889,1280
837.542053,1324
837.660339,1265
837.778503,1301
837.896667,1276
838.014832,1293
838.132996,1310
838.25116,1328
838.369385,1276
838.487488,1297
838.605713,1331
838.723877,1309
838.84198,1299
838.960205,1228
839.078308,1278
839.196472,1294
839.314636,1282
839.4328,1285
839.550964,1270
839.669067,1278
839.787231,1281
839.905396,1304
840.023499,1328
840.141602,1283
840.259766,1318
840.377869,1309
840.495972,1287
840.614136,1286
840.732239,1296
840.850342,1267
840.968445,1280
841.086548,1256
841.204651,1279
841.322754,1282
841.440918,1297
841.55896,1341
841.677002,1288
841.795166,1287
841.913208,1272
842.031311,1289
842.149353,1252
842.267456,1282
842.385498,1277
842.503601,1313
842.621643,1262
842.739746,1307
842.857788,1272
842.97583,1287
843.093933,1256
843.211975,1282
843.330017,1296
843.44812,1282
843.566101,1282
843.684204,1318
843.802246,1273
843.920227,1289
844.038269,1315
844.156311,1303
844.274292,1298
844.392395,1261
844.510376,1268
844.628357,1330
844.74646,1249
844.864441,1227
844.982422,1306
845.100403,1275
845.218384,1286
845.336426,1248
845.454468,1293
845.572449,1281
845.69043,1289
845.808411,1257
845.926453,1270
846.044373,1271
846.162354,1260
846.280396,1241
846.398315,1278
846.516296,1279
846.634216,1277
846.752197,1264
846.870178,1282
846.988098,1300
847.106079,1291
847.22406,1232
847.34198,1287
847.4599,1251
847.577881,1274
847.695801,1284
847.813782,1301
847.931641,1287
848.049561,1285
848.167603,1226
848.285461,1266
848.403381,1246
848.521362,1291
848.639221,1241
848.75708,1305
848.875,1252
848.99292,1271
849.110901,1254
849.22876,1269
849.34668,1267
849.464539,1247
849.582458,1305
849.700317,1278
849.818176,1291
849.936096,1259
850.053955,1285
850.171875,1295
850.289673,1260
850.407593,1279
850.525452,1274
850.643311,1313
850.761169,1292
850.878967,1304
850.996887,1266
851.114746,1306
851.232544,1297
851.350403,1263
851.468262,1283
851.58606,1294
851.703979,1254
851.821777,1267
851.939636,1304
852.057434,1298
852.175232,1280
852.293091,1301
852.410889,1275
852.528687,1293
852.646545,1274
852.764343,1282
852.88208,1271
852.999939,1293
853.117676,1266
853.235535,1288
853.353271,1313
853.471069,1266
853.588928,1254
853.706604,1308
853.824402,1313
853.9422,1267
854.059998,1307
854.177734,1234
854.295532,1293
854.413269,1263
854.531006,1283
854.648804,1295
854.766541,1270
854.884277,1297
855.002014,1282
855.119751,1251
855.237549,1327
855.355225,1324
855.473022,1250
855.590698,1262
855.708435,1255
855.826172,1308
855.943848,1272
856.061646,1280
856.179321,1289
856.296997,1248
856.414795,1296
856.53241,1306
856.650085,1269
856.767822,1266
856.885559,1285
857.003174,1307
857.120911,1273
857.238586,1301
857.356201,1294
857.473938,1253
857.591614,1279
857.709351,1269
857.826965,1288
857.944641,1279
858.062317,1293
858.179993,1315
858.297668,1291
858.415283,1295
858.532959,1276
858.650574,1279
858.768188,1331
858.885803,1290
859.003479,1279
859.121094,1293
859.23877,1314
859.356384,1287
859.473999,1263
859.591675,1289
859.709229,1310
859.826843,1250
859.944458,1333
860.062012,1298
860.179626,1247
860.297302,1290
860.414856,1298
860.532471,1319
860.650024,1301
860.767639,1271
860.885193,1294
861.002808,1250
861.120361,1321
861.237976,1331
861.35553,1305
861.473022,1300
861.590698,1308
861.708191,1282
861.825745,1285
861.943298,1308
862.060852,1299
862.178406,1319
862.295959,1292
862.413513,1292
862.531006,1275
862.64856,1285
862.766113,1319
862.883667,1277
863.00116,1262
863.118713,1304
863.236206,1317
863.353699,1295
863.471252,1262
863.588745,1254
863.706177,1289
863.82373,1313
863.941162,1269
864.058716,1305
864.176208,1288
864.29364,1304
864.411194,1296
864.528687,1250
864.646118,1300
864.763611,1287
864.881042,1295
864.998535,1261
865.116028,1280
865.233459,1272
865.350891,1286
865.468384,1320
865.585754,1272
865.703308,1325
865.820679,1257
865.938171,1308
866.055542,1271
866.173035,1312
866.290466,1299
866.407837,1292
866.52533,1315
866.6427,1292
866.760071,1297
866.877563,1291
866.994934,1287
867.112305,1294
867.229736,1305
867.347107,1306
867.464539,1279
867.58197,1314
867.699341,1322
867.81665,1289
867.934082,1274
868.051453,1298
868.168823,1306
868.286194,1280
868.403564,1264
868.520935,1323
868.638306,1289
868.755676,1274
868.872986,1319
868.990295,1326
869.107727,1266
869.225037,1313
869.342346,1302
869.459717,1288
869.577026,1361
869.694336,1284
869.811707,1329
869.929016,1300
870.046326,1320
870.163635,1298
870.280945,1312
870.398254,1286
870.515564,1241
870.632812,1286
870.750183,1299
870.867432,1301
870.984741,1266
871.102051,1254
871.219299,1302
871.336609,1313
871.453918,1304
871.571106,1295
871.688416,1306
871.805664,1322
871.922852,1330
872.040222,1283
872.157471,1260
872.274719,1314
872.391968,1346
872.509155,1283
872.626465,1331
872.743652,1312
872.860962,1329
872.978149,1294
873.095337,1260
873.212646,1307
873.329834,1290
873.44696,1332
873.564209,1322
873.681396,1316
873.798645,1271
873.915894,1322
874.03302,1291
874.150208,1322
874.267456,1316
874.384583,1301
874.501831,1298
874.618958,1299
874.736145,1264
874.853333,1282
874.970459,1290
875.087646,1334
875.204834,1301
875.32196,1306
875.439148,1281
875.556274,1265
875.673401,1325
875.790527,1283
875.907715,1325
876.024841,1371
876.141968,1308
876.259094,1326
876.376282,1328
876.493347,1322
876.610474,1296
876.7276,1276
876.844727,1337
876.961853,1333
877.078918,1323
877.195984,1332
877.313171,1319
877.430237,1336
877.547302,1337
877.664368,1312
877.781433,1372
877.898499,1296
878.015625,1342
878.13269,1324
878.249695,1289
878.366821,1306
878.483887,1283
878.600952,1294
878.717957,1345
878.834961,1343
878.952087,1309
879.069092,1346
879.186157,1322
879.303162,1317
879.420227,1319
879.537231,1306
879.654236,1294
879.77124,1361
879.888306,1370
880.005249,1323
880.122314,1321
880.239319,1356
880.356323,1335
880.473328,1336
880.590271,1277
880.707275,1318
880.824341,1328
880.941284,1326
881.058228,1308
881.175232,1360
881.292236,1322
881.40918,1328
881.526123,1296
881.643066,1317
881.760071,1343
881.877014,1328
881.993958,1309
882.11084,1282
882.227783,1329
882.344727,1313
882.46167,1298
882.578613,1344
882.695618,1301
882.812439,1330
882.929382,1338
883.046326,1356
883.163208,1327
883.280151,1324
883.397034,1341
883.513916,1314
883.630798,1339
883.747742,1326
883.864563,1305
883.981506,1350
884.098389,1327
884.21521,1341
884.332153,1334
884.448975,1277
884.565796,1318
884.682678,1348
884.7995,1279
884.916443,1315
885.033264,1327
885.150085,1328
885.266968,1349
885.383789,1322
885.500671,1281
885.617493,1337
885.734314,1326
885.851196,1305
885.967896,1347
886.084717,1357
886.201599,1378
886.318359,1337
886.435181,1334
886.552002,1301
886.668762,1361
886.785645,1309
886.902344,1349
887.019165,1329
887.135925,1322
887.252747,1320
887.369446,1344
887.486267,1338
887.603027,1328
887.719788,1332
887.836548,1337
887.953247,1323
888.070068,1346
888.186829,1350
888.303528,1387
888.420288,1342
888.536987,1365
888.653687,1346
888.770447,1336
888.887146,1331
889.003967,1303
889.120667,1394
889.237305,1299
889.354065,1371
889.470703,1330
889.587463,1416
889.704163,1355
889.820862,1329
889.937561,1383
890.054199,1337
890.170837,1364
890.287598,1371
890.404236,1324
890.520874,1309
890.637634,1376
890.754211,1391
890.87085,1307
890.987549,1343
891.104187,1331
891.220886,1379
891.337463,1334
891.454102,1352
891.57074,1371
891.687378,1343
891.804077,1324
891.920654,1353
892.037231,1304
892.15387,1339
892.270447,1335
892.387085,1358
892.503723,1356
892.6203,1341
892.736877,1355
892.853516,1332
892.970032,1378
893.08667,1369
893.203186,1364
893.319763,1376
893.43634,1347
893.552917,1383
893.669556,1394
893.786011,1377
893.902588,1332
894.019165,1357
894.135681,1396
894.252197,1353
894.368835,1382
894.485291,1374
894.601868,1383
894.718384,1360
894.8349,1372
894.951355,1374
895.067932,1335
895.184448,1402
895.300964,1383
895.417419,1377
895.533936,1368
895.650452,1364
895.766907,1381
895.883423,1336
895.999878,1362
896.116333,1358
896.232849,1377
896.349304,1366
896.465759,1396
896.582214,1378
896.698669,1397
896.815125,1367
896.931641,1372
897.048035,1371
897.164551,1362
897.280884,1373
897.397339,1342
897.513794,1373
897.630249,1343
897.746582,1359
897.863098,1374
897.979431,1381
898.095886,1397
898.212341,1380
898.328674,1391
898.445129,1369
898.561462,1393
898.677795,1372
898.794312,1374
898.910645,1364
899.026978,1374
899.143433,1431
899.259766,1309
899.37616,1390
899.492493,1391
899.608765,1387
899.725159,1396
899.841553,1394
899.957947,1370
900.07428,1361
900.190552,1386
900.306946,1412
900.423157,1386
900.53949,1415
900.655884,1426
900.772156,1397
900.888489,1400
901.004822,1373
901.121033,1423
901.237366,1365
901.353699,1395
901.46991,1396
901.586304,1431
901.702515,1367
901.818787,1355
901.93512,1390
902.051331,1404
902.167603,1416
902.283875,1393
902.400085,1399
902.516418,1399
902.632629,1402
902.74884,1404
902.865112,1383
902.981384,1369
903.097595,1413
903.213867,1430
903.330017,1397
903.446289,1373
903.5625,1393
903.67865,1374
903.794922,1417
903.911072,1378
904.027344,1449
904.143494,1357
904.259705,1362
904.375916,1390
904.492065,1435
904.608215,1414
904.724426,1422
904.840576,1396
904.956726,1391
905.072876,1405
905.189087,1369
905.305176,1390
905.421387,1379
905.537537,1418
905.653687,1384
905.769775,1357
905.885925,1386
906.002014,1421
906.118164,1391
906.234314,1409
906.350403,1398
906.466492,1366
906.582642,1437
906.69873,1399
906.814758,1424
906.930908,1382
907.046936,1416
907.163086,1414
907.279175,1424
907.395264,1407
907.511353,1388
907.62738,1439
907.743408,1397
907.859497,1456
907.975525,1387
908.091553,1405
908.207703,1423
908.32373,1422
908.439758,1444
908.555786,1413
908.671814,1419
908.787842,1436
908.90387,1423
909.019775,1428
909.135864,1397
909.251892,1440
909.367859,1381
909.483826,1405
909.599854,1424
909.715881,1431
909.831848,1467
909.947815,1382
910.063782,1418
910.179749,1418
910.295776,1429
910.411743,1412
910.527649,1423
910.643616,1462
910.759583,1457
910.875488,1401
910.991455,1405
911.107361,1415
911.223267,1431
911.339294,1417
911.4552,1439
911.571106,1423
911.687073,1408
911.802979,1439
911.918823,1418
912.034729,1416
912.150635,1477
912.266602,1399
912.382446,1456
912.498352,1378
912.614197,1433
912.730103,1406
912.846008,1381
