792.44574,1556
792.56488,1515
792.68396,1591
792.80304,1539
792.92218,1497
793.041199,1514
793.160339,1454
793.279419,1558
793.398499,1471
793.517578,1480
793.636658,1514
793.755737,1480
793.874817,1499
793.993896,1499
794.112976,1508
794.232056,1450
794.351074,1471
794.470215,1528
794.589233,1514
794.708313,1464
794.827393,1447
794.946411,1439
795.065552,1484
795.18457,1457
795.303589,1513
795.422668,1480
795.541687,1468
795.660767,1471
795.779846,1448
795.898865,1403
796.017883,1483
796.136963,1441
796.255981,1429
796.375061,1462
796.49408,1416
796.613037,1451
796.732117,1464
796.851135,1446
796.970154,1453
797.089233,1438
797.208191,1421
797.327271,1475
797.446228,1435
797.565186,1439
797.684265,1428
797.803223,1433
797.922241,1377
798.04126,1433
798.160278,1438
798.279297,1471
798.398315,1446
798.517273,1425
798.636292,1443
798.75531,1451
798.874268,1432
798.993286,1449
799.112244,1399
799.231323,1451
799.350281,1400
799.469238,1420
799.588257,1395
799.707153,1430
799.826111,1420
799.945129,1391
800.064087,1433
800.183044,1411
800.302063,1396
800.421021,1421
800.539978,1401
800.658936,1402
800.777893,1431
800.896912,1418
801.015747,1433
801.134705,1388
801.253723,1442
801.37262,1478
801.491638,1410
801.610535,1410
801.729492,1372
801.84845,1405
801.967407,1417
802.086243,1384
802.205261,1383
802.324158,1472
802.443115,1466
802.562073,1435
802.680969,1425
802.799927,1422
802.918762,1413
803.037659,1403
803.156677,1418
803.275574,1399
803.39447,1410
803.513428,1392
803.632263,1441
803.751221,1387
803.870117,1387
803.989014,1371
804.107971,1401
804.226746,1423
804.345642,1419
804.4646,1414
804.583496,1438
804.702393,1386
804.821228,1385
804.940125,1415
805.059021,1398
805.177917,1414
805.296814,1388
805.415649,1423
805.534546,1395
805.653442,1380
805.772278,1421
805.891113,1435
806.01001,1426
806.128906,1429
806.247742,1433
806.366577,1372
806.485413,1379
806.604309,1377
806.723145,1406
806.84198,1392
806.960876,1445
807.079712,1404
807.198486,1412
807.317383,1424
807.436218,1391
807.554993,1403
807.673889,1379
807.792725,1407
807.91156,1395
808.030396,1395
808.14917,1337
808.268005,1383
808.386841,1419
808.505676,1401
808.624451,1372
808.743286,1367
808.862122,1433
808.980896,1423
809.099731,1386
809.218506,1388
809.337341,1377
809.456116,1378
809.57489,1428
809.693726,1403
809.8125,1444
809.931274,1373
810.050049,1388
810.168884,1330
810.287659,1405
810.406372,1400
810.525269,1425
810.643982,1387
810.762756,1363
810.881531,1373
811.000305,1392
811.11908,1394
811.237854,1370
811.356567,1386
811.475403,1440
811.594116,1407
811.71283,1404
811.831604,1424
811.950378,1391
812.069153,1422
812.187927,1377
812.30658,1412
812.425415,1370
812.544128,1405
812.662781,1358
812.781616,1380
812.900269,1362
813.019043,1419
813.137756,1404
813.256531,1403
813.375244,1387
813.493896,1399
813.612671,1413
813.731384,1362
813.850037,1372
813.96875,1422
814.087524,1376
814.206238,1367
814.324951,1391
814.443604,1375
814.562256,1403
814.68103,1368
814.799683,1391
814.918335,1389
815.037109,1329
815.155762,1372
815.274475,1395
815.393188,1419
815.511841,1359
815.630554,1378
815.749146,1384
815.867859,1367
815.986572,1359
816.105164,1379
816.223877,1360
816.342529,1369
816.461182,1361
816.579895,1366
816.698486,1348
816.817139,1391
816.935791,1362
817.054504,1388
817.173096,1364
817.291748,1366
817.4104,1346
817.529053,1331
817.647644,1338
817.766235,1321
817.884949,1346
818.00354,1360
818.122192,1303
818.240845,1375
818.359436,1347
818.478088,1335
818.59668,1355
818.715271,1349
818.833923,1409
818.952515,1336
819.071106,1302
819.189758,1303
819.30835,1354
819.426941,1376
819.545532,1342
819.664124,1334
819.782715,1326
819.901306,1330
820.019897,1292
820.138489,1339
820.25708,1313
820.375671,1330
820.494202,1293
820.612732,1359
820.731384,1320
820.849915,1335
820.968506,1319
821.087097,1308
821.205627,1280
821.324158,1293
821.442749,1325
821.561279,1308
821.679871,1352
821.798401,1328
821.916931,1303
822.035461,1286
822.154053,1309
822.272583,1333
822.391174,1304
822.509583,1318
822.628174,1291
822.746704,1324
822.865234,1289
822.983765,1317
823.102295,1305
823.220825,1314
823.339294,1349
823.457825,1273
823.576355,1342
823.694824,1269
823.813354,1347
823.931885,1320
824.050354,1323
824.168884,1352
824.287354,1362
824.405823,1298
824.524353,1355
824.642822,1311
824.761353,1335
824.879822,1281
824.998291,1275
825.116699,1284
825.235291,1293
825.353699,1289
825.472168,1218
825.590637,1287
825.709106,1336
825.827576,1283
825.946045,1306
826.064453,1310
826.182983,1270
826.301392,1331
826.4198,1301
826.53833,1301
826.656738,1264
826.775208,1304
826.893677,1314
827.012024,1299
827.130493,1304
827.248962,1311
827.36731,1246
827.485779,1263
827.604248,1291
827.722595,1254
827.841064,1278
827.959412,1264
828.077942,1283
828.196289,1322
828.314636,1308
828.433105,1241
828.551514,1296
828.669861,1251
828.78833,1265
828.906677,1275
829.025085,1266
829.143433,1297
829.261841,1266
829.38031,1282
829.498657,1274
829.617004,1275
829.735413,1256
829.85376,1273
829.972107,1298
830.090515,1296
830.208862,1281
830.327209,1273
830.445557,1279
830.563904,1266
830.682312,1310
830.800659,1239
830.919006,1303
831.037354,1288
831.155701,1288
831.274048,1261
831.392395,1268
831.51062,1280
831.629028,1223
831.747314,1298
831.865662,1258
831.984009,1276
832.102356,1304
832.220642,1300
832.338928,1310
832.457275,1275
832.575623,1269
832.693909,1248
832.812134,1278
832.930481,1268
833.048828,1267
833.167114,1261
833.2854,1272
833.403687,1264
833.521973,1257
833.640259,1241
833.758545,1211
833.876831,1280
833.995056,1291
834.113281,1262
834.231628,1260
834.349915,1232
834.468201,1255
834.586426,1265
834.704651,1245
834.822998,1279
834.941162,1295
835.059448,1298
835.177673,1256
835.295959,1274
835.414246,1276
835.53241,1253
835.650635,1278
835.768921,1287
835.887146,1257
836.005371,1256
836.123596,1261
836.241821,1310
836.360046,1239
836.478271,1247
836.596497,1259
836.714722,1224
836.832886,1288
836.95105,1234
837.069336,1277
837.1875,1277
837.305725,1292
837.423889,1271
837.542053,1266
837.660339,1240
837.778503,1321
837.896667,1249
838.014832,1286
838.132996,1256
838.25116,1248
838.369385,1287
838.487488,1270
838.605713,1263
838.723877,1265
838.84198,1261
838.960205,1310
839.078308,1249
839.196472,1230
839.314636,1220
839.4328,1251
839.550964,1263
839.669067,1260
839.787231,1262
839.905396,1270
840.023499,1245
840.141602,1268
840.259766,1292
840.377869,1268
840.495972,1285
840.614136,1273
840.732239,1265
840.850342,1264
840.968445,1272
841.086548,1258
841.204651,1315
841.322754,1252
841.440918,1313
841.55896,1313
841.677002,1207
841.795166,1264
841.913208,1249
842.031311,1242
842.149353,1287
842.267456,1229
842.385498,1239
842.503601,1252
842.621643,1281
842.739746,1243
842.857788,1225
842.97583,1299
843.093933,1263
843.211975,1219
843.330017,1234
843.44812,1261
843.566101,1229
843.684204,1296
843.802246,1222
843.920227,1306
844.038269,1231
844.156311,1268
844.274292,1223
844.392395,1262
844.510376,1273
844.628357,1257
844.74646,1244
844.864441,1239
844.982422,1279
845.100403,1218
845.218384,1269
845.336426,1224
845.454468,1278
845.572449,1293
845.69043,1243
845.808411,1238
845.926453,1253
846.044373,1237
846.162354,1227
846.280396,1264
846.398315,1246
846.516296,1243
846.634216,1221
846.752197,1234
846.870178,1246
846.988098,1219
847.106079,1284
847.22406,1246
847.34198,1266
847.4599,1279
847.577881,1259
847.695801,1239
847.813782,1259
847.931641,1251
848.049561,1266
848.167603,1231
848.285461,1303
848.403381,1264
848.521362,1218
848.639221,1255
848.75708,1260
848.875,1258
848.99292,1248
849.110901,1248
849.22876,1209
849.34668,1301
849.464539,1237
849.582458,1284
849.700317,1222
849.818176,1230
849.936096,1263
850.053955,1223
850.171875,1246
850.289673,1262
850.407593,1243
850.525452,1286
850.643311,1238
850.761169,1248
850.878967,1267
850.996887,1242
851.114746,1237
851.232544,1274
851.350403,1224
851.468262,1283
851.58606,1259
851.703979,1239
851.821777,1262
851.939636,1246
852.057434,1217
852.175232,1268
852.293091,1241
852.410889,1280
852.528687,1225
852.646545,1293
852.764343,1214
852.88208,1263
852.999939,1241
853.117676,1258
853.235535,1232
853.353271,1260
853.471069,1244
853.588928,1226
853.706604,1262
853.824402,1258
853.9422,1275
854.059998,1246
854.177734,1226
854.295532,1237
854.413269,1251
854.531006,1234
854.648804,1228
854.766541,1268
854.884277,1222
855.002014,1247
855.119751,1244
855.237549,1278
855.355225,1254
855.473022,1259
855.590698,1237
855.708435,1274
855.826172,1233
855.943848,1286
856.061646,1283
856.179321,1280
856.296997,1224
856.414795,1266
856.53241,1252
856.650085,1240
856.767822,1255
856.885559,1290
857.003174,1264
857.120911,1286
857.238586,1258
857.356201,1251
857.473938,1251
857.591614,1228
857.709351,1250
857.826965,1289
857.944641,1265
858.062317,1261
858.179993,1236
858.297668,1235
858.415283,1269
858.532959,1266
858.650574,1254
858.768188,1297
858.885803,1275
859.003479,1265
859.121094,1245
859.23877,1283
859.356384,1255
859.473999,1268
859.591675,1251
859.709229,1286
859.826843,1264
859.944458,1242
860.062012,1249
860.179626,1248
860.297302,1241
860.414856,1216
860.532471,1243
860.650024,1243
860.767639,1237
860.885193,1264
861.002808,1242
861.120361,1265
861.237976,1274
861.35553,1265
861.473022,1277
861.590698,1243
861.708191,1288
861.825745,1260
861.943298,1259
862.060852,1259
862.178406,1261
862.295959,1253
862.413513,1260
862.531006,1285
862.64856,1252
862.766113,1286
862.883667,1267
863.00116,1278
863.118713,1258
863.236206,1305
863.353699,1200
863.471252,1225
863.588745,1283
863.706177,1240
863.82373,1252
863.941162,1266
864.058716,1263
864.176208,1244
864.29364,1251
864.411194,1274
864.528687,1236
864.646118,1244
864.763611,1259
864.881042,1264
864.998535,1257
865.116028,1258
865.233459,1262
865.350891,1266
865.468384,1279
865.585754,1273
865.703308,1273
865.820679,1304
865.938171,1258
866.055542,1287
866.173035,1258
866.290466,1293
866.407837,1263
866.52533,1276
866.6427,1249
866.760071,1248
866.877563,1268
866.994934,1304
867.112305,1223
867.229736,1272
867.347107,1269
867.464539,1268
867.58197,1265
867.699341,1262
867.81665,1282
867.934082,1251
868.051453,1300
868.168823,1296
868.286194,1289
868.403564,1287
868.520935,1280
868.638306,1268
868.755676,1285
868.872986,1287
868.990295,1261
869.107727,1300
869.225037,1272
869.342346,1258
869.459717,1274
869.577026,1284
869.694336,1307
869.811707,1270
869.929016,1252
870.046326,1272
870.163635,1292
870.280945,1282
870.398254,1251
870.515564,1253
870.632812,1256
870.750183,1270
870.867432,1271
870.984741,1274
871.102051,1286
871.219299,1269
871.336609,1303
871.453918,1259
871.571106,1277
871.688416,1294
871.805664,1256
871.922852,1271
872.040222,1288
872.157471,1289
872.274719,1282
872.391968,1281
872.509155,1309
872.626465,1235
872.743652,1263
872.860962,1236
872.978149,1282
873.095337,1257
873.212646,1278
873.329834,1273
873.44696,1261
873.564209,1268
873.681396,1258
873.798645,1273
873.915894,1255
874.03302,1298
874.150208,1262
874.267456,1280
874.384583,1252
874.501831,1295
874.618958,1272
874.736145,1299
874.853333,1296
874.970459,1266
875.087646,1340
875.204834,1275
875.32196,1270
875.439148,1316
875.556274,1304
875.673401,1321
875.790527,1310
875.907715,1260
876.024841,1274
876.141968,1253
876.259094,1299
876.376282,1276
876.493347,1264
876.610474,1301
876.7276,1294
876.844727,1289
876.961853,1214
877.078918,1318
877.195984,1279
877.313171,1244
877.430237,1283
877.547302,1300
877.664368,1253
877.781433,1279
877.898499,1251
878.015625,1283
878.13269,1287
878.249695,1325
878.366821,1302
878.483887,1300
878.600952,1318
878.717957,1273
878.834961,1280
878.952087,1296
879.069092,1279
879.186157,1282
879.303162,1278
879.420227,1266
879.537231,1290
879.654236,1293
879.77124,1275
879.888306,1270
880.005249,1251
880.122314,1284
880.239319,1279
880.356323,1264
880.473328,1271
880.590271,1283
880.707275,1295
880.824341,1263
880.941284,1291
881.058228,1312
881.175232,1304
881.292236,1295
881.40918,1314
881.526123,1295
881.643066,1328
881.760071,1299
881.877014,1306
881.993958,1326
882.11084,1285
882.227783,1297
882.344727,1317
882.46167,1320
882.578613,1313
882.695618,1308
882.812439,1291
882.929382,1364
883.046326,1257
883.163208,1316
883.280151,1290
883.397034,1268
883.513916,1316
883.630798,1314
883.747742,1320
883.864563,1316
883.981506,1268
884.098389,1305
884.21521,1267
884.332153,1363
884.448975,1303
884.565796,1295
884.682678,1309
884.7995,1251
884.916443,1287
885.033264,1314
885.150085,1299
885.266968,1349
885.383789,1306
885.500671,1316
885.617493,1309
885.734314,1292
885.851196,1311
885.967896,1300
886.084717,1264
886.201599,1298
886.318359,1310
886.435181,1289
886.552002,1291
886.668762,1269
886.785645,1353
886.902344,1307
887.019165,1317
887.135925,1332
887.252747,1311
887.369446,1265
887.486267,1335
887.603027,1360
887.719788,1330
887.836548,1299
887.953247,1260
888.070068,1279
888.186829,1322
888.303528,1298
888.420288,1338
888.536987,1317
888.653687,1340
888.770447,1276
888.887146,1377
889.003967,1282
889.120667,1326
889.237305,1301
889.354065,1313
889.470703,1332
889.587463,1311
889.704163,1344
889.820862,1344
889.937561,1356
890.054199,1312
890.170837,1329
890.287598,1264
890.404236,1328
890.520874,1333
890.637634,1352
890.754211,1307
890.87085,1296
890.987549,1322
891.104187,1337
891.220886,1341
891.337463,1329
891.454102,1348
891.57074,1319
891.687378,1294
891.804077,1332
891.920654,1334
892.037231,1329
892.15387,1343
892.270447,1291
892.387085,1333
892.503723,1284
892.6203,1272
892.736877,1318
892.853516,1312
892.970032,1331
893.08667,1331
893.203186,1336
893.319763,1316
893.43634,1336
893.552917,1342
893.669556,1310
893.786011,1313
893.902588,1349
894.019165,1340
894.135681,1330
894.252197,1341
894.368835,1328
894.485291,1329
894.601868,1310
894.718384,1320
894.8349,1381
894.951355,1309
895.067932,1315
895.184448,1349
895.300964,1344
895.417419,1312
895.533936,1382
895.650452,1324
895.766907,1331
895.883423,1341
895.999878,1318
896.116333,1316
896.232849,1336
896.349304,1357
896.465759,1335
896.582214,1292
896.698669,1337
896.815125,1362
896.931641,1337
897.048035,1329
897.164551,1317
897.280884,1340
897.397339,1333
897.513794,1297
897.630249,1337
897.746582,1349
897.863098,1359
897.979431,1372
898.095886,1294
898.212341,1339
898.328674,1359
898.445129,1325
898.561462,1360
898.677795,1354
898.794312,1374
898.910645,1359
899.026978,1312
899.143433,1353
899.259766,1351
899.37616,1316
899.492493,1341
899.608765,1335
899.725159,1357
899.841553,1324
899.957947,1373
900.07428,1340
900.190552,1376
900.306946,1341
900.423157,1380
900.53949,1364
900.655884,1371
900.772156,1336
900.888489,1336
901.004822,1322
901.121033,1365
901.237366,1316
901.353699,1322
901.46991,1370
901.586304,1334
901.702515,1345
901.818787,1326
901.93512,1377
902.051331,1339
902.167603,1320
902.283875,1372
902.400085,1327
902.516418,1342
902.632629,1346
902.74884,1334
902.865112,1373
902.981384,1355
903.097595,1374
903.213867,1301
903.330017,1342
903.446289,1355
903.5625,1350
903.67865,1343
903.794922,1380
903.911072,1295
904.027344,1368
904.143494,1348
904.259705,1376
904.375916,1378
904.492065,1325
904.608215,1356
904.724426,1375
904.840576,1345
904.956726,1336
905.072876,1354
905.189087,1378
905.305176,1362
905.421387,1319
905.537537,1380
905.653687,1345
905.769775,1412
905.885925,1385
906.002014,1370
906.118164,1377
906.234314,1355
906.350403,1345
906.466492,1348
906.582642,1382
906.69873,1354
906.814758,1377
906.930908,1317
907.046936,1361
907.163086,1344
907.279175,1370
907.395264,1332
907.511353,1344
907.62738,1369
907.743408,1397
907.859497,1337
907.975525,1375
908.091553,1372
908.207703,1405
908.32373,1384
908.439758,1327
908.555786,1354
908.671814,1364
908.787842,1361
908.90387,1388
909.019775,1331
909.135864,1379
909.251892,1353
909.367859,1343
909.483826,1381
909.599854,1369
909.715881,1388
909.831848,1408
909.947815,1372
910.063782,1346
910.179749,1389
910.295776,1343
910.411743,1372
910.527649,1363
910.643616,1348
910.759583,1374
910.875488,1399
910.991455,1372
911.107361,1342
911.223267,1386
911.339294,1402
911.4552,1381
911.571106,1326
911.687073,1373
911.802979,1396
911.918823,1375
912.034729,1404
912.150635,1379
912.266602,1360
912.382446,1373
912.498352,1412
912.614197,1355
912.730103,1391
912.846008,1354
792.44574,1603
792.56488,1603
792.68396,1604
792.80304,1603
792.92218,1528
793.041199,1493
793.160339,1524
793.279419,1544
793.398499,1539
793.517578,1527
793.636658,1522
793.755737,1520
793.874817,1543
793.993896,1542
794.112976,1474
794.232056,1495
794.351074,1516
794.470215,1556
794.589233,1529
794.708313,1507
794.827393,1514
794.946411,1522
795.065552,1546
795.18457,1506
795.303589,1541
795.422668,1474
795.541687,1490
795.660767,1474
795.779846,1501
795.898865,1472
796.017883,1500
796.136963,1526
796.255981,1491
796.375061,1461
796.49408,1462
796.613037,1511
796.732117,1475
796.851135,1461
796.970154,1464
797.089233,1447
797.208191,1473
797.327271,1496
797.446228,1465
797.565186,1477
797.684265,1509
797.803223,1487
797.922241,1482
798.04126,1479
798.160278,1432
798.279297,1419
798.398315,1481
798.517273,1449
798.636292,1479
798.75531,1453
798.874268,1436
798.993286,1479
799.112244,1435
799.231323,1428
799.350281,1455
799.469238,1474
799.588257,1471
799.707153,1432
799.826111,1477
799.945129,1417
800.064087,1455
800.183044,1409
800.302063,1447
800.421021,1424
800.539978,1449
800.658936,1434
800.777893,1435
800.896912,1434
801.015747,1515
801.134705,1451
801.253723,1465
801.37262,1446
801.491638,1403
801.610535,1454
801.729492,1412
801.84845,1445
801.967407,1458
802.086243,1492
802.205261,1482
802.324158,1446
802.443115,1456
802.562073,1441
802.680969,1439
802.799927,1411
802.918762,1459
803.037659,1434
803.156677,1452
803.275574,1446
803.39447,1404
803.513428,1449
803.632263,1428
803.751221,1473
803.870117,1423
803.989014,1405
804.107971,1451
804.226746,1449
804.345642,1421
804.4646,1477
804.583496,1414
804.702393,1451
804.821228,1403
804.940125,1405
805.059021,1429
805.177917,1457
805.296814,1417
805.415649,1412
805.534546,1436
805.653442,1432
805.772278,1444
805.891113,1443
806.01001,1430
806.128906,1434
806.247742,1406
806.366577,1422
806.485413,1460
806.604309,1460
806.723145,1421
806.84198,1423
806.960876,1410
807.079712,1426
807.198486,1473
807.317383,1452
807.436218,1395
807.554993,1397
807.673889,1420
807.792725,1402
807.91156,1420
808.030396,1433
808.14917,1410
808.268005,1420
808.386841,1472
808.505676,1424
808.624451,1422
808.743286,1414
808.862122,1417
808.980896,1430
809.099731,1418
809.218506,1452
809.337341,1417
809.456116,1451
809.57489,1420
809.693726,1401
809.8125,1431
809.931274,1475
810.050049,1458
810.168884,1419
810.287659,1412
810.406372,1439
810.525269,1410
810.643982,1442
810.762756,1460
810.881531,1363
811.000305,1427
811.11908,1438
811.237854,1411
811.356567,1407
811.475403,1444
811.594116,1425
811.71283,1418
811.831604,1446
811.950378,1446
812.069153,1383
812.187927,1454
812.30658,1413
812.425415,1397
812.544128,1400
812.662781,1438
812.781616,1402
812.900269,1410
813.019043,1409
813.137756,1446
813.256531,1433
813.375244,1399
813.493896,1372
813.612671,1440
813.731384,1394
813.850037,1407
813.96875,1406
814.087524,1410
814.206238,1366
814.324951,1397
814.443604,1358
814.562256,1424
814.68103,1382
814.799683,1421
814.918335,1416
815.037109,1419
815.155762,1428
815.274475,1381
815.393188,1398
815.511841,1419
815.630554,1409
815.749146,1435
815.867859,1403
815.986572,1405
816.105164,1365
816.223877,1389
816.342529,1357
816.461182,1404
816.579895,1397
816.698486,1395
816.817139,1386
816.935791,1418
817.054504,1372
817.173096,1412
817.291748,1417
817.4104,1404
817.529053,1349
817.647644,1402
817.766235,1346
817.884949,1415
818.00354,1356
818.122192,1371
818.240845,1337
818.359436,1357
818.478088,1353
818.59668,1380
818.715271,1358
818.833923,1328
818.952515,1390
819.071106,1372
819.189758,1352
819.30835,1341
819.426941,1332
819.545532,1369
819.664124,1348
819.782715,1361
819.901306,1370
820.019897,1341
820.138489,1362
820.25708,1348
820.375671,1367
820.494202,1376
820.612732,1352
820.731384,1360
820.849915,1375
820.968506,1323
821.087097,1358
821.205627,1346
821.324158,1358
821.442749,1361
821.561279,1334
821.679871,1326
821.798401,1353
821.916931,1391
822.035461,1340
822.154053,1382
822.272583,1302
822.391174,1353
822.509583,1305
822.628174,1372
822.746704,1333
822.865234,1375
822.983765,1324
823.102295,1360
823.220825,1334
823.339294,1308
823.457825,1327
823.576355,1319
823.694824,1332
823.813354,1336
823.931885,1315
824.050354,1354
824.168884,1302
824.287354,1333
824.405823,1271
824.524353,1316
824.642822,1332
824.761353,1331
824.879822,1335
824.998291,1339
825.116699,1296
825.235291,1330
825.353699,1330
825.472168,1298
825.590637,1365
825.709106,1334
825.827576,1309
825.946045,1323
826.064453,1290
826.182983,1339
826.301392,1319
826.4198,1353
826.53833,1300
826.656738,1334
826.775208,1357
826.893677,1301
827.012024,1309
827.130493,1299
827.248962,1322
827.36731,1306
827.485779,1298
827.604248,1335
827.722595,1329
827.841064,1328
827.959412,1334
828.077942,1310
828.196289,1325
828.314636,1288
828.433105,1334
828.551514,1304
828.669861,1339
828.78833,1316
828.906677,1283
829.025085,1322
829.143433,1261
829.261841,1285
829.38031,1287
829.498657,1283
829.617004,1334
829.735413,1290
829.85376,1273
829.972107,1309
830.090515,1279
830.208862,1299
830.327209,1307
830.445557,1311
830.563904,1308
830.682312,1286
830.800659,1272
830.919006,1285
831.037354,1285
831.155701,1297
831.274048,1300
831.392395,1285
831.51062,1295
831.629028,1306
831.747314,1300
831.865662,1306
831.984009,1291
832.102356,1312
832.220642,1289
832.338928,1298
832.457275,1298
832.575623,1307
832.693909,1245
832.812134,1336
832.930481,1268
833.048828,1288
833.167114,1288
833.2854,1317
833.403687,1309
833.521973,1314
833.640259,1277
833.758545,1315
833.876831,1298
833.995056,1276
834.113281,1297
834.231628,1290
834.349915,1304
834.468201,1265
834.586426,1322
834.704651,1308
834.822998,1279
834.941162,1301
835.059448,1304
835.177673,1294
835.295959,1300
835.414246,1317
835.53241,1341
835.650635,1235
835.768921,1296
835.887146,1281
836.005371,1288
836.123596,1284
836.241821,1254
836.360046,1286
836.478271,1285
836.596497,1267
836.714722,1283
836.832886,1334
836.95105,1288
837.069336,1318
837.1875,1290
837.305725,1294
837.423889,1297
837.542053,1327
837.660339,1285
837.778503,1307
837.896667,1304
838.014832,1258
838.132996,1272
838.25116,1303
838.369385,1307
838.487488,1309
838.605713,1249
838.723877,1264
838.84198,1255
838.960205,1273
839.078308,1239
839.196472,1269
839.314636,1273
839.4328,1283
839.550964,1275
839.669067,1291
839.787231,1305
839.905396,1290
840.023499,1262
840.141602,1283
840.259766,1294
840.377869,1304
840.495972,1287
840.614136,1282
840.732239,1286
840.850342,1274
840.968445,1294
841.086548,1333
841.204651,1284
841.322754,1298
841.440918,1248
841.55896,1274
841.677002,1235
841.795166,1316
841.913208,1298
842.031311,1271
842.149353,1243
842.267456,1296
842.385498,1283
842.503601,1319
842.621643,1339
842.739746,1257
842.857788,1275
842.97583,1294
843.093933,1279
843.211975,1264
843.330017,1284
843.44812,1245
843.566101,1241
843.684204,1241
843.802246,1259
843.920227,1279
844.038269,1289
844.156311,1290
844.274292,1282
844.392395,1261
844.510376,1319
844.628357,1250
844.74646,1247
844.864441,1295
844.982422,1285
845.100403,1277
845.218384,1255
845.336426,1269
845.454468,1267
845.572449,1253
845.69043,1293
845.808411,1239
845.926453,1271
846.044373,1271
846.162354,1283
846.280396,1254
846.398315,1275
846.516296,1229
846.634216,1284
846.752197,1247
846.870178,1261
846.988098,1269
847.106079,1243
847.22406,1290
847.34198,1251
847.4599,1253
847.577881,1274
847.695801,1298
847.813782,1249
847.931641,1294
848.049561,1262
848.167603,1236
848.285461,1283
848.403381,1295
848.521362,1284
848.639221,1274
848.75708,1252
848.875,1306
848.99292,1291
849.110901,1277
849.22876,1257
849.34668,1260
849.464539,1327
849.582458,1285
849.700317,1292
849.818176,1292
849.936096,1255
850.053955,1303
850.171875,1284
850.289673,1299
850.407593,1277
850.525452,1261
850.643311,1278
850.761169,1279
850.878967,1310
850.996887,1306
851.114746,1298
851.232544,1265
851.350403,1276
851.468262,1260
851.58606,1246
851.703979,1298
851.821777,1262
851.939636,1262
852.057434,1286
852.175232,1264
852.293091,1283
852.410889,1298
852.528687,1268
852.646545,1286
852.764343,1292
852.88208,1285
852.999939,1254
853.117676,1297
853.235535,1275
853.353271,1307
853.471069,1293
853.588928,1264
853.706604,1275
853.824402,1319
853.9422,1289
854.059998,1250
854.177734,1293
854.295532,1245
854.413269,1291
854.531006,1276
854.648804,1256
854.766541,1267
854.884277,1293
855.002014,1308
855.119751,1282
855.237549,1255
855.355225,1255
855.473022,1299
855.590698,1287
855.708435,1252
855.826172,1253
855.943848,1271
856.061646,1308
856.179321,1266
856.296997,1277
856.414795,1282
856.53241,1292
856.650085,1290
856.767822,1256
856.885559,1278
857.003174,1273
857.120911,1298
857.238586,1328
857.356201,1270
857.473938,1287
857.591614,1264
857.709351,1239
857.826965,1297
857.944641,1280
858.062317,1260
858.179993,1281
858.297668,1294
858.415283,1292
858.532959,1279
858.650574,1310
858.768188,1332
858.885803,1275
859.003479,1276
859.121094,1271
859.23877,1263
859.356384,1266
859.473999,1275
859.591675,1261
859.709229,1313
859.826843,1273
859.944458,1297
860.062012,1281
860.179626,1304
860.297302,1261
860.414856,1250
860.532471,1258
860.650024,1276
860.767639,1261
860.885193,1297
861.002808,1302
861.120361,1285
861.237976,1271
861.35553,1313
861.473022,1328
861.590698,1257
861.708191,1291
861.825745,1258
861.943298,1284
862.060852,1306
862.178406,1286
862.295959,1285
862.413513,1325
862.531006,1282
862.64856,1243
862.766113,1273
862.883667,1291
863.00116,1271
863.118713,1295
863.236206,1295
863.353699,1255
863.471252,1293
863.588745,1286
863.706177,1307
863.82373,1297
863.941162,1317
864.058716,1314
864.176208,1282
864.29364,1280
864.411194,1322
864.528687,1258
864.646118,1285
864.763611,1272
864.881042,1293
864.998535,1324
865.116028,1284
865.233459,1299
865.350891,1262
865.468384,1304
865.585754,1279
865.703308,1309
865.820679,1259
865.938171,1286
866.055542,1305
866.173035,1301
866.290466,1281
866.407837,1308
866.52533,1276
866.6427,1247
866.760071,1312
866.877563,1306
866.994934,1312
867.112305,1305
867.229736,1295
867.347107,1306
867.464539,1317
867.58197,1269
867.699341,1262
867.81665,1288
867.934082,1314
868.051453,1257
868.168823,1304
868.286194,1285
868.403564,1324
868.520935,1267
868.638306,1311
868.755676,1267
868.872986,1272
868.990295,1285
869.107727,1303
869.225037,1307
869.342346,1275
869.459717,1323
869.577026,1308
869.694336,1319
869.811707,1311
869.929016,1298
870.046326,1295
870.163635,1294
870.280945,1286
870.398254,1305
870.515564,1340
870.632812,1315
870.750183,1283
870.867432,1320
870.984741,1315
871.102051,1276
871.219299,1302
871.336609,1311
871.453918,1310
871.571106,1286
871.688416,1260
871.805664,1261
871.922852,1304
872.040222,1266
872.157471,1331
872.274719,1298
872.391968,1295
872.509155,1301
872.626465,1287
872.743652,1297
872.860962,1295
872.978149,1287
873.095337,1300
873.212646,1311
873.329834,1359
873.44696,1325
873.564209,1290
873.681396,1275
873.798645,1306
873.915894,1284
874.03302,1289
874.150208,1307
874.267456,1311
874.384583,1318
874.501831,1343
874.618958,1322
874.736145,1316
874.853333,1300
874.970459,1343
875.087646,1288
875.204834,1291
875.32196,1293
875.439148,1268
875.556274,1308
875.673401,1305
875.790527,1306
875.907715,1296
876.024841,1335
876.141968,1308
876.259094,1308
876.376282,1292
876.493347,1265
876.610474,1317
876.7276,1301
876.844727,1351
876.961853,1315
877.078918,1288
877.195984,1309
877.313171,1305
877.430237,1271
877.547302,1334
877.664368,1301
877.781433,1350
877.898499,1305
878.015625,1310
878.13269,1290
878.249695,1304
878.366821,1288
878.483887,1295
878.600952,1310
878.717957,1283
878.834961,1330
878.952087,1305
879.069092,1298
879.186157,1354
879.303162,1305
879.420227,1340
879.537231,1324
879.654236,1326
879.77124,1307
879.888306,1317
880.005249,1332
880.122314,1314
880.239319,1309
880.356323,1335
880.473328,1279
880.590271,1296
880.707275,1331
880.824341,1316
880.941284,1279
881.058228,1282
881.175232,1299
881.292236,1320
881.40918,1302
881.526123,1278
881.643066,1309
881.760071,1272
881.877014,1335
881.993958,1347
882.11084,1305
882.227783,1298
882.344727,1281
882.46167,1309
882.578613,1362
882.695618,1327
882.812439,1284
882.929382,1298
883.046326,1307
883.163208,1282
883.280151,1306
883.397034,1289
883.513916,1335
883.630798,1338
883.747742,1319
883.864563,1340
883.981506,1326
884.098389,1323
884.21521,1302
884.332153,1326
884.448975,1289
884.565796,1293
884.682678,1318
884.7995,1336
884.916443,1317
885.033264,1333
885.150085,1357
885.266968,1352
885.383789,1316
885.500671,1324
885.617493,1338
885.734314,1317
885.851196,1346
885.967896,1353
886.084717,1342
886.201599,1345
886.318359,1335
886.435181,1344
886.552002,1326
886.668762,1327
886.785645,1325
886.902344,1385
887.019165,1329
887.135925,1329
887.252747,1367
887.369446,1316
887.486267,1349
887.603027,1337
887.719788,1324
887.836548,1336
887.953247,1335
888.070068,1340
888.186829,1355
888.303528,1306
888.420288,1344
888.536987,1301
888.653687,1305
888.770447,1307
888.887146,1305
889.003967,1377
889.120667,1302
889.237305,1343
889.354065,1331
889.470703,1351
889.587463,1381
889.704163,1336
889.820862,1352
889.937561,1394
890.054199,1289
890.170837,1320
890.287598,1385
890.404236,1337
890.520874,1344
890.637634,1368
890.754211,1341
890.87085,1360
890.987549,1361
891.104187,1383
891.220886,1352
891.337463,1363
891.454102,1363
891.57074,1410
891.687378,1373
891.804077,1357
891.920654,1340
892.037231,1372
892.15387,1372
892.270447,1352
892.387085,1328
892.503723,1351
892.6203,1360
892.736877,1353
892.853516,1358
892.970032,1350
893.08667,1346
893.203186,1350
893.319763,1406
893.43634,1338
893.552917,1351
893.669556,1343
893.786011,1364
893.902588,1323
894.019165,1424
894.135681,1368
894.252197,1370
894.368835,1387
894.485291,1388
894.601868,1385
894.718384,1359
894.8349,1369
894.951355,1372
895.067932,1351
895.184448,1336
895.300964,1382
895.417419,1364
895.533936,1307
895.650452,1372
895.766907,1320
895.883423,1335
895.999878,1359
896.116333,1377
896.232849,1361
896.349304,1352
896.465759,1366
896.582214,1365
896.698669,1349
896.815125,1343
896.931641,1375
897.048035,1327
897.164551,1358
897.280884,1347
897.397339,1345
897.513794,1396
897.630249,1424
897.746582,1354
897.863098,1388
897.979431,1362
898.095886,1393
898.212341,1353
898.328674,1366
898.445129,1391
898.561462,1381
898.677795,1353
898.794312,1378
898.910645,1354
899.026978,1355
899.143433,1359
899.259766,1356
899.37616,1355
899.492493,1363
899.608765,1405
899.725159,1379
899.841553,1341
899.957947,1406
900.07428,1373
900.190552,1387
900.306946,1386
900.423157,1389
900.53949,1418
900.655884,1373
900.772156,1371
900.888489,1436
901.004822,1406
901.121033,1349
901.237366,1386
901.353699,1384
901.46991,1379
901.586304,1390
901.702515,1392
901.818787,1375
901.93512,1378
902.051331,1406
902.167603,1365
902.283875,1359
902.400085,1361
902.516418,1367
902.632629,1344
902.74884,1391
902.865112,1422
902.981384,1348
903.097595,1396
903.213867,1402
903.330017,1361
903.446289,1386
903.5625,1387
903.67865,1378
903.794922,1419
903.911072,1336
904.027344,1387
904.143494,1394
904.259705,1408
904.375916,1386
904.492065,1377
904.608215,1364
904.724426,1401
904.840576,1388
904.956726,1411
905.072876,1400
905.189087,1374
905.305176,1389
905.421387,1381
905.537537,1377
905.653687,1408
905.769775,1366
905.885925,1404
906.002014,1404
906.118164,1390
906.234314,1439
906.350403,1373
906.466492,1423
906.582642,1416
906.69873,1376
906.814758,1412
906.930908,1395
907.046936,1416
907.163086,1408
907.279175,1401
907.395264,1401
907.511353,1390
907.62738,1419
907.743408,1408
907.859497,1385
907.975525,1389
908.091553,1378
908.207703,1377
908.32373,1424
908.439758,1403
908.555786,1395
908.671814,1429
908.787842,1390
908.90387,1431
909.019775,1406
909.135864,1427
909.251892,1377
909.367859,1441
909.483826,1376
909.599854,1418
909.715881,1414
909.831848,1445
909.947815,1370
910.063782,1412
910.179749,1377
910.295776,1395
910.411743,1389
910.527649,1394
910.643616,1406
910.759583,1424
910.875488,1415
910.991455,1448
911.107361,1406
911.223267,1406
911.339294,1407
911.4552,1406
911.571106,1417
911.687073,1412
911.802979,1386
911.918823,1434
912.034729,1365
912.150635,1426
912.266602,1439
912.382446,1402
912.498352,1379
912.614197,1414
912.730103,1404
912.846008,1377
792.44574,1600
792.56488,1597
792.68396,1603
792.80304,1579
792.92218,1593
793.041199,1546
793.160339,1560
793.279419,1587
793.398499,1542
793.517578,1541
793.636658,1523
793.755737,1553
793.874817,1532
793.993896,1544
794.112976,1518
794.232056,1538
794.351074,1525
794.470215,1493
794.589233,1537
794.708313,1517
794.827393,1500
794.946411,1528
795.065552,1554
795.18457,1509
795.303589,1536
795.422668,1495
795.541687,1490
795.660767,1520
795.779846,1499
795.898865,1485
796.017883,1493
796.136963,1482
796.255981,1534
796.375061,1503
796.49408,1521
796.613037,1525
796.732117,1546
796.851135,1526
796.970154,1514
797.089233,1478
797.208191,1443
797.327271,1497
797.446228,1486
797.565186,1518
797.684265,1433
797.803223,1496
797.922241,1487
798.04126,1474
798.160278,1483
798.279297,1503
798.398315,1441
798.517273,1453
798.636292,1475
798.75531,1481
798.874268,1503
798.993286,1511
799.112244,1476
799.231323,1453
799.350281,1477
799.469238,1485
799.588257,1432
799.707153,1477
799.826111,1504
799.945129,1497
800.064087,1537
800.183044,1502
800.302063,1500
800.421021,1501
800.539978,1438
800.658936,1500
800.777893,1431
800.896912,1481
801.015747,1477
801.134705,1421
801.253723,1468
801.37262,1444
801.491638,1421
801.610535,1468
801.729492,1485
801.84845,1462
801.967407,1445
802.086243,1508
802.205261,1447
802.324158,1498
802.443115,1472
802.562073,1435
802.680969,1480
802.799927,1436
802.918762,1435
803.037659,1423
803.156677,1460
803.275574,1432
803.39447,1495
803.513428,1431
803.632263,1496
803.751221,1465
803.870117,1463
803.989014,1423
804.107971,1457
804.226746,1417
804.345642,1465
804.4646,1459
804.583496,1443
804.702393,1442
804.821228,1469
804.940125,1472
805.059021,1470
805.177917,1448
805.296814,1433
805.415649,1421
805.534546,1446
805.653442,1455
805.772278,1480
805.891113,1462
806.01001,1494
806.128906,1460
806.247742,1476
806.366577,1429
806.485413,1422
806.604309,1463
806.723145,1430
806.84198,1427
806.960876,1452
807.079712,1460
807.198486,1442
807.317383,1421
807.436218,1412
807.554993,1438
807.673889,1438
807.792725,1423
807.91156,1463
808.030396,1497
808.14917,1408
808.268005,1443
808.386841,1444
808.505676,1437
808.624451,1484
808.743286,1421
808.862122,1413
808.980896,1414
809.099731,1432
809.218506,1465
809.337341,1456
809.456116,1464
809.57489,1441
809.693726,1452
809.8125,1463
809.931274,1436
810.050049,1424
810.168884,1450
810.287659,1459
810.406372,1439
810.525269,1400
810.643982,1409
810.762756,1440
810.881531,1464
811.000305,1453
811.11908,1429
811.237854,1403
811.356567,1387
811.475403,1455
811.594116,1412
811.71283,1400
811.831604,1424
811.950378,1425
812.069153,1420
812.187927,1412
812.30658,1420
812.425415,1421
812.544128,1433
812.662781,1411
812.781616,1411
812.900269,1408
813.019043,1462
813.137756,1440
813.256531,1448
813.375244,1376
813.493896,1436
813.612671,1450
813.731384,1448
813.850037,1379
813.96875,1437
814.087524,1432
814.206238,1414
814.324951,1397
814.443604,1422
814.562256,1405
814.68103,1432
814.799683,1418
814.918335,1416
815.037109,1418
815.155762,1405
815.274475,1408
815.393188,1384
815.511841,1393
815.630554,1408
815.749146,1397
815.867859,1382
815.986572,1393
816.105164,1400
816.223877,1399
816.342529,1416
816.461182,1419
816.579895,1392
816.698486,1435
816.817139,1385
816.935791,1384
817.054504,1443
817.173096,1378
817.291748,1406
817.4104,1397
817.529053,1384
817.647644,1424
817.766235,1378
817.884949,1382
818.00354,1438
818.122192,1384
818.240845,1467
818.359436,1325
818.478088,1388
818.59668,1422
818.715271,1403
818.833923,1379
818.952515,1406
819.071106,1408
819.189758,1345
819.30835,1377
819.426941,1366
819.545532,1368
819.664124,1374
819.782715,1340
819.901306,1376
820.019897,1356
820.138489,1367
820.25708,1366
820.375671,1349
820.494202,1388
820.612732,1364
820.731384,1396
820.849915,1404
820.968506,1364
821.087097,1394
821.205627,1360
821.324158,1367
821.442749,1346
821.561279,1370
821.679871,1352
821.798401,1331
821.916931,1361
822.035461,1344
822.154053,1364
822.272583,1346
822.391174,1322
822.509583,1331
822.628174,1352
822.746704,1332
822.865234,1361
822.983765,1354
823.102295,1336
823.220825,1370
823.339294,1369
823.457825,1360
823.576355,1358
823.694824,1307
823.813354,1318
823.931885,1342
824.050354,1350
824.168884,1341
824.287354,1351
824.405823,1357
824.524353,1372
824.642822,1309
824.761353,1352
824.879822,1349
824.998291,1356
825.116699,1339
825.235291,1310
825.353699,1355
825.472168,1316
825.590637,1362
825.709106,1332
825.827576,1329
825.946045,1307
826.064453,1331
826.182983,1292
826.301392,1309
826.4198,1295
826.53833,1325
826.656738,1305
826.775208,1314
826.893677,1332
827.012024,1333
827.130493,1358
827.248962,1330
827.36731,1342
827.485779,1305
827.604248,1362
827.722595,1339
827.841064,1325
827.959412,1293
828.077942,1321
828.196289,1364
828.314636,1310
828.433105,1314
828.551514,1287
828.669861,1339
828.78833,1332
828.906677,1305
829.025085,1334
829.143433,1323
829.261841,1336
829.38031,1316
829.498657,1324
829.617004,1303
829.735413,1311
829.85376,1285
829.972107,1296
830.090515,1324
830.208862,1372
830.327209,1346
830.445557,1301
830.563904,1300
830.682312,1334
830.800659,1265
830.919006,1285
831.037354,1285
831.155701,1306
831.274048,1286
831.392395,1334
831.51062,1302
831.629028,1278
831.747314,1320
831.865662,1311
831.984009,1315
832.102356,1298
832.220642,1304
832.338928,1292
832.457275,1332
832.575623,1286
832.693909,1290
832.812134,1309
832.930481,1313
833.048828,1314
833.167114,1305
833.2854,1309
833.403687,1338
833.521973,1369
833.640259,1284
833.758545,1298
833.876831,1282
833.995056,1308
834.113281,1283
834.231628,1323
834.349915,1324
834.468201,1271
834.586426,1342
834.704651,1313
834.822998,1285
834.941162,1296
835.059448,1288
835.177673,1305
835.295959,1323
835.414246,1290
835.53241,1283
835.650635,1281
835.768921,1289
835.887146,1317
836.005371,1343
836.123596,1293
836.241821,1287
836.360046,1283
836.478271,1277
836.596497,1324
836.714722,1282
836.832886,1311
836.95105,1306
837.069336,1308
837.1875,1301
837.305725,1309
837.423889,1306
837.542053,1282
837.660339,1288
837.778503,1311
837.896667,1293
838.014832,1315
838.132996,1254
838.25116,1285
838.369385,1275
838.487488,1297
838.605713,1308
838.723877,1275
838.84198,1287
838.960205,1293
839.078308,1294
839.196472,1280
839.314636,1326
839.4328,1252
839.550964,1305
839.669067,1290
839.787231,1297
839.905396,1297
840.023499,1282
840.141602,1307
840.259766,1297
840.377869,1282
840.495972,1293
840.614136,1296
840.732239,1312
840.850342,1250
840.968445,1293
841.086548,1317
841.204651,1306
841.322754,1301
841.440918,1313
841.55896,1299
841.677002,1279
841.795166,1289
841.913208,1312
842.031311,1268
842.149353,1251
842.267456,1289
842.385498,1288
842.503601,1279
842.621643,1274
842.739746,1306
842.857788,1293
842.97583,1285
843.093933,1272
843.211975,1303
843.330017,1279
843.44812,1298
843.566101,1290
843.684204,1278
843.802246,1302
843.920227,1320
844.038269,1295
844.156311,1300
844.274292,1272
844.392395,1274
844.510376,1276
844.628357,1283
844.74646,1284
844.864441,1302
844.982422,1291
845.100403,1305
845.218384,1298
845.336426,1267
845.454468,1304
845.572449,1292
845.69043,1311
845.808411,1284
845.926453,1251
846.044373,1269
846.162354,1271
846.280396,1275
846.398315,1287
846.516296,1293
846.634216,1258
846.752197,1259
846.870178,1286
846.988098,1267
847.106079,1304
847.22406,1260
847.34198,1256
847.4599,1305
847.577881,1303
847.695801,1290
847.813782,1284
847.931641,1294
848.049561,1244
848.167603,1256
848.285461,1290
848.403381,1265
848.521362,1270
848.639221,1282
848.75708,1306
848.875,1263
848.99292,1286
849.110901,1259
849.22876,1222
849.34668,1279
849.464539,1240
849.582458,1274
849.700317,1294
849.818176,1319
849.936096,1259
850.053955,1259
850.171875,1254
850.289673,1310
850.407593,1256
850.525452,1311
850.643311,1307
850.761169,1310
850.878967,1269
850.996887,1317
851.114746,1255
851.232544,1254
851.350403,1319
851.468262,1283
851.58606,1287
851.703979,1298
851.821777,1321
851.939636,1278
852.057434,1272
852.175232,1292
852.293091,1332
852.410889,1248
852.528687,1296
852.646545,1310
852.764343,1294
852.88208,1293
852.999939,1284
853.117676,1289
853.235535,1276
853.353271,1274
853.471069,1286
853.588928,1274
853.706604,1308
853.824402,1272
853.9422,1296
854.059998,1309
854.177734,1257
854.295532,1332
854.413269,1257
854.531006,1309
854.648804,1328
854.766541,1280
854.884277,1305
855.002014,1281
855.119751,1300
855.237549,1279
855.355225,1297
855.473022,1258
855.590698,1298
855.708435,1267
855.826172,1296
855.943848,1319
856.061646,1292
856.179321,1290
856.296997,1304
856.414795,1301
856.53241,1266
856.650085,1300
856.767822,1287
856.885559,1316
857.003174,1233
857.120911,1287
857.238586,1259
857.356201,1276
857.473938,1315
857.591614,1323
857.709351,1289
857.826965,1263
857.944641,1284
858.062317,1319
858.179993,1275
858.297668,1277
858.415283,1335
858.532959,1332
858.650574,1292
858.768188,1309
858.885803,1238
859.003479,1255
859.121094,1310
859.23877,1297
859.356384,1309
859.473999,1285
859.591675,1308
859.709229,1289
859.826843,1315
859.944458,1303
860.062012,1306
860.179626,1256
860.297302,1288
860.414856,1286
860.532471,1251
860.650024,1268
860.767639,1273
860.885193,1279
861.002808,1294
861.120361,1304
861.237976,1285
861.35553,1318
861.473022,1256
861.590698,1297
861.708191,1304
861.825745,1289
861.943298,1280
862.060852,1300
862.178406,1256
862.295959,1260
862.413513,1306
862.531006,1316
862.64856,1263
862.766113,1307
862.883667,1318
863.00116,1302
863.118713,1299
863.236206,1318
863.353699,1299
863.471252,1282
863.588745,1267
863.706177,1313
863.82373,1321
863.941162,1300
864.058716,1327
864.176208,1264
864.29364,1307
864.411194,1327
864.528687,1296
864.646118,1321
864.763611,1307
864.881042,1310
864.998535,1263
865.116028,1307
865.233459,1283
865.350891,1274
865.468384,1301
865.585754,1300
865.703308,1279
865.820679,1277
865.938171,1295
866.055542,1295
866.173035,1299
866.290466,1313
866.407837,1289
866.52533,1348
866.6427,1285
866.760071,1320
866.877563,1318
866.994934,1280
867.112305,1283
867.229736,1307
867.347107,1263
867.464539,1295
867.58197,1306
867.699341,1307
867.81665,1302
867.934082,1270
868.051453,1324
868.168823,1294
868.286194,1313
868.403564,1291
868.520935,1285
868.638306,1313
868.755676,1285
868.872986,1305
868.990295,1293
869.107727,1328
869.225037,1327
869.342346,1319
869.459717,1274
869.577026,1273
869.694336,1311
869.811707,1316
869.929016,1277
870.046326,1307
870.163635,1287
870.280945,1318
870.398254,1299
870.515564,1299
870.632812,1284
870.750183,1284
870.867432,1343
870.984741,1280
871.102051,1311
871.219299,1276
871.336609,1276
871.453918,1311
871.571106,1317
871.688416,1360
871.805664,1298
871.922852,1302
872.040222,1350
872.157471,1308
872.274719,1341
872.391968,1318
872.509155,1289
872.626465,1316
872.743652,1289
872.860962,1280
872.978149,1358
873.095337,1317
873.212646,1319
873.329834,1295
873.44696,1348
873.564209,1288
873.681396,1314
873.798645,1295
873.915894,1319
874.03302,1309
874.150208,1289
874.267456,1293
874.384583,1284
874.501831,1347
874.618958,1331
874.736145,1330
874.853333,1316
874.970459,1341
875.087646,1323
875.204834,1304
875.32196,1338
875.439148,1304
875.556274,1316
875.673401,1314
875.790527,1290
875.907715,1317
876.024841,1320
876.141968,1293
876.259094,1347
876.376282,1281
876.493347,1318
876.610474,1351
876.7276,1300
876.844727,1316
876.961853,1324
877.078918,1327
877.195984,1331
877.313171,1326
877.430237,1342
877.547302,1353
877.664368,1311
877.781433,1292
877.898499,1323
878.015625,1315
878.13269,1287
878.249695,1335
878.366821,1325
878.483887,1304
878.600952,1328
878.717957,1343
878.834961,1318
878.952087,1330
879.069092,1300
879.186157,1289
879.303162,1327
879.420227,1298
879.537231,1293
879.654236,1331
879.77124,1335
879.888306,1295
880.005249,1364
880.122314,1286
880.239319,1315
880.356323,1313
880.473328,1317
880.590271,1332
880.707275,1343
880.824341,1288
880.941284,1319
881.058228,1337
881.175232,1316
881.292236,1341
881.40918,1345
881.526123,1335
881.643066,1364
881.760071,1312
881.877014,1349
881.993958,1391
882.11084,1329
882.227783,1326
882.344727,1371
882.46167,1353
882.578613,1327
882.695618,1326
882.812439,1297
882.929382,1354
883.046326,1331
883.163208,1321
883.280151,1349
883.397034,1339
883.513916,1334
883.630798,1388
883.747742,1332
883.864563,1313
883.981506,1347
884.098389,1322
884.21521,1304
884.332153,1313
884.448975,1342
884.565796,1317
884.682678,1324
884.7995,1354
884.916443,1375
885.033264,1372
885.150085,1338
885.266968,1324
885.383789,1365
885.500671,1330
885.617493,1351
885.734314,1350
885.851196,1305
885.967896,1353
886.084717,1303
886.201599,1300
886.318359,1310
886.435181,1338
886.552002,1357
886.668762,1361
886.785645,1322
886.902344,1350
887.019165,1367
887.135925,1333
887.252747,1350
887.369446,1364
887.486267,1327
887.603027,1329
887.719788,1340
887.836548,1352
887.953247,1332
888.070068,1352
888.186829,1356
888.303528,1377
888.420288,1324
888.536987,1317
888.653687,1302
888.770447,1369
888.887146,1346
889.003967,1337
889.120667,1382
889.237305,1380
889.354065,1379
889.470703,1335
889.587463,1415
889.704163,1365
889.820862,1312
889.937561,1330
890.054199,1322
890.170837,1410
890.287598,1364
890.404236,1354
890.520874,1365
890.637634,1343
890.754211,1358
890.87085,1413
890.987549,1323
891.104187,1360
891.220886,1370
891.337463,1322
891.454102,1380
891.57074,1353
891.687378,1356
891.804077,1391
891.920654,1361
892.037231,1349
892.15387,1376
892.270447,1323
892.387085,1371
892.503723,1375
892.6203,1359
892.736877,1357
892.853516,1392
892.970032,1381
893.08667,1348
893.203186,1332
893.319763,1358
893.43634,1385
893.552917,1397
893.669556,1377
893.786011,1372
893.902588,1370
894.019165,1371
894.135681,1366
894.252197,1376
894.368835,1372
894.485291,1380
894.601868,1380
894.718384,1387
894.8349,1389
894.951355,1361
895.067932,1404
895.184448,1386
895.300964,1353
895.417419,1376
895.533936,1389
895.650452,1351
895.766907,1382
895.883423,1354
895.999878,1360
896.116333,1390
896.232849,1419
896.349304,1398
896.465759,1389
896.582214,1352
896.698669,1370
896.815125,1377
896.931641,1350
897.048035,1403
897.164551,1382
897.280884,1409
897.397339,1390
897.513794,1410
897.630249,1366
897.746582,1428
897.863098,1368
897.979431,1390
898.095886,1375
898.212341,1370
898.328674,1410
898.445129,1350
898.561462,1392
898.677795,1403
898.794312,1365
898.910645,1393
899.026978,1363
899.143433,1408
899.259766,1405
899.37616,1429
899.492493,1410
899.608765,1396
899.725159,1416
899.841553,1390
899.957947,1395
900.07428,1404
900.190552,1394
900.306946,1377
900.423157,1360
900.53949,1380
900.655884,1408
900.772156,1392
900.888489,1416
901.004822,1373
901.121033,1403
901.237366,1363
901.353699,1350
901.46991,1382
901.586304,1422
901.702515,1334
901.818787,1379
901.93512,1334
902.051331,1381
902.167603,1377
902.283875,1370
902.400085,1389
902.516418,1356
902.632629,1403
902.74884,1417
902.865112,1431
902.981384,1394
903.097595,1374
903.213867,1404
903.330017,1386
903.446289,1399
903.5625,1422
903.67865,1406
903.794922,1404
903.911072,1396
904.027344,1381
904.143494,1410
904.259705,1440
904.375916,1382
904.492065,1414
904.608215,1397
904.724426,1398
904.840576,1411
904.956726,1383
905.072876,1408
905.189087,1382
905.305176,1395
905.421387,1401
905.537537,1404
905.653687,1416
905.769775,1448
905.885925,1423
906.002014,1408
906.118164,1389
906.234314,1390
906.350403,1367
906.466492,1414
906.582642,1376
906.69873,1374
906.814758,1386
906.930908,1441
907.046936,1374
907.163086,1408
907.279175,1399
907.395264,1455
907.511353,1440
907.62738,1403
907.743408,1434
907.859497,1415
907.975525,1400
908.091553,1417
908.207703,1385
908.32373,1427
908.439758,1366
908.555786,1391
908.671814,1431
908.787842,1394
908.90387,1430
909.019775,1415
909.135864,1401
909.251892,1419
909.367859,1412
909.483826,1411
909.599854,1366
909.715881,1423
909.831848,1407
909.947815,1447
910.063782,1438
910.179749,1434
910.295776,1406
910.411743,1429
910.527649,1449
910.643616,1430
910.759583,1443
910.875488,1407
910.991455,1430
911.107361,1436
911.223267,1421
911.339294,1451
911.4552,1407
911.571106,1437
911.687073,1421
911.802979,1364
911.918823,1441
912.034729,1399
912.150635,1451
912.266602,1394
912.382446,1432
912.498352,1384
912.614197,1450
912.730103,1410
912.846008,1419
