792.44574,2081
792.56488,2077
792.68396,2080
792.80304,2086
792.92218,1959
793.041199,1921
793.160339,1925
793.279419,1907
793.398499,1888
793.517578,1873
793.636658,1874
793.755737,1884
793.874817,1846
793.993896,1879
794.112976,1822
794.232056,1804
794.351074,1815
794.470215,1795
794.589233,1774
794.708313,1776
794.827393,1745
794.946411,1724
795.065552,1726
795.18457,1780
795.303589,1741
795.422668,1687
795.541687,1754
795.660767,1689
795.779846,1697
795.898865,1672
796.017883,1689
796.136963,1676
796.255981,1672
796.375061,1624
796.49408,1633
796.613037,1665
796.732117,1634
796.851135,1656
796.970154,1673
797.089233,1608
797.208191,1602
797.327271,1626
797.446228,1575
797.565186,1634
797.684265,1630
797.803223,1636
797.922241,1617
798.04126,1572
798.160278,1566
798.279297,1551
798.398315,1614
798.517273,1616
798.636292,1544
798.75531,1590
798.874268,1623
798.993286,1559
799.112244,1569
799.231323,1539
799.350281,1558
799.469238,1608
799.588257,1588
799.707153,1578
799.826111,1573
799.945129,1596
800.064087,1582
800.183044,1574
800.302063,1568
800.421021,1594
800.539978,1537
800.658936,1572
800.777893,1561
800.896912,1585
801.015747,1569
801.134705,1549
801.253723,1536
801.37262,1558
801.491638,1534
801.610535,1525
801.729492,1574
801.84845,1563
801.967407,1535
802.086243,1530
802.205261,1539
802.324158,1546
802.443115,1513
802.562073,1595
802.680969,1526
802.799927,1554
802.918762,1541
803.037659,1525
803.156677,1552
803.275574,1513
803.39447,1512
803.513428,1549
803.632263,1517
803.751221,1530
803.870117,1541
803.989014,1542
804.107971,1528
804.226746,1503
804.345642,1566
804.4646,1534
804.583496,1543
804.702393,1496
804.821228,1557
804.940125,1515
805.059021,1516
805.177917,1520
805.296814,1557
805.415649,1499
805.534546,1546
805.653442,1531
805.772278,1512
805.891113,1523
806.01001,1526
806.128906,1490
806.247742,1533
806.366577,1516
806.485413,1479
806.604309,1548
806.723145,1548
806.84198,1507
806.960876,1513
807.079712,1529
807.198486,1507
807.317383,1478
807.436218,1499
807.554993,1533
807.673889,1506
807.792725,1466
807.91156,1553
808.030396,1495
808.14917,1517
808.268005,1506
808.386841,1516
808.505676,1503
808.624451,1474
808.743286,1495
808.862122,1487
808.980896,1504
809.099731,1507
809.218506,1502
809.337341,1521
809.456116,1533
809.57489,1499
809.693726,1498
809.8125,1501
809.931274,1510
810.050049,1527
810.168884,1497
810.287659,1520
810.406372,1541
810.525269,1506
810.643982,1475
810.762756,1526
810.881531,1497
811.000305,1518
811.11908,1455
811.237854,1459
811.356567,1494
811.475403,1529
811.594116,1501
811.71283,1519
811.831604,1461
811.950378,1494
812.069153,1473
812.187927,1535
812.30658,1463
812.425415,1499
812.544128,1495
812.662781,1484
812.781616,1466
812.900269,1497
813.019043,1487
813.137756,1468
813.256531,1501
813.375244,1483
813.493896,1499
813.612671,1455
813.731384,1510
813.850037,1485
813.96875,1471
814.087524,1472
814.206238,1451
814.324951,1458
814.443604,1514
814.562256,1439
814.68103,1478
814.799683,1433
814.918335,1536
815.037109,1458
815.155762,1516
815.274475,1484
815.393188,1509
815.511841,1447
815.630554,1478
815.749146,1500
815.867859,1467
815.986572,1468
816.105164,1434
816.223877,1448
816.342529,1448
816.461182,1485
816.579895,1503
816.698486,1429
816.817139,1426
816.935791,1501
817.054504,1459
817.173096,1449
817.291748,1463
817.4104,1453
817.529053,1447
817.647644,1477
817.766235,1406
817.884949,1448
818.00354,1463
818.122192,1406
818.240845,1446
818.359436,1402
818.478088,1416
818.59668,1391
818.715271,1437
818.833923,1361
818.952515,1391
819.071106,1415
819.189758,1361
819.30835,1408
819.426941,1362
819.545532,1391
819.664124,1347
819.782715,1371
819.901306,1385
820.019897,1423
820.138489,1335
820.25708,1370
820.375671,1405
820.494202,1350
820.612732,1389
820.731384,1369
820.849915,1369
820.968506,1370
821.087097,1357
821.205627,1387
821.324158,1339
821.442749,1361
821.561279,1334
821.679871,1350
821.798401,1369
821.916931,1385
822.035461,1368
822.154053,1385
822.272583,1373
822.391174,1337
822.509583,1355
822.628174,1347
822.746704,1355
822.865234,1316
822.983765,1341
823.102295,1351
823.220825,1377
823.339294,1379
823.457825,1342
823.576355,1342
823.694824,1306
823.813354,1354
823.931885,1314
824.050354,1345
824.168884,1364
824.287354,1333
824.405823,1360
824.524353,1355
824.642822,1323
824.761353,1379
824.879822,1360
824.998291,1309
825.116699,1333
825.235291,1347
825.353699,1340
825.472168,1371
825.590637,1341
825.709106,1320
825.827576,1333
825.946045,1353
826.064453,1350
826.182983,1287
826.301392,1336
826.4198,1286
826.53833,1301
826.656738,1319
826.775208,1317
826.893677,1303
827.012024,1322
827.130493,1331
827.248962,1305
827.36731,1327
827.485779,1279
827.604248,1363
827.722595,1344
827.841064,1292
827.959412,1332
828.077942,1294
828.196289,1316
828.314636,1353
828.433105,1312
828.551514,1339
828.669861,1298
828.78833,1337
828.906677,1281
829.025085,1317
829.143433,1287
829.261841,1295
829.38031,1304
829.498657,1291
829.617004,1303
829.735413,1289
829.85376,1307
829.972107,1332
830.090515,1294
830.208862,1286
830.327209,1312
830.445557,1287
830.563904,1313
830.682312,1301
830.800659,1275
830.919006,1322
831.037354,1321
831.155701,1324
831.274048,1330
831.392395,1286
831.51062,1335
831.629028,1319
831.747314,1321
831.865662,1311
831.984009,1281
832.102356,1283
832.220642,1310
832.338928,1306
832.457275,1350
832.575623,1282
832.693909,1338
832.812134,1317
832.930481,1286
833.048828,1299
833.167114,1318
833.2854,1320
833.403687,1308
833.521973,1299
833.640259,1315
833.758545,1294
833.876831,1311
833.995056,1280
834.113281,1328
834.231628,1294
834.349915,1282
834.468201,1306
834.586426,1282
834.704651,1302
834.822998,1296
834.941162,1313
835.059448,1276
835.177673,1319
835.295959,1289
835.414246,1296
835.53241,1345
835.650635,1319
835.768921,1320
835.887146,1333
836.005371,1272
836.123596,1300
836.241821,1302
836.360046,1321
836.478271,1244
836.596497,1317
836.714722,1315
836.832886,1299
836.95105,1276
837.069336,1300
837.1875,1269
837.305725,1312
837.423889,1320
837.542053,1350
837.660339,1307
837.778503,1292
837.896667,1294
838.014832,1316
838.132996,1268
838.25116,1297
838.369385,1317
838.487488,1266
838.605713,1346
838.723877,1307
838.84198,1311
838.960205,1291
839.078308,1315
839.196472,1302
839.314636,1352
839.4328,1286
839.550964,1337
839.669067,1294
839.787231,1306
839.905396,1293
840.023499,1363
840.141602,1312
840.259766,1331
840.377869,1282
840.495972,1305
840.614136,1308
840.732239,1324
840.850342,1333
840.968445,1343
841.086548,1347
841.204651,1326
841.322754,1344
841.440918,1308
841.55896,1308
841.677002,1348
841.795166,1346
841.913208,1271
842.031311,1349
842.149353,1291
842.267456,1349
842.385498,1282
842.503601,1306
842.621643,1379
842.739746,1307
842.857788,1312
842.97583,1301
843.093933,1324
843.211975,1339
843.330017,1328
843.44812,1284
843.566101,1358
843.684204,1310
843.802246,1301
843.920227,1318
844.038269,1349
844.156311,1337
844.274292,1300
844.392395,1302
844.510376,1358
844.628357,1305
844.74646,1260
844.864441,1309
844.982422,1280
845.100403,1297
845.218384,1309
845.336426,1285
845.454468,1326
845.572449,1296
845.69043,1338
845.808411,1290
845.926453,1331
846.044373,1306
846.162354,1297
846.280396,1291
846.398315,1338
846.516296,1286
846.634216,1334
846.752197,1288
846.870178,1306
846.988098,1305
847.106079,1314
847.22406,1308
847.34198,1320
847.4599,1347
847.577881,1277
847.695801,1349
847.813782,1308
847.931641,1291
848.049561,1358
848.167603,1322
848.285461,1363
848.403381,1307
848.521362,1297
848.639221,1315
848.75708,1269
848.875,1276
848.99292,1331
849.110901,1304
849.22876,1330
849.34668,1301
849.464539,1344
849.582458,1324
849.700317,1327
849.818176,1290
849.936096,1310
850.053955,1318
850.171875,1319
850.289673,1296
850.407593,1278
850.525452,1361
850.643311,1314
850.761169,1319
850.878967,1314
850.996887,1301
851.114746,1334
851.232544,1291
851.350403,1341
851.468262,1301
851.58606,1335
851.703979,1333
851.821777,1355
851.939636,1362
852.057434,1312
852.175232,1303
852.293091,1315
852.410889,1326
852.528687,1304
852.646545,1343
852.764343,1350
852.88208,1330
852.999939,1321
853.117676,1330
853.235535,1320
853.353271,1328
853.471069,1295
853.588928,1320
853.706604,1338
853.824402,1330
853.9422,1314
854.059998,1320
854.177734,1318
854.295532,1290
854.413269,1355
854.531006,1314
854.648804,1328
854.766541,1299
854.884277,1314
855.002014,1326
855.119751,1312
855.237549,1357
855.355225,1290
855.473022,1303
855.590698,1300
855.708435,1317
855.826172,1316
855.943848,1343
856.061646,1283
856.179321,1309
856.296997,1318
856.414795,1317
856.53241,1357
856.650085,1326
856.767822,1329
856.885559,1318
857.003174,1302
857.120911,1330
857.238586,1381
857.356201,1329
857.473938,1342
857.591614,1365
857.709351,1327
857.826965,1331
857.944641,1368
858.062317,1329
858.179993,1320
858.297668,1311
858.415283,1359
858.532959,1314
858.650574,1370
858.768188,1337
858.885803,1332
859.003479,1359
859.121094,1324
859.23877,1321
859.356384,1313
859.473999,1327
859.591675,1313
859.709229,1335
859.826843,1331
859.944458,1309
860.062012,1302
860.179626,1282
860.297302,1321
860.414856,1314
860.532471,1309
860.650024,1361
860.767639,1316
860.885193,1287
861.002808,1336
861.120361,1304
861.237976,1313
861.35553,1318
861.473022,1308
861.590698,1310
861.708191,1314
861.825745,1316
861.943298,1341
862.060852,1324
862.178406,1286
862.295959,1320
862.413513,1269
862.531006,1340
862.64856,1298
862.766113,1340
862.883667,1265
863.00116,1328
863.118713,1311
863.236206,1319
863.353699,1298
863.471252,1310
863.588745,1293
863.706177,1323
863.82373,1308
863.941162,1299
864.058716,1323
864.176208,1333
864.29364,1342
864.411194,1286
864.528687,1321
864.646118,1341
864.763611,1289
864.881042,1330
864.998535,1312
865.116028,1273
865.233459,1334
865.350891,1307
865.468384,1340
865.585754,1303
865.703308,1352
865.820679,1292
865.938171,1281
866.055542,1314
866.173035,1302
866.290466,1301
866.407837,1291
866.52533,1286
866.6427,1327
866.760071,1301
866.877563,1264
866.994934,1314
867.112305,1365
867.229736,1264
867.347107,1314
867.464539,1327
867.58197,1323
867.699341,1312
867.81665,1334
867.934082,1300
868.051453,1307
868.168823,1305
868.286194,1315
868.403564,1316
868.520935,1310
868.638306,1332
868.755676,1327
868.872986,1324
868.990295,1310
869.107727,1327
869.225037,1326
869.342346,1356
869.459717,1342
869.577026,1313
869.694336,1321
869.811707,1382
869.929016,1317
870.046326,1357
870.163635,1331
870.280945,1328
870.398254,1338
870.515564,1333
870.632812,1344
870.750183,1378
870.867432,1351
870.984741,1327
871.102051,1331
871.219299,1368
871.336609,1348
871.453918,1354
871.571106,1387
871.688416,1371
871.805664,1332
871.922852,1371
872.040222,1334
872.157471,1380
872.274719,1353
872.391968,1377
872.509155,1372
872.626465,1362
872.743652,1372
872.860962,1373
872.978149,1367
873.095337,1337
873.212646,1349
873.329834,1312
873.44696,1383
873.564209,1355
873.681396,1351
873.798645,1365
873.915894,1370
874.03302,1381
874.150208,1348
874.267456,1354
874.384583,1356
874.501831,1393
874.618958,1340
874.736145,1377
874.853333,1356
874.970459,1328
875.087646,1359
875.204834,1369
875.32196,1360
875.439148,1355
875.556274,1345
875.673401,1400
875.790527,1351
875.907715,1378
876.024841,1322
876.141968,1357
876.259094,1304
876.376282,1351
876.493347,1349
876.610474,1363
876.7276,1368
876.844727,1383
876.961853,1362
877.078918,1385
877.195984,1392
877.313171,1397
877.430237,1322
877.547302,1352
877.664368,1348
877.781433,1359
877.898499,1363
878.015625,1310
878.13269,1341
878.249695,1372
878.366821,1342
878.483887,1346
878.600952,1370
878.717957,1351
878.834961,1363
878.952087,1311
879.069092,1350
879.186157,1341
879.303162,1342
879.420227,1358
879.537231,1329
879.654236,1326
879.77124,1315
879.888306,1342
880.005249,1306
880.122314,1301
880.239319,1292
880.356323,1345
880.473328,1341
880.590271,1320
880.707275,1331
880.824341,1283
880.941284,1333
881.058228,1361
881.175232,1352
881.292236,1340
881.40918,1356
881.526123,1361
881.643066,1339
881.760071,1363
881.877014,1311
881.993958,1319
882.11084,1327
882.227783,1323
882.344727,1352
882.46167,1305
882.578613,1329
882.695618,1350
882.812439,1319
882.929382,1353
883.046326,6767
883.163208,1540
883.280151,1337
883.397034,1314
883.513916,1319
883.630798,1357
883.747742,1302
883.864563,1334
883.981506,1349
884.098389,1330
884.21521,1396
884.332153,1389
884.448975,1340
884.565796,1380
884.682678,1358
884.7995,1408
884.916443,1378
885.033264,1403
885.150085,1428
885.266968,1446
885.383789,1416
885.500671,1482
885.617493,1423
885.734314,1473
885.851196,1429
885.967896,1425
886.084717,1379
886.201599,1419
886.318359,1421
886.435181,1469
886.552002,1401
886.668762,1422
886.785645,1388
886.902344,1433
887.019165,1425
887.135925,1404
887.252747,1389
887.369446,1407
887.486267,1366
887.603027,1380
887.719788,1398
887.836548,1396
887.953247,1377
888.070068,1371
888.186829,1348
888.303528,1389
888.420288,1361
888.536987,1311
888.653687,1301
888.770447,1352
888.887146,1323
889.003967,1346
889.120667,1348
889.237305,1362
889.354065,1341
889.470703,1352
889.587463,1314
889.704163,1367
889.820862,1344
889.937561,1368
890.054199,1365
890.170837,1367
890.287598,1295
890.404236,1323
890.520874,1305
890.637634,1365
890.754211,1333
890.87085,1338
890.987549,1322
891.104187,1328
891.220886,1357
891.337463,1342
891.454102,1343
891.57074,1399
891.687378,1350
891.804077,1340
891.920654,1342
892.037231,1348
892.15387,1341
892.270447,1332
892.387085,1384
892.503723,1334
892.6203,1356
892.736877,1345
892.853516,1355
892.970032,1355
893.08667,1357
893.203186,1388
893.319763,1343
893.43634,1401
893.552917,1319
893.669556,1395
893.786011,1347
893.902588,1352
894.019165,1344
894.135681,1371
894.252197,1341
894.368835,1367
894.485291,1391
894.601868,1385
894.718384,1369
894.8349,1366
894.951355,1375
895.067932,1379
895.184448,1339
895.300964,1357
895.417419,1353
895.533936,1327
895.650452,1359
895.766907,1363
895.883423,1336
895.999878,1362
896.116333,1366
896.232849,1354
896.349304,1362
896.465759,1407
896.582214,1344
896.698669,1378
896.815125,1371
896.931641,1360
897.048035,1378
897.164551,1365
897.280884,1368
897.397339,1401
897.513794,1363
897.630249,1404
897.746582,1366
897.863098,1385
897.979431,1376
898.095886,1411
898.212341,1374
898.328674,1381
898.445129,1412
898.561462,1375
898.677795,1367
898.794312,1351
898.910645,1358
899.026978,1341
899.143433,1384
899.259766,1412
899.37616,1345
899.492493,1402
899.608765,1377
899.725159,1349
899.841553,1365
899.957947,1389
900.07428,1371
900.190552,1393
900.306946,1396
900.423157,1345
900.53949,1384
900.655884,1381
900.772156,1419
900.888489,1387
901.004822,1381
901.121033,1365
901.237366,1375
901.353699,1389
901.46991,1387
901.586304,1421
901.702515,1384
901.818787,1375
901.93512,1370
902.051331,1393
902.167603,1391
902.283875,1447
902.400085,1422
902.516418,1434
902.632629,1432
902.74884,1423
902.865112,1460
902.981384,1403
903.097595,1428
903.213867,1418
903.330017,1442
903.446289,1414
903.5625,1421
903.67865,1439
903.794922,1455
903.911072,1392
904.027344,1376
904.143494,1407
904.259705,1427
904.375916,1375
904.492065,1402
904.608215,1416
904.724426,1407
904.840576,1348
904.956726,1397
905.072876,1400
905.189087,1387
905.305176,1405
905.421387,1388
905.537537,1401
905.653687,1418
905.769775,1371
905.885925,1409
906.002014,1431
906.118164,1377
906.234314,1379
906.350403,1405
906.466492,1417
906.582642,1390
906.69873,1412
906.814758,1360
906.930908,1355
907.046936,1364
907.163086,1375
907.279175,1402
907.395264,1394
907.511353,1399
907.62738,1391
907.743408,1367
907.859497,1421
907.975525,1362
908.091553,1369
908.207703,1387
908.32373,1385
908.439758,1410
908.555786,1381
908.671814,1425
908.787842,1366
908.90387,1425
909.019775,1406
909.135864,1412
909.251892,1402
909.367859,1412
909.483826,1464
909.599854,1402
909.715881,1411
909.831848,1423
909.947815,1418
910.063782,1390
910.179749,1433
910.295776,1405
910.411743,1431
910.527649,1384
910.643616,1424
910.759583,1390
910.875488,1438
910.991455,1365
911.107361,1386
911.223267,1391
911.339294,1406
911.4552,1385
911.571106,1383
911.687073,1434
911.802979,1400
911.918823,1419
912.034729,1442
912.150635,1380
912.266602,1413
912.382446,1403
912.498352,1356
912.614197,1391
912.730103,1386
912.846008,1428
792.44574,2081
792.56488,2082
792.68396,2150
792.80304,2016
792.92218,1991
793.041199,1982
793.160339,1948
793.279419,1964
793.398499,1890
793.517578,1925
793.636658,1922
793.755737,1879
793.874817,1849
793.993896,1896
794.112976,1867
794.232056,1835
794.351074,1848
794.470215,1830
794.589233,1807
794.708313,1804
794.827393,1742
794.946411,1759
795.065552,1774
795.18457,1780
795.303589,1775
795.422668,1746
795.541687,1719
795.660767,1811
795.779846,1701
795.898865,1735
796.017883,1698
796.136963,1701
796.255981,1706
796.375061,1669
796.49408,1637
796.613037,1720
796.732117,1633
796.851135,1682
796.970154,1715
797.089233,1639
797.208191,1655
797.327271,1681
797.446228,1686
797.565186,1698
797.684265,1692
797.803223,1630
797.922241,1641
798.04126,1620
798.160278,1633
798.279297,1663
798.398315,1593
798.517273,1659
798.636292,1607
798.75531,1588
798.874268,1623
798.993286,1607
799.112244,1625
799.231323,1598
799.350281,1626
799.469238,1621
799.588257,1584
799.707153,1590
799.826111,1577
799.945129,1578
800.064087,1602
800.183044,1577
800.302063,1629
800.421021,1588
800.539978,1533
800.658936,1603
800.777893,1645
800.896912,1596
801.015747,1639
801.134705,1545
801.253723,1572
801.37262,1596
801.491638,1603
801.610535,1584
801.729492,1555
801.84845,1588
801.967407,1573
802.086243,1576
802.205261,1588
802.324158,1547
802.443115,1552
802.562073,1586
802.680969,1573
802.799927,1566
802.918762,1621
803.037659,1528
803.156677,1584
803.275574,1512
803.39447,1604
803.513428,1569
803.632263,1556
803.751221,1538
803.870117,1523
803.989014,1586
804.107971,1535
804.226746,1582
804.345642,1564
804.4646,1547
804.583496,1531
804.702393,1603
804.821228,1564
804.940125,1535
805.059021,1545
805.177917,1566
805.296814,1552
805.415649,1559
805.534546,1528
805.653442,1542
805.772278,1536
805.891113,1530
806.01001,1571
806.128906,1583
806.247742,1542
806.366577,1554
806.485413,1585
806.604309,1524
806.723145,1534
806.84198,1568
806.960876,1505
807.079712,1521
807.198486,1527
807.317383,1540
807.436218,1503
807.554993,1518
807.673889,1526
807.792725,1550
807.91156,1537
808.030396,1524
808.14917,1525
808.268005,1508
808.386841,1531
808.505676,1532
808.624451,1569
808.743286,1547
808.862122,1561
808.980896,1583
809.099731,1551
809.218506,1556
809.337341,1530
809.456116,1529
809.57489,1560
809.693726,1589
809.8125,1540
809.931274,1534
810.050049,1551
810.168884,1546
810.287659,1522
810.406372,1521
810.525269,1547
810.643982,1545
810.762756,1528
810.881531,1525
811.000305,1530
811.11908,1564
811.237854,1544
811.356567,1544
811.475403,1529
811.594116,1542
811.71283,1519
811.831604,1516
811.950378,1542
812.069153,1527
812.187927,1564
812.30658,1500
812.425415,1501
812.544128,1551
812.662781,1566
812.781616,1528
812.900269,1528
813.019043,1534
813.137756,1509
813.256531,1509
813.375244,1516
813.493896,1501
813.612671,1496
813.731384,1495
813.850037,1488
813.96875,1527
814.087524,1499
814.206238,1497
814.324951,1493
814.443604,1489
814.562256,1540
814.68103,1500
814.799683,1508
814.918335,1489
815.037109,1507
815.155762,1542
815.274475,1482
815.393188,1504
815.511841,1496
815.630554,1498
815.749146,1498
815.867859,1474
815.986572,1530
816.105164,1450
816.223877,1438
816.342529,1484
816.461182,1490
816.579895,1508
816.698486,1462
816.817139,1480
816.935791,1520
817.054504,1495
817.173096,1468
817.291748,1524
817.4104,1478
817.529053,1446
817.647644,1457
817.766235,1446
817.884949,1510
818.00354,1445
818.122192,1455
818.240845,1477
818.359436,1379
818.478088,1428
818.59668,1424
818.715271,1451
818.833923,1410
818.952515,1398
819.071106,1397
819.189758,1418
819.30835,1359
819.426941,1405
819.545532,1390
819.664124,1363
819.782715,1428
819.901306,1371
820.019897,1389
820.138489,1386
820.25708,1400
820.375671,1461
820.494202,1380
820.612732,1382
820.731384,1340
820.849915,1378
820.968506,1383
821.087097,1400
821.205627,1420
821.324158,1388
821.442749,1393
821.561279,1388
821.679871,1375
821.798401,1334
821.916931,1381
822.035461,1400
822.154053,1378
822.272583,1379
822.391174,1392
822.509583,1393
822.628174,1384
822.746704,1385
822.865234,1359
822.983765,1380
823.102295,1358
823.220825,1355
823.339294,1370
823.457825,1350
823.576355,1404
823.694824,1348
823.813354,1343
823.931885,1385
824.050354,1374
824.168884,1357
824.287354,1366
824.405823,1389
824.524353,1359
824.642822,1350
824.761353,1335
824.879822,1386
824.998291,1394
825.116699,1384
825.235291,1389
825.353699,1387
825.472168,1352
825.590637,1372
825.709106,1360
825.827576,1365
825.946045,1336
826.064453,1319
826.182983,1334
826.301392,1326
826.4198,1373
826.53833,1401
826.656738,1311
826.775208,1363
826.893677,1319
827.012024,1374
827.130493,1313
827.248962,1329
827.36731,1329
827.485779,1370
827.604248,1314
827.722595,1315
827.841064,1320
827.959412,1327
828.077942,1351
828.196289,1353
828.314636,1321
828.433105,1306
828.551514,1350
828.669861,1337
828.78833,1315
828.906677,1314
829.025085,1313
829.143433,1302
829.261841,1334
829.38031,1360
829.498657,1305
829.617004,1372
829.735413,1301
829.85376,1337
829.972107,1347
830.090515,1377
830.208862,1337
830.327209,1330
830.445557,1274
830.563904,1321
830.682312,1375
830.800659,1290
830.919006,1316
831.037354,1333
831.155701,1352
831.274048,1363
831.392395,1355
831.51062,1345
831.629028,1339
831.747314,1319
831.865662,1353
831.984009,1343
832.102356,1294
832.220642,1318
832.338928,1338
832.457275,1339
832.575623,1319
832.693909,1333
832.812134,1310
832.930481,1351
833.048828,1367
833.167114,1330
833.2854,1321
833.403687,1352
833.521973,1321
833.640259,1333
833.758545,1306
833.876831,1326
833.995056,1357
834.113281,1341
834.231628,1342
834.349915,1313
834.468201,1352
834.586426,1292
834.704651,1337
834.822998,1323
834.941162,1340
835.059448,1335
835.177673,1333
835.295959,1342
835.414246,1351
835.53241,1318
835.650635,1355
835.768921,1349
835.887146,1335
836.005371,1321
836.123596,1307
836.241821,1348
836.360046,1304
836.478271,1359
836.596497,1334
836.714722,1297
836.832886,1309
836.95105,1321
837.069336,1352
837.1875,1314
837.305725,1330
837.423889,1339
837.542053,1302
837.660339,1345
837.778503,1346
837.896667,1329
838.014832,1342
838.132996,1314
838.25116,1337
838.369385,1341
838.487488,1344
838.605713,1308
838.723877,1308
838.84198,1344
838.960205,1278
839.078308,1326
839.196472,1343
839.314636,1288
839.4328,1351
839.550964,1335
839.669067,1319
839.787231,1318
839.905396,1362
840.023499,1318
840.141602,1327
840.259766,1327
840.377869,1355
840.495972,1282
840.614136,1369
840.732239,1356
840.850342,1325
840.968445,1361
841.086548,1331
841.204651,1344
841.322754,1328
841.440918,1318
841.55896,1345
841.677002,1347
841.795166,1350
841.913208,1327
842.031311,1358
842.149353,1346
842.267456,1370
842.385498,1347
842.503601,1337
842.621643,1364
842.739746,1330
842.857788,1341
842.97583,1354
843.093933,1312
843.211975,1306
843.330017,1367
843.44812,1369
843.566101,1369
843.684204,1335
843.802246,1330
843.920227,1342
844.038269,1342
844.156311,1308
844.274292,1338
844.392395,1345
844.510376,1369
844.628357,1362
844.74646,1341
844.864441,1313
844.982422,1298
845.100403,1355
845.218384,1328
845.336426,1326
845.454468,1373
845.572449,1300
845.69043,1327
845.808411,1344
845.926453,1329
846.044373,1325
846.162354,1284
846.280396,1338
846.398315,1339
846.516296,1354
846.634216,1318
846.752197,1329
846.870178,1305
846.988098,1292
847.106079,1326
847.22406,1324
847.34198,1335
847.4599,1293
847.577881,1336
847.695801,1349
847.813782,1354
847.931641,1308
848.049561,1320
848.167603,1321
848.285461,1329
848.403381,1299
848.521362,1316
848.639221,1326
848.75708,1328
848.875,1331
848.99292,1351
849.110901,1351
849.22876,1328
849.34668,1321
849.464539,1319
849.582458,1335
849.700317,1365
849.818176,1348
849.936096,1353
850.053955,1347
850.171875,1316
850.289673,1364
850.407593,1346
850.525452,1324
850.643311,1305
850.761169,1322
850.878967,1311
850.996887,1316
851.114746,1356
851.232544,1369
851.350403,1306
851.468262,1307
851.58606,1342
851.703979,1322
851.821777,1339
851.939636,1323
852.057434,1376
852.175232,1348
852.293091,1359
852.410889,1314
852.528687,1374
852.646545,1367
852.764343,1344
852.88208,1368
852.999939,1371
853.117676,1395
853.235535,1338
853.353271,1360
853.471069,1350
853.588928,1374
853.706604,1370
853.824402,1360
853.9422,1352
854.059998,1348
854.177734,1356
854.295532,1339
854.413269,1344
854.531006,1348
854.648804,1330
854.766541,1350
854.884277,1335
855.002014,1361
855.119751,1318
855.237549,1345
855.355225,1347
855.473022,1366
855.590698,1360
855.708435,1368
855.826172,1317
855.943848,1352
856.061646,1355
856.179321,1332
856.296997,1345
856.414795,1354
856.53241,1338
856.650085,1403
856.767822,1308
856.885559,1411
857.003174,1356
857.120911,1338
857.238586,1343
857.356201,1359
857.473938,1336
857.591614,1372
857.709351,1349
857.826965,1339
857.944641,1343
858.062317,1356
858.179993,1371
858.297668,1366
858.415283,1399
858.532959,1326
858.650574,1354
858.768188,1381
858.885803,1330
859.003479,1310
859.121094,1376
859.23877,1357
859.356384,1344
859.473999,1319
859.591675,1337
859.709229,1334
859.826843,1358
859.944458,1308
860.062012,1343
860.179626,1321
860.297302,1370
860.414856,1322
860.532471,1362
860.650024,1341
860.767639,1377
860.885193,1317
861.002808,1349
861.120361,1322
861.237976,1317
861.35553,1324
861.473022,1312
861.590698,1336
861.708191,1363
861.825745,1357
861.943298,1309
862.060852,1389
862.178406,1347
862.295959,1325
862.413513,1314
862.531006,1344
862.64856,1345
862.766113,1337
862.883667,1338
863.00116,1333
863.118713,1353
863.236206,1331
863.353699,1359
863.471252,1292
863.588745,1367
863.706177,1328
863.82373,1300
863.941162,1354
864.058716,1304
864.176208,1332
864.29364,1305
864.411194,1358
864.528687,1327
864.646118,1332
864.763611,1347
864.881042,1287
864.998535,1348
865.116028,1332
865.233459,1319
865.350891,1318
865.468384,1290
865.585754,1310
865.703308,1329
865.820679,1320
865.938171,1372
866.055542,1354
866.173035,1322
866.290466,1385
866.407837,1331
866.52533,1361
866.6427,1341
866.760071,1329
866.877563,1352
866.994934,1337
867.112305,1337
867.229736,1327
867.347107,1320
867.464539,1351
867.58197,1325
867.699341,1350
867.81665,1354
867.934082,1304
868.051453,1327
868.168823,1354
868.286194,1364
868.403564,1349
868.520935,1349
868.638306,1378
868.755676,1335
868.872986,1378
868.990295,1328
869.107727,1357
869.225037,1374
869.342346,1338
869.459717,1360
869.577026,1365
869.694336,1357
869.811707,1341
869.929016,1387
870.046326,1371
870.163635,1364
870.280945,1430
870.398254,1362
870.515564,1380
870.632812,1394
870.750183,1372
870.867432,1356
870.984741,1372
871.102051,1374
871.219299,1401
871.336609,1383
871.453918,1423
871.571106,1366
871.688416,1402
871.805664,1370
871.922852,1348
872.040222,1394
872.157471,1431
872.274719,1386
872.391968,1388
872.509155,1359
872.626465,1390
872.743652,1390
872.860962,1390
872.978149,1391
873.095337,1383
873.212646,1393
873.329834,1371
873.44696,1379
873.564209,1359
873.681396,1383
873.798645,1387
873.915894,1381
874.03302,1353
874.150208,1374
874.267456,1423
874.384583,1396
874.501831,1437
874.618958,1352
874.736145,1354
874.853333,1390
874.970459,1384
875.087646,1375
875.204834,1350
875.32196,1410
875.439148,1353
875.556274,1369
875.673401,1394
875.790527,1396
875.907715,1354
876.024841,1415
876.141968,1448
876.259094,1415
876.376282,1336
876.493347,1368
876.610474,1343
876.7276,1364
876.844727,1384
876.961853,1397
877.078918,1374
877.195984,1333
877.313171,1360
877.430237,1315
877.547302,1383
877.664368,1334
877.781433,1396
877.898499,1373
878.015625,1377
878.13269,1371
878.249695,1384
878.366821,1361
878.483887,1386
878.600952,1398
878.717957,1359
878.834961,1363
878.952087,1397
879.069092,1395
879.186157,1338
879.303162,1373
879.420227,1354
879.537231,1371
879.654236,1354
879.77124,1383
879.888306,1381
880.005249,1370
880.122314,1379
880.239319,1357
880.356323,1366
880.473328,1373
880.590271,1324
880.707275,1390
880.824341,1342
880.941284,1378
881.058228,1355
881.175232,1364
881.292236,1349
881.40918,1348
881.526123,1333
881.643066,1369
881.760071,1337
881.877014,1348
881.993958,1382
882.11084,1369
882.227783,1378
882.344727,1378
882.46167,1359
882.578613,1321
882.695618,1362
882.812439,1330
882.929382,1333
883.046326,1363
883.163208,1350
883.280151,1363
883.397034,1341
883.513916,1394
883.630798,1338
883.747742,1360
883.864563,1346
883.981506,1412
884.098389,1372
884.21521,1363
884.332153,1404
884.448975,1383
884.565796,1369
884.682678,1355
884.7995,1391
884.916443,1424
885.033264,1425
885.150085,1451
885.266968,1470
885.383789,1430
885.500671,1479
885.617493,1449
885.734314,1421
885.851196,1471
885.967896,1438
886.084717,1438
886.201599,1441
886.318359,1452
886.435181,1451
886.552002,1425
886.668762,1415
886.785645,1407
886.902344,1444
887.019165,1440
887.135925,1424
887.252747,1422
887.369446,1416
887.486267,1442
887.603027,1375
887.719788,1431
887.836548,1391
887.953247,1422
888.070068,1399
888.186829,1389
888.303528,1386
888.420288,1375
888.536987,1368
888.653687,1390
888.770447,1422
888.887146,1409
889.003967,1416
889.120667,1352
889.237305,1360
889.354065,1369
889.470703,1335
889.587463,1381
889.704163,1425
889.820862,1342
889.937561,1396
890.054199,1351
890.170837,1371
890.287598,1363
890.404236,1418
890.520874,1344
890.637634,1381
890.754211,1388
890.87085,1374
890.987549,1399
891.104187,1441
891.220886,1374
891.337463,1390
891.454102,1363
891.57074,1385
891.687378,1379
891.804077,1383
891.920654,1402
892.037231,1399
892.15387,1365
892.270447,1395
892.387085,1374
892.503723,1351
892.6203,1392
892.736877,1373
892.853516,1355
892.970032,1440
893.08667,1370
893.203186,1371
893.319763,1418
893.43634,1392
893.552917,1366
893.669556,1383
893.786011,1388
893.902588,1414
894.019165,1405
894.135681,1375
894.252197,1417
894.368835,1390
894.485291,1409
894.601868,1373
894.718384,1432
894.8349,1375
894.951355,1387
895.067932,1379
895.184448,1369
895.300964,1406
895.417419,1414
895.533936,1422
895.650452,1401
895.766907,1386
895.883423,1387
895.999878,1374
896.116333,1409
896.232849,1382
896.349304,1409
896.465759,1385
896.582214,1403
896.698669,1359
896.815125,1378
896.931641,1407
897.048035,1381
897.164551,1369
897.280884,1412
897.397339,1394
897.513794,1384
897.630249,1411
897.746582,1392
897.863098,1391
897.979431,1397
898.095886,1431
898.212341,1402
898.328674,1421
898.445129,1387
898.561462,1376
898.677795,1393
898.794312,1387
898.910645,1388
899.026978,1414
899.143433,1404
899.259766,1386
899.37616,1407
899.492493,1400
899.608765,1380
899.725159,1427
899.841553,1426
899.957947,1389
900.07428,1467
900.190552,1460
900.306946,1376
900.423157,1436
900.53949,1444
900.655884,1396
900.772156,1376
900.888489,1375
901.004822,1411
901.121033,1419
901.237366,1407
901.353699,1410
901.46991,1398
901.586304,1457
901.702515,1389
901.818787,1449
901.93512,1418
902.051331,1456
902.167603,1439
902.283875,1445
902.400085,1409
902.516418,1452
902.632629,1459
902.74884,1462
902.865112,1476
902.981384,1473
903.097595,1471
903.213867,1470
903.330017,1443
903.446289,1469
903.5625,1427
903.67865,1453
903.794922,1474
903.911072,1423
904.027344,1481
904.143494,1459
904.259705,1442
904.375916,1439
904.492065,1399
904.608215,1425
904.724426,1418
904.840576,1465
904.956726,1432
905.072876,1441
905.189087,1414
905.305176,1417
905.421387,1459
905.537537,1456
905.653687,1459
905.769775,1394
905.885925,1426
906.002014,1419
906.118164,1429
906.234314,1401
906.350403,1448
906.466492,1446
906.582642,1412
906.69873,1454
906.814758,1441
906.930908,1408
907.046936,1416
907.163086,1445
907.279175,1437
907.395264,1490
907.511353,1434
907.62738,1455
907.743408,1429
907.859497,1438
907.975525,1419
908.091553,1427
908.207703,1399
908.32373,1443
908.439758,1452
908.555786,1437
908.671814,1437
908.787842,1422
908.90387,1427
909.019775,1405
909.135864,1454
909.251892,1428
909.367859,1449
909.483826,1451
909.599854,1445
909.715881,1415
909.831848,1428
909.947815,1427
910.063782,1430
910.179749,1402
910.295776,1461
910.411743,1427
910.527649,1439
910.643616,1429
910.759583,1418
910.875488,1459
910.991455,1422
911.107361,1438
911.223267,1453
911.339294,1440
911.4552,1413
911.571106,1425
911.687073,1403
911.802979,1433
911.918823,1398
912.034729,1409
912.150635,1467
912.266602,1410
912.382446,1468
912.498352,1419
912.614197,1429
912.730103,1437
912.846008,1426
792.44574,2108
792.56488,2120
792.68396,2068
792.80304,2067
792.92218,1980
793.041199,1987
793.160339,1988
793.279419,1989
793.398499,1899
793.517578,1880
793.636658,1887
793.755737,1969
793.874817,1934
793.993896,1869
794.112976,1829
794.232056,1867
794.351074,1808
794.470215,1786
794.589233,1845
794.708313,1826
794.827393,1782
794.946411,1799
795.065552,1768
795.18457,1793
795.303589,1737
795.422668,1805
795.541687,1745
795.660767,1766
795.779846,1713
795.898865,1772
796.017883,1706
796.136963,1739
796.255981,1731
796.375061,1734
796.49408,1671
796.613037,1667
796.732117,1672
796.851135,1680
796.970154,1667
797.089233,1639
797.208191,1679
797.327271,1676
797.446228,1668
797.565186,1634
797.684265,1669
797.803223,1644
797.922241,1631
798.04126,1692
798.160278,1619
798.279297,1653
798.398315,1625
798.517273,1625
798.636292,1639
798.75531,1615
798.874268,1631
798.993286,1610
799.112244,1576
799.231323,1610
799.350281,1635
799.469238,1625
799.588257,1603
799.707153,1586
799.826111,1634
799.945129,1574
800.064087,1620
800.183044,1605
800.302063,1635
800.421021,1596
800.539978,1627
800.658936,1596
800.777893,1623
800.896912,1595
801.015747,1609
801.134705,1614
801.253723,1596
801.37262,1573
801.491638,1646
801.610535,1556
801.729492,1630
801.84845,1548
801.967407,1524
802.086243,1588
802.205261,1601
802.324158,1587
802.443115,1586
802.562073,1547
802.680969,1590
802.799927,1550
802.918762,1590
803.037659,1573
803.156677,1598
803.275574,1620
803.39447,1589
803.513428,1579
803.632263,1612
803.751221,1575
803.870117,1565
803.989014,1550
804.107971,1582
804.226746,1547
804.345642,1572
804.4646,1555
804.583496,1538
804.702393,1543
804.821228,1543
804.940125,1561
805.059021,1541
805.177917,1523
805.296814,1599
805.415649,1537
805.534546,1582
805.653442,1542
805.772278,1582
805.891113,1575
806.01001,1562
806.128906,1564
806.247742,1525
806.366577,1555
806.485413,1546
806.604309,1545
806.723145,1568
806.84198,1567
806.960876,1568
807.079712,1572
807.198486,1563
807.317383,1569
807.436218,1563
807.554993,1559
807.673889,1569
807.792725,1558
807.91156,1563
808.030396,1585
808.14917,1531
808.268005,1565
808.386841,1544
808.505676,1518
808.624451,1552
808.743286,1571
808.862122,1504
808.980896,1538
809.099731,1526
809.218506,1513
809.337341,1521
809.456116,1509
809.57489,1573
809.693726,1551
809.8125,1491
809.931274,1497
810.050049,1533
810.168884,1512
810.287659,1530
810.406372,1532
810.525269,1548
810.643982,1574
810.762756,1521
810.881531,1529
811.000305,1573
811.11908,1551
811.237854,1527
811.356567,1538
811.475403,1569
811.594116,1521
811.71283,1539
811.831604,1507
811.950378,1553
812.069153,1527
812.187927,1547
812.30658,1562
812.425415,1543
812.544128,1548
812.662781,1501
812.781616,1552
812.900269,1555
813.019043,1522
813.137756,1507
813.256531,1556
813.375244,1543
813.493896,1522
813.612671,1535
813.731384,1565
813.850037,1520
813.96875,1525
814.087524,1534
814.206238,1517
814.324951,1529
814.443604,1497
814.562256,1524
814.68103,1538
814.799683,1551
814.918335,1531
815.037109,1517
815.155762,1490
815.274475,1506
815.393188,1516
815.511841,1531
815.630554,1494
815.749146,1507
815.867859,1480
815.986572,1545
816.105164,1496
816.223877,1503
816.342529,1475
816.461182,1500
816.579895,1468
816.698486,1521
816.817139,1536
816.935791,1510
817.054504,1534
817.173096,1492
817.291748,1503
817.4104,1483
817.529053,1517
817.647644,1493
817.766235,1440
817.884949,1488
818.00354,1480
818.122192,1486
818.240845,1455
818.359436,1475
818.478088,1474
818.59668,1463
818.715271,1444
818.833923,1436
818.952515,1434
819.071106,1439
819.189758,1421
819.30835,1425
819.426941,1363
819.545532,1386
819.664124,1410
819.782715,1450
819.901306,1446
820.019897,1396
820.138489,1389
820.25708,1430
820.375671,1388
820.494202,1406
820.612732,1439
820.731384,1385
820.849915,1396
820.968506,1441
821.087097,1417
821.205627,1404
821.324158,1408
821.442749,1398
821.561279,1380
821.679871,1306
821.798401,1413
821.916931,1410
822.035461,1370
822.154053,1355
822.272583,1396
822.391174,1384
822.509583,1393
822.628174,1417
822.746704,1411
822.865234,1343
822.983765,1384
823.102295,1393
823.220825,1359
823.339294,1407
823.457825,1377
823.576355,1362
823.694824,1403
823.813354,1407
823.931885,1395
824.050354,1408
824.168884,1436
824.287354,1365
824.405823,1373
824.524353,1383
824.642822,1386
824.761353,1415
824.879822,1395
824.998291,1349
825.116699,1375
825.235291,1392
825.353699,1390
825.472168,1360
825.590637,1365
825.709106,1401
825.827576,1340
825.946045,1372
826.064453,1366
826.182983,1343
826.301392,1329
826.4198,1338
826.53833,1358
826.656738,1353
826.775208,1336
826.893677,1365
827.012024,1379
827.130493,1384
827.248962,1357
827.36731,1364
827.485779,1375
827.604248,1375
827.722595,1376
827.841064,1349
827.959412,1347
828.077942,1337
828.196289,1369
828.314636,1336
828.433105,1366
828.551514,1354
828.669861,1357
828.78833,1346
828.906677,1361
829.025085,1331
829.143433,1328
829.261841,1347
829.38031,1372
829.498657,1330
829.617004,1353
829.735413,1323
829.85376,1343
829.972107,1350
830.090515,1340
830.208862,1323
830.327209,1319
830.445557,1331
830.563904,1326
830.682312,1320
830.800659,1335
830.919006,1355
831.037354,1303
831.155701,1346
831.274048,1335
831.392395,1320
831.51062,1373
831.629028,1346
831.747314,1335
831.865662,1309
831.984009,1338
832.102356,1329
832.220642,1378
832.338928,1366
832.457275,1352
832.575623,1303
832.693909,1350
832.812134,1315
832.930481,1305
833.048828,1316
833.167114,1358
833.2854,1326
833.403687,1369
833.521973,1350
833.640259,1337
833.758545,1303
833.876831,1296
833.995056,1322
834.113281,1357
834.231628,1338
834.349915,1370
834.468201,1337
834.586426,1345
834.704651,1333
834.822998,1346
834.941162,1321
835.059448,1304
835.177673,1337
835.295959,1346
835.414246,1381
835.53241,1339
835.650635,1375
835.768921,1335
835.887146,1330
836.005371,1301
836.123596,1345
836.241821,1281
836.360046,1365
836.478271,1322
836.596497,1339
836.714722,1357
836.832886,1346
836.95105,1351
837.069336,1325
837.1875,1329
837.305725,1365
837.423889,1332
837.542053,1359
837.660339,1286
837.778503,1346
837.896667,1336
838.014832,1349
838.132996,1337
838.25116,1333
838.369385,1378
838.487488,1334
838.605713,1326
838.723877,1325
838.84198,1385
838.960205,1330
839.078308,1372
839.196472,1342
839.314636,1329
839.4328,1362
839.550964,1342
839.669067,1331
839.787231,1319
839.905396,1361
840.023499,1354
840.141602,1362
840.259766,1343
840.377869,1332
840.495972,1346
840.614136,1379
840.732239,1350
840.850342,1328
840.968445,1403
841.086548,1353
841.204651,1351
841.322754,1352
841.440918,1323
841.55896,1392
841.677002,1313
841.795166,1399
841.913208,1352
842.031311,1383
842.149353,1397
842.267456,1349
842.385498,1345
842.503601,1353
842.621643,1326
842.739746,1364
842.857788,1328
842.97583,1353
843.093933,1328
843.211975,1332
843.330017,1350
843.44812,1338
843.566101,1388
843.684204,1317
843.802246,1348
843.920227,1311
844.038269,1350
844.156311,1330
844.274292,1326
844.392395,1361
844.510376,1356
844.628357,1356
844.74646,1331
844.864441,1351
844.982422,1304
845.100403,1334
845.218384,1339
845.336426,1314
845.454468,1351
845.572449,1346
845.69043,1326
845.808411,1356
845.926453,1314
846.044373,1353
846.162354,1332
846.280396,1355
846.398315,1360
846.516296,1310
846.634216,1334
846.752197,1346
846.870178,1321
846.988098,1335
847.106079,1340
847.22406,1315
847.34198,1328
847.4599,1361
847.577881,1322
847.695801,1311
847.813782,1383
847.931641,1359
848.049561,1340
848.167603,1357
848.285461,1340
848.403381,1300
848.521362,1328
848.639221,1373
848.75708,1357
848.875,1354
848.99292,1357
849.110901,1334
849.22876,1309
849.34668,1351
849.464539,1324
849.582458,1343
849.700317,1342
849.818176,1325
849.936096,1349
850.053955,1332
850.171875,1326
850.289673,1336
850.407593,1329
850.525452,1336
850.643311,1352
850.761169,1343
850.878967,1329
850.996887,1314
851.114746,1323
851.232544,1336
851.350403,1337
851.468262,1345
851.58606,1307
851.703979,1347
851.821777,1364
851.939636,1316
852.057434,1377
852.175232,1333
852.293091,1337
852.410889,1367
852.528687,1349
852.646545,1345
852.764343,1382
852.88208,1366
852.999939,1373
853.117676,1363
853.235535,1364
853.353271,1403
853.471069,1360
853.588928,1314
853.706604,1357
853.824402,1355
853.9422,1371
854.059998,1335
854.177734,1348
854.295532,1349
854.413269,1348
854.531006,1348
854.648804,1345
854.766541,1303
854.884277,1351
855.002014,1339
855.119751,1290
855.237549,1336
855.355225,1328
855.473022,1322
855.590698,1381
855.708435,1354
855.826172,1375
855.943848,1362
856.061646,1398
856.179321,1308
856.296997,1336
856.414795,1323
856.53241,1311
856.650085,1359
856.767822,1370
856.885559,1361
857.003174,1318
857.120911,1375
857.238586,1376
857.356201,1364
857.473938,1353
857.591614,1367
857.709351,1356
857.826965,1348
857.944641,1328
858.062317,1383
858.179993,1361
858.297668,1356
858.415283,1370
858.532959,1373
858.650574,1367
858.768188,1349
858.885803,1351
859.003479,1357
859.121094,1332
859.23877,1344
859.356384,1348
859.473999,1323
859.591675,1369
859.709229,1360
859.826843,1342
859.944458,1343
860.062012,1371
860.179626,1357
860.297302,1339
860.414856,1328
860.532471,1386
860.650024,1309
860.767639,1319
860.885193,1342
861.002808,1371
861.120361,1377
861.237976,1367
861.35553,1384
861.473022,1307
861.590698,1378
861.708191,1338
861.825745,1381
861.943298,1335
862.060852,1305
862.178406,1317
862.295959,1303
862.413513,1310
862.531006,1325
862.64856,1337
862.766113,1366
862.883667,1329
863.00116,1367
863.118713,1327
863.236206,1331
863.353699,1283
863.471252,1298
863.588745,1320
863.706177,1340
863.82373,1351
863.941162,1345
864.058716,1389
864.176208,1345
864.29364,1341
864.411194,1338
864.528687,1345
864.646118,1364
864.763611,1346
864.881042,1357
864.998535,1340
865.116028,1346
865.233459,1344
865.350891,1336
865.468384,1357
865.585754,1363
865.703308,1318
865.820679,1340
865.938171,1382
866.055542,1343
866.173035,1325
866.290466,1361
866.407837,1369
866.52533,1340
866.6427,1408
866.760071,1355
866.877563,1368
866.994934,1367
867.112305,1317
867.229736,1361
867.347107,1368
867.464539,1346
867.58197,1357
867.699341,1407
867.81665,1339
867.934082,1332
868.051453,1367
868.168823,1347
868.286194,1320
868.403564,1346
868.520935,1339
868.638306,1384
868.755676,1307
868.872986,1362
868.990295,1360
869.107727,1357
869.225037,1357
869.342346,1394
869.459717,1401
869.577026,1376
869.694336,1350
869.811707,1375
869.929016,1349
870.046326,1388
870.163635,1354
870.280945,1363
870.398254,1342
870.515564,1366
870.632812,1356
870.750183,1414
870.867432,1393
870.984741,1398
871.102051,1398
871.219299,1375
871.336609,1409
871.453918,1359
871.571106,1343
871.688416,1422
871.805664,1398
871.922852,1405
872.040222,1383
872.157471,1410
872.274719,1414
872.391968,1410
872.509155,1371
872.626465,1416
872.743652,1380
872.860962,1393
872.978149,1393
873.095337,1376
873.212646,1408
873.329834,1383
873.44696,1293
873.564209,1364
873.681396,1395
873.798645,1406
873.915894,1381
874.03302,1370
874.150208,1406
874.267456,1402
874.384583,1404
874.501831,1400
874.618958,1419
874.736145,1437
874.853333,1388
874.970459,1384
875.087646,1387
875.204834,1437
875.32196,1383
875.439148,1398
875.556274,1411
875.673401,1420
875.790527,1366
875.907715,1412
876.024841,1341
876.141968,1386
876.259094,1347
876.376282,1375
876.493347,1408
876.610474,1429
876.7276,1324
876.844727,1396
876.961853,1368
877.078918,1390
877.195984,1345
877.313171,1421
877.430237,1349
877.547302,1355
877.664368,1382
877.781433,1382
877.898499,1347
878.015625,1365
878.13269,1387
878.249695,1364
878.366821,1380
878.483887,1367
878.600952,1382
878.717957,1376
878.834961,1383
878.952087,1412
879.069092,1362
879.186157,1356
879.303162,1357
879.420227,1386
879.537231,1342
879.654236,1371
879.77124,1369
879.888306,1359
880.005249,1364
880.122314,1386
880.239319,1362
880.356323,1370
880.473328,1392
880.590271,1337
880.707275,1400
880.824341,1352
880.941284,1378
881.058228,1365
881.175232,1316
881.292236,1374
881.40918,1386
881.526123,1364
881.643066,1317
881.760071,1370
881.877014,1367
881.993958,1375
882.11084,1352
882.227783,1380
882.344727,1339
882.46167,1339
882.578613,1339
882.695618,1352
882.812439,1368
882.929382,1382
883.046326,1403
883.163208,1362
883.280151,1406
883.397034,1400
883.513916,1361
883.630798,1387
883.747742,1359
883.864563,1393
883.981506,1382
884.098389,1381
884.21521,1388
884.332153,1387
884.448975,1389
884.565796,1389
884.682678,1444
884.7995,1423
884.916443,1427
885.033264,1408
885.150085,1464
885.266968,1492
885.383789,1431
885.500671,1436
885.617493,1500
885.734314,1464
885.851196,1481
885.967896,1448
886.084717,1453
886.201599,1480
886.318359,1452
886.435181,1480
886.552002,1416
886.668762,1458
886.785645,1460
886.902344,1440
887.019165,1406
887.135925,1438
887.252747,1417
887.369446,1450
887.486267,1449
887.603027,1354
887.719788,1419
887.836548,1407
887.953247,1419
888.070068,1421
888.186829,1438
888.303528,1453
888.420288,1369
888.536987,1430
888.653687,1364
888.770447,1383
888.887146,1362
889.003967,1430
889.120667,1401
889.237305,1409
889.354065,1363
889.470703,1354
889.587463,1390
889.704163,1398
889.820862,1409
889.937561,1368
890.054199,1373
890.170837,1347
890.287598,1410
890.404236,1361
890.520874,1399
890.637634,1403
890.754211,1382
890.87085,1327
890.987549,1398
891.104187,1428
891.220886,1418
891.337463,1377
891.454102,1424
891.57074,1393
891.687378,1423
891.804077,1394
891.920654,1380
892.037231,1372
892.15387,1395
892.270447,1378
892.387085,1386
892.503723,1400
892.6203,1351
892.736877,1356
892.853516,1433
892.970032,1379
893.08667,1412
893.203186,1368
893.319763,1386
893.43634,1437
893.552917,1350
893.669556,1396
893.786011,1405
893.902588,1396
894.019165,1410
894.135681,1369
894.252197,1416
894.368835,1394
894.485291,1398
894.601868,1441
894.718384,1362
894.8349,1411
894.951355,1398
895.067932,1401
895.184448,1428
895.300964,1424
895.417419,1369
895.533936,1381
895.650452,1404
895.766907,1411
895.883423,1385
895.999878,1422
896.116333,1421
896.232849,1416
896.349304,1394
896.465759,1390
896.582214,1415
896.698669,1422
896.815125,1421
896.931641,1415
897.048035,1383
897.164551,1419
897.280884,1403
897.397339,1431
897.513794,1425
897.630249,1393
897.746582,1408
897.863098,1415
897.979431,1417
898.095886,1380
898.212341,1414
898.328674,1383
898.445129,1437
898.561462,1451
898.677795,1446
898.794312,1435
898.910645,1416
899.026978,1409
899.143433,1432
899.259766,1463
899.37616,1437
899.492493,1393
899.608765,1452
899.725159,1404
899.841553,1438
899.957947,1430
900.07428,1361
900.190552,1471
900.306946,1451
900.423157,1458
900.53949,1398
900.655884,1405
900.772156,1423
900.888489,1400
901.004822,1408
901.121033,1418
901.237366,1431
901.353699,1426
901.46991,1438
901.586304,1444
901.702515,1435
901.818787,1440
901.93512,1425
902.051331,1450
902.167603,1468
902.283875,1459
902.400085,1452
902.516418,1453
902.632629,1473
902.74884,1499
902.865112,1473
902.981384,1475
903.097595,1502
903.213867,1488
903.330017,1477
903.446289,1424
903.5625,1446
903.67865,1487
903.794922,1445
903.911072,1451
904.027344,1494
904.143494,1437
904.259705,1476
904.375916,1400
904.492065,1448
904.608215,1451
904.724426,1420
904.840576,1455
904.956726,1412
905.072876,1489
905.189087,1420
905.305176,1413
905.421387,1464
905.537537,1471
905.653687,1432
905.769775,1434
905.885925,1446
906.002014,1456
906.118164,1379
906.234314,1418
906.350403,1420
906.466492,1413
906.582642,1391
906.69873,1473
906.814758,1399
906.930908,1453
907.046936,1415
907.163086,1483
907.279175,1445
907.395264,1468
907.511353,1456
907.62738,1437
907.743408,1459
907.859497,1404
907.975525,1441
908.091553,1448
908.207703,1417
908.32373,1470
908.439758,1423
908.555786,1440
908.671814,1446
908.787842,1434
908.90387,1449
909.019775,1468
909.135864,1402
909.251892,1450
909.367859,1434
909.483826,1448
909.599854,1458
909.715881,1450
909.831848,1420
909.947815,1429
910.063782,1423
910.179749,1453
910.295776,1458
910.411743,1448
910.527649,1452
910.643616,1447
910.759583,1443
910.875488,1458
910.991455,1440
911.107361,1448
911.223267,1426
911.339294,1464
911.4552,1456
911.571106,1409
911.687073,1465
911.802979,1436
911.918823,1439
912.034729,1407
912.150635,1470
912.266602,1479
912.382446,1420
912.498352,1448
912.614197,1438
912.730103,1440
912.846008,1411
