792.44574,2170
792.56488,2122
792.68396,2167
792.80304,2135
792.92218,2084
793.041199,2110
793.160339,2075
793.279419,2150
793.398499,2066
793.517578,2084
793.636658,2066
793.755737,2103
793.874817,2042
793.993896,2092
794.112976,2023
794.232056,1983
794.351074,2023
794.470215,1998
794.589233,2040
794.708313,1948
794.827393,2014
794.946411,1989
795.065552,1978
795.18457,1988
795.303589,2012
795.422668,1942
795.541687,2028
795.660767,1980
795.779846,1985
795.898865,1943
796.017883,1987
796.136963,1981
796.255981,1942
796.375061,1924
796.49408,1962
796.613037,1917
796.732117,1981
796.851135,1933
796.970154,1904
797.089233,1957
797.208191,1932
797.327271,1950
797.446228,1883
797.565186,1880
797.684265,1918
797.803223,1912
797.922241,1952
798.04126,1922
798.160278,1928
798.279297,1928
798.398315,1910
798.517273,1933
798.636292,1907
798.75531,1891
798.874268,1943
798.993286,1897
799.112244,1921
799.231323,1916
799.350281,1914
799.469238,1945
799.588257,1956
799.707153,1974
799.826111,1949
799.945129,1951
800.064087,1912
800.183044,1906
800.302063,1908
800.421021,1960
800.539978,1957
800.658936,1932
800.777893,1936
800.896912,1963
801.015747,1937
801.134705,1965
801.253723,1906
801.37262,1962
801.491638,1897
801.610535,1906
801.729492,1921
801.84845,1967
801.967407,1888
802.086243,1970
802.205261,1958
802.324158,1977
802.443115,1941
802.562073,1962
802.680969,1923
802.799927,2006
802.918762,2009
803.037659,1975
803.156677,2007
803.275574,1996
803.39447,1958
803.513428,1968
803.632263,1968
803.751221,1972
803.870117,2016
803.989014,2024
804.107971,2044
804.226746,2019
804.345642,2006
804.4646,2070
804.583496,2029
804.702393,2014
804.821228,2032
804.940125,2055
805.059021,1998
805.177917,2042
805.296814,2078
805.415649,2048
805.534546,2078
805.653442,2050
805.772278,2058
805.891113,2073
806.01001,2067
806.128906,2035
806.247742,2060
806.366577,2088
806.485413,2089
806.604309,2077
806.723145,2127
806.84198,2081
806.960876,2095
807.079712,2096
807.198486,2075
807.317383,2125
807.436218,2108
807.554993,2075
807.673889,2105
807.792725,2102
807.91156,2091
808.030396,2136
808.14917,2145
808.268005,2069
808.386841,2147
808.505676,2138
808.624451,2160
808.743286,2149
808.862122,2118
808.980896,2098
809.099731,2167
809.218506,2193
809.337341,2129
809.456116,2163
809.57489,2160
809.693726,2139
809.8125,2198
809.931274,2207
810.050049,2162
810.168884,2144
810.287659,2154
810.406372,2166
810.525269,2195
810.643982,2219
810.762756,2127
810.881531,2185
811.000305,2209
811.11908,2152
811.237854,2212
811.356567,2164
811.475403,2147
811.594116,2157
811.71283,2215
811.831604,2208
811.950378,2196
812.069153,2146
812.187927,2185
812.30658,2186
812.425415,2205
812.544128,2199
812.662781,2222
812.781616,2188
812.900269,2173
813.019043,2193
813.137756,2207
813.256531,2221
813.375244,2160
813.493896,2162
813.612671,2222
813.731384,2208
813.850037,2217
813.96875,2140
814.087524,2180
814.206238,2144
814.324951,2191
814.443604,2137
814.562256,2196
814.68103,2101
814.799683,2207
814.918335,2137
815.037109,2175
815.155762,2168
815.274475,2086
815.393188,2106
815.511841,2160
815.630554,2107
815.749146,2156
815.867859,2103
815.986572,2027
816.105164,2079
816.223877,2108
816.342529,2084
816.461182,2108
816.579895,2091
816.698486,2110
816.817139,2121
816.935791,2106
817.054504,2087
817.173096,2128
817.291748,2133
817.4104,2032
817.529053,2032
817.647644,1945
817.766235,1972
817.884949,1903
818.00354,1901
818.122192,1867
818.240845,1815
818.359436,1766
818.478088,1795
818.59668,1750
818.715271,1691
818.833923,1731
818.952515,1643
819.071106,1648
819.189758,1675
819.30835,1601
819.426941,1626
819.545532,1629
819.664124,1596
819.782715,1592
819.901306,1555
820.019897,1524
820.138489,1563
820.25708,1567
820.375671,1549
820.494202,1531
820.612732,1574
820.731384,1541
820.849915,1512
820.968506,1501
821.087097,1474
821.205627,1545
821.324158,1496
821.442749,1479
821.561279,1477
821.679871,1455
821.798401,1498
821.916931,1468
822.035461,1499
822.154053,1469
822.272583,1399
822.391174,1433
822.509583,1462
822.628174,1429
822.746704,1478
822.865234,1400
822.983765,1461
823.102295,1471
823.220825,1485
823.339294,1474
823.457825,1496
823.576355,1474
823.694824,1452
823.813354,1482
823.931885,1499
824.050354,1490
824.168884,1546
824.287354,1476
824.405823,1458
824.524353,1477
824.642822,1509
824.761353,1515
824.879822,1497
824.998291,1501
825.116699,1474
825.235291,1538
825.353699,1473
825.472168,1493
825.590637,1453
825.709106,1432
825.827576,1460
825.946045,1444
826.064453,1419
826.182983,1414
826.301392,1408
826.4198,1423
826.53833,1397
826.656738,1412
826.775208,1383
826.893677,1409
827.012024,1400
827.130493,1434
827.248962,1394
827.36731,1417
827.485779,1406
827.604248,1382
827.722595,1354
827.841064,1363
827.959412,1366
828.077942,1399
828.196289,1371
828.314636,1352
828.433105,1397
828.551514,1352
828.669861,1341
828.78833,1392
828.906677,1363
829.025085,1383
829.143433,1386
829.261841,1369
829.38031,1336
829.498657,1387
829.617004,1358
829.735413,1361
829.85376,1353
829.972107,1354
830.090515,1390
830.208862,1296
830.327209,1342
830.445557,1376
830.563904,1366
830.682312,1392
830.800659,1375
830.919006,1358
831.037354,1348
831.155701,1326
831.274048,1394
831.392395,1344
831.51062,1319
831.629028,1373
831.747314,1358
831.865662,1331
831.984009,1342
832.102356,1344
832.220642,1363
832.338928,1324
832.457275,1355
832.575623,1389
832.693909,1336
832.812134,1383
832.930481,1301
833.048828,1317
833.167114,1345
833.2854,1355
833.403687,1354
833.521973,1329
833.640259,1356
833.758545,1377
833.876831,1356
833.995056,1354
834.113281,1332
834.231628,1336
834.349915,1320
834.468201,1385
834.586426,1381
834.704651,1377
834.822998,1377
834.941162,1382
835.059448,1414
835.177673,1346
835.295959,1372
835.414246,1342
835.53241,1383
835.650635,1374
835.768921,1375
835.887146,1343
836.005371,1388
836.123596,1396
836.241821,1420
836.360046,1409
836.478271,1420
836.596497,1375
836.714722,1435
836.832886,1408
836.95105,1410
837.069336,1461
837.1875,1430
837.305725,1438
837.423889,1448
837.542053,1481
837.660339,1436
837.778503,1455
837.896667,1428
838.014832,1456
838.132996,1406
838.25116,1434
838.369385,1412
838.487488,1478
838.605713,1443
838.723877,1493
838.84198,1409
838.960205,1451
839.078308,1413
839.196472,1388
839.314636,1463
839.4328,1406
839.550964,1428
839.669067,1423
839.787231,1352
839.905396,1430
840.023499,1393
840.141602,1399
840.259766,1428
840.377869,1393
840.495972,1390
840.614136,1407
840.732239,1391
840.850342,1393
840.968445,1393
841.086548,1386
841.204651,1395
841.322754,1388
841.440918,1363
841.55896,1370
841.677002,1348
841.795166,1377
841.913208,1352
842.031311,1357
842.149353,1370
842.267456,1355
842.385498,1343
842.503601,1334
842.621643,1350
842.739746,1379
842.857788,1334
842.97583,1359
843.093933,1336
843.211975,1314
843.330017,1296
843.44812,1348
843.566101,1339
843.684204,1337
843.802246,1332
843.920227,1364
844.038269,1328
844.156311,1322
844.274292,1334
844.392395,1317
844.510376,1352
844.628357,1305
844.74646,1303
844.864441,1371
844.982422,1313
845.100403,1366
845.218384,1324
845.336426,1347
845.454468,1355
845.572449,1325
845.69043,1342
845.808411,1328
845.926453,1340
846.044373,1333
846.162354,1348
846.280396,1341
846.398315,1326
846.516296,1300
846.634216,1317
846.752197,1343
846.870178,1357
846.988098,1314
847.106079,1335
847.22406,1317
847.34198,1322
847.4599,1336
847.577881,1330
847.695801,1294
847.813782,1385
847.931641,1324
848.049561,1300
848.167603,1321
848.285461,1325
848.403381,1330
848.521362,1320
848.639221,1314
848.75708,1361
848.875,1320
848.99292,1327
849.110901,1318
849.22876,1332
849.34668,1339
849.464539,1303
849.582458,1317
849.700317,1319
849.818176,1378
849.936096,1364
850.053955,1333
850.171875,1343
850.289673,1322
850.407593,1291
850.525452,1334
850.643311,1362
850.761169,1323
850.878967,1317
850.996887,1340
851.114746,1331
851.232544,1336
851.350403,1372
851.468262,1329
851.58606,1395
851.703979,1323
851.821777,1335
851.939636,1374
852.057434,1356
852.175232,1339
852.293091,1344
852.410889,1347
852.528687,1333
852.646545,1385
852.764343,1389
852.88208,1350
852.999939,1341
853.117676,1380
853.235535,1320
853.353271,1349
853.471069,1381
853.588928,1352
853.706604,1336
853.824402,1369
853.9422,1387
854.059998,1317
854.177734,1328
854.295532,1346
854.413269,1354
854.531006,1393
854.648804,1373
854.766541,1324
854.884277,1346
855.002014,1388
855.119751,1366
855.237549,1374
855.355225,1364
855.473022,1369
855.590698,1357
855.708435,1357
855.826172,1393
855.943848,1415
856.061646,1340
856.179321,1382
856.296997,1399
856.414795,1351
856.53241,1404
856.650085,1369
856.767822,1345
856.885559,1356
857.003174,1406
857.120911,1414
857.238586,1380
857.356201,1417
857.473938,1376
857.591614,1373
857.709351,1411
857.826965,1348
857.944641,1381
858.062317,1363
858.179993,1382
858.297668,1374
858.415283,1336
858.532959,1369
858.650574,1361
858.768188,1383
858.885803,1384
859.003479,1366
859.121094,1303
859.23877,1339
859.356384,1369
859.473999,1376
859.591675,1385
859.709229,1398
859.826843,1410
859.944458,1348
860.062012,1338
860.179626,1351
860.297302,1373
860.414856,1390
860.532471,1373
860.650024,1359
860.767639,1355
860.885193,1362
861.002808,1328
861.120361,1368
861.237976,1359
861.35553,1390
861.473022,1370
861.590698,1360
861.708191,1378
861.825745,1347
861.943298,1351
862.060852,1379
862.178406,1361
862.295959,1352
862.413513,1325
862.531006,1368
862.64856,1401
862.766113,1366
862.883667,1385
863.00116,1380
863.118713,1352
863.236206,1330
863.353699,1391
863.471252,1369
863.588745,1373
863.706177,1354
863.82373,1389
863.941162,1339
864.058716,1337
864.176208,1365
864.29364,1392
864.411194,1392
864.528687,1390
864.646118,1415
864.763611,1364
864.881042,1414
864.998535,1378
865.116028,1397
865.233459,1350
865.350891,1365
865.468384,1394
865.585754,1390
865.703308,1392
865.820679,1337
865.938171,1381
866.055542,1405
866.173035,1391
866.290466,1369
866.407837,1393
866.52533,1444
866.6427,1381
866.760071,1372
866.877563,1404
866.994934,1387
867.112305,1407
867.229736,1421
867.347107,1354
867.464539,1427
867.58197,1408
867.699341,1437
867.81665,1391
867.934082,1403
868.051453,1363
868.168823,1411
868.286194,1363
868.403564,1384
868.520935,1387
868.638306,1372
868.755676,1409
868.872986,1437
868.990295,1355
869.107727,1408
869.225037,1398
869.342346,1388
869.459717,1391
869.577026,1400
869.694336,1383
869.811707,1408
869.929016,1383
870.046326,1453
870.163635,1394
870.280945,1377
870.398254,1391
870.515564,1412
870.632812,1369
870.750183,1415
870.867432,1363
870.984741,1379
871.102051,1359
871.219299,1363
871.336609,1389
871.453918,1399
871.571106,1419
871.688416,1382
871.805664,1391
871.922852,1363
872.040222,1404
872.157471,1380
872.274719,1395
872.391968,1426
872.509155,1368
872.626465,1399
872.743652,1364
872.860962,1408
872.978149,1397
873.095337,1397
873.212646,1386
873.329834,1405
873.44696,1409
873.564209,1402
873.681396,1406
873.798645,1387
873.915894,1445
874.03302,1393
874.150208,1399
874.267456,1384
874.384583,1395
874.501831,1377
874.618958,1379
874.736145,1414
874.853333,1364
874.970459,1445
875.087646,1404
875.204834,1395
875.32196,1420
875.439148,1370
875.556274,1378
875.673401,1416
875.790527,1396
875.907715,1398
876.024841,1373
876.141968,1389
876.259094,1383
876.376282,1360
876.493347,1409
876.610474,1390
876.7276,1429
876.844727,1414
876.961853,1421
877.078918,1431
877.195984,1402
877.313171,1406
877.430237,1447
877.547302,1376
877.664368,1408
877.781433,1368
877.898499,1387
878.015625,1416
878.13269,1392
878.249695,1426
878.366821,1406
878.483887,1408
878.600952,1367
878.717957,1426
878.834961,1402
878.952087,1405
879.069092,1416
879.186157,1412
879.303162,1387
879.420227,1454
879.537231,1418
879.654236,1421
879.77124,1403
879.888306,1411
880.005249,1434
880.122314,1383
880.239319,1403
880.356323,1396
880.473328,1395
880.590271,1405
880.707275,1393
880.824341,1413
880.941284,1405
881.058228,1440
881.175232,1423
881.292236,1400
881.40918,1422
881.526123,1405
881.643066,1379
881.760071,1412
881.877014,1470
881.993958,1449
882.11084,1457
882.227783,1427
882.344727,1424
882.46167,1411
882.578613,1412
882.695618,1400
882.812439,1423
882.929382,1423
883.046326,1388
883.163208,1398
883.280151,1431
883.397034,1418
883.513916,1407
883.630798,1453
883.747742,1449
883.864563,1390
883.981506,1411
884.098389,1411
884.21521,1464
884.332153,1439
884.448975,1413
884.565796,1403
884.682678,1409
884.7995,1436
884.916443,1454
885.033264,1399
885.150085,1442
885.266968,1424
885.383789,1445
885.500671,1426
885.617493,1446
885.734314,1425
885.851196,1441
885.967896,1430
886.084717,1490
886.201599,1478
886.318359,1411
886.435181,1467
886.552002,1466
886.668762,1472
886.785645,1462
886.902344,1458
887.019165,1450
887.135925,1435
887.252747,1460
887.369446,1417
887.486267,1437
887.603027,1411
887.719788,1433
887.836548,1494
887.953247,1466
888.070068,1490
888.186829,1463
888.303528,1436
888.420288,1434
888.536987,1452
888.653687,1445
888.770447,1461
888.887146,1450
889.003967,1470
889.120667,1497
889.237305,1440
889.354065,1408
889.470703,1483
889.587463,1429
889.704163,1476
889.820862,1446
889.937561,1468
890.054199,1409
890.170837,1465
890.287598,1451
890.404236,1452
890.520874,1429
890.637634,1430
890.754211,1442
890.87085,1429
890.987549,1488
891.104187,1479
891.220886,1469
891.337463,1434
891.454102,1459
891.57074,1437
891.687378,1453
891.804077,1477
891.920654,1424
892.037231,1482
892.15387,1467
892.270447,1432
892.387085,1450
892.503723,1461
892.6203,1440
892.736877,1467
892.853516,1441
892.970032,1459
893.08667,1451
893.203186,1442
893.319763,1477
893.43634,1451
893.552917,1477
893.669556,1498
893.786011,1446
893.902588,1504
894.019165,1488
894.135681,1471
894.252197,1462
894.368835,1505
894.485291,1517
894.601868,1465
894.718384,1505
894.8349,1460
894.951355,1500
895.067932,1460
895.184448,1454
895.300964,1481
895.417419,1488
895.533936,1493
895.650452,1471
895.766907,1416
895.883423,1482
895.999878,1490
896.116333,1492
896.232849,1513
896.349304,1501
896.465759,1485
896.582214,1452
896.698669,1491
896.815125,1469
896.931641,1465
897.048035,1465
897.164551,1493
897.280884,1516
897.397339,1479
897.513794,1475
897.630249,1448
897.746582,1460
897.863098,1497
897.979431,1477
898.095886,1502
898.212341,1466
898.328674,1476
898.445129,1507
898.561462,1483
898.677795,1509
898.794312,1491
898.910645,1513
899.026978,1483
899.143433,1499
899.259766,1493
899.37616,1467
899.492493,1441
899.608765,1496
899.725159,1503
899.841553,1500
899.957947,1503
900.07428,1511
900.190552,1470
900.306946,1522
900.423157,1458
900.53949,1484
900.655884,1501
900.772156,1464
900.888489,1514
901.004822,1455
901.121033,1478
901.237366,1464
901.353699,1483
901.46991,1493
901.586304,1503
901.702515,1532
901.818787,1493
901.93512,1485
902.051331,1561
902.167603,1497
902.283875,1494
902.400085,1511
902.516418,1483
902.632629,1470
902.74884,1541
902.865112,1506
902.981384,1502
903.097595,1516
903.213867,1554
903.330017,1535
903.446289,1522
903.5625,1490
903.67865,1484
903.794922,1490
903.911072,1494
904.027344,1508
904.143494,1504
904.259705,1484
904.375916,1491
904.492065,1508
904.608215,1558
904.724426,1508
904.840576,1494
904.956726,1487
905.072876,1514
905.189087,1556
905.305176,1520
905.421387,1534
905.537537,1543
905.653687,1543
905.769775,1494
905.885925,1555
906.002014,1511
906.118164,1509
906.234314,1511
906.350403,1524
906.466492,1561
906.582642,1483
906.69873,1508
906.814758,1528
906.930908,1530
907.046936,1519
907.163086,1517
907.279175,1510
907.395264,1515
907.511353,1553
907.62738,1562
907.743408,1503
907.859497,1544
907.975525,1531
908.091553,1561
908.207703,1531
908.32373,1528
908.439758,1501
908.555786,1545
908.671814,1503
908.787842,1509
908.90387,1504
909.019775,1511
909.135864,1525
909.251892,1523
909.367859,1552
909.483826,1530
909.599854,1524
909.715881,1514
909.831848,1533
909.947815,1527
910.063782,1501
910.179749,1481
910.295776,1539
910.411743,1493
910.527649,1542
910.643616,1503
910.759583,1595
910.875488,1540
910.991455,1523
911.107361,1549
911.223267,1544
911.339294,1519
911.4552,1528
911.571106,1519
911.687073,1560
911.802979,1542
911.918823,1484
912.034729,1559
912.150635,1523
912.266602,1515
912.382446,1489
912.498352,1538
912.614197,1544
912.730103,1551
912.846008,1554
792.44574,2223
792.56488,2199
792.68396,2224
792.80304,2224
792.92218,2157
793.041199,2091
793.160339,2139
793.279419,2155
793.398499,2145
793.517578,2107
793.636658,2046
793.755737,2095
793.874817,2089
793.993896,2067
794.112976,2064
794.232056,2050
794.351074,2072
794.470215,2094
794.589233,2050
794.708313,2049
794.827393,2059
794.946411,2027
795.065552,2025
795.18457,2003
795.303589,1999
795.422668,2025
795.541687,2026
795.660767,2020
795.779846,1996
795.898865,1946
796.017883,1981
796.136963,1965
796.255981,1998
796.375061,1980
796.49408,2013
796.613037,1984
796.732117,1923
796.851135,1892
796.970154,1963
797.089233,1975
797.208191,1958
797.327271,2012
797.446228,1974
797.565186,1974
797.684265,1990
797.803223,1918
797.922241,1940
798.04126,1946
798.160278,1963
798.279297,1962
798.398315,1963
798.517273,1970
798.636292,1938
798.75531,1871
798.874268,1916
798.993286,1947
799.112244,1974
799.231323,1962
799.350281,1982
799.469238,1976
799.588257,1942
799.707153,1960
799.826111,1879
799.945129,1974
800.064087,1984
800.183044,1935
800.302063,1963
800.421021,2005
800.539978,1951
800.658936,1968
800.777893,2013
800.896912,2021
801.015747,1930
801.134705,1913
801.253723,1965
801.37262,2011
801.491638,1948
801.610535,1977
801.729492,1968
801.84845,1993
801.967407,1993
802.086243,1985
802.205261,1995
802.324158,2010
802.443115,2033
802.562073,1980
802.680969,2014
802.799927,2054
802.918762,2063
803.037659,2013
803.156677,2001
803.275574,2034
803.39447,2047
803.513428,2008
803.632263,2087
803.751221,1991
803.870117,2029
803.989014,2048
804.107971,2049
804.226746,2080
804.345642,2039
804.4646,2037
804.583496,2035
804.702393,2071
804.821228,2061
804.940125,2102
805.059021,2083
805.177917,2079
805.296814,2131
805.415649,2140
805.534546,2069
805.653442,2086
805.772278,2088
805.891113,2130
806.01001,2121
806.128906,2098
806.247742,2102
806.366577,2110
806.485413,2135
806.604309,2079
806.723145,2167
806.84198,2161
806.960876,2094
807.079712,2168
807.198486,2142
807.317383,2187
807.436218,2167
807.554993,2117
807.673889,2151
807.792725,2172
807.91156,2105
808.030396,2130
808.14917,2185
808.268005,2151
808.386841,2153
808.505676,2191
808.624451,2121
808.743286,2191
808.862122,2138
808.980896,2123
809.099731,2187
809.218506,2200
809.337341,2162
809.456116,2153
809.57489,2185
809.693726,2169
809.8125,2179
809.931274,2215
810.050049,2227
810.168884,2209
810.287659,2243
810.406372,2203
810.525269,2227
810.643982,2224
810.762756,2199
810.881531,2179
811.000305,2192
811.11908,2222
811.237854,2210
811.356567,2187
811.475403,2213
811.594116,2169
811.71283,2238
811.831604,2203
811.950378,2242
812.069153,2223
812.187927,2161
812.30658,2221
812.425415,2177
812.544128,2267
812.662781,2208
812.781616,2193
812.900269,2206
813.019043,2195
813.137756,2221
813.256531,2236
813.375244,2237
813.493896,2170
813.612671,2245
813.731384,2233
813.850037,2183
813.96875,2242
814.087524,2243
814.206238,2175
814.324951,2178
814.443604,2191
814.562256,2205
814.68103,2162
814.799683,2212
814.918335,2195
815.037109,2128
815.155762,2165
815.274475,2220
815.393188,2123
815.511841,2128
815.630554,2090
815.749146,2137
815.867859,2072
815.986572,2093
816.105164,2148
816.223877,2126
816.342529,2112
816.461182,2113
816.579895,2143
816.698486,2152
816.817139,2119
816.935791,2125
817.054504,2169
817.173096,2141
817.291748,2069
817.4104,2092
817.529053,2056
817.647644,2014
817.766235,1981
817.884949,1974
818.00354,1880
818.122192,1880
818.240845,1843
818.359436,1813
818.478088,1823
818.59668,1765
818.715271,1748
818.833923,1664
818.952515,1700
819.071106,1689
819.189758,1733
819.30835,1674
819.426941,1661
819.545532,1633
819.664124,1628
819.782715,1586
819.901306,1578
820.019897,1572
820.138489,1598
820.25708,1568
820.375671,1583
820.494202,1536
820.612732,1530
820.731384,1553
820.849915,1541
820.968506,1462
821.087097,1568
821.205627,1543
821.324158,1545
821.442749,1478
821.561279,1545
821.679871,1512
821.798401,1498
821.916931,1513
822.035461,1521
822.154053,1518
822.272583,1456
822.391174,1497
822.509583,1520
822.628174,1496
822.746704,1463
822.865234,1457
822.983765,1485
823.102295,1494
823.220825,1504
823.339294,1465
823.457825,1487
823.576355,1533
823.694824,1484
823.813354,1486
823.931885,1534
824.050354,1519
824.168884,1546
824.287354,1500
824.405823,1543
824.524353,1565
824.642822,1521
824.761353,1495
824.879822,1550
824.998291,1523
825.116699,1513
825.235291,1475
825.353699,1506
825.472168,1451
825.590637,1472
825.709106,1496
825.827576,1481
825.946045,1489
826.064453,1438
826.182983,1457
826.301392,1467
826.4198,1410
826.53833,1430
826.656738,1467
826.775208,1399
826.893677,1435
827.012024,1387
827.130493,1442
827.248962,1427
827.36731,1433
827.485779,1396
827.604248,1461
827.722595,1409
827.841064,1379
827.959412,1423
828.077942,1352
828.196289,1411
828.314636,1394
828.433105,1398
828.551514,1397
828.669861,1420
828.78833,1354
828.906677,1383
829.025085,1399
829.143433,1386
829.261841,1424
829.38031,1356
829.498657,1374
829.617004,1415
829.735413,1390
829.85376,1407
829.972107,1364
830.090515,1353
830.208862,1377
830.327209,1373
830.445557,1380
830.563904,1377
830.682312,1365
830.800659,1395
830.919006,1399
831.037354,1384
831.155701,1409
831.274048,1371
831.392395,1376
831.51062,1389
831.629028,1378
831.747314,1368
831.865662,1364
831.984009,1388
832.102356,1415
832.220642,1401
832.338928,1398
832.457275,1360
832.575623,1395
832.693909,1382
832.812134,1365
832.930481,1387
833.048828,1405
833.167114,1368
833.2854,1423
833.403687,1418
833.521973,1422
833.640259,1382
833.758545,1362
833.876831,1359
833.995056,1378
834.113281,1402
834.231628,1415
834.349915,1377
834.468201,1374
834.586426,1402
834.704651,1365
834.822998,1418
834.941162,1399
835.059448,1379
835.177673,1415
835.295959,1421
835.414246,1355
835.53241,1360
835.650635,1394
835.768921,1392
835.887146,1395
836.005371,1423
836.123596,1443
836.241821,1417
836.360046,1420
836.478271,1468
836.596497,1445
836.714722,1438
836.832886,1457
836.95105,1418
837.069336,1478
837.1875,1488
837.305725,1465
837.423889,1457
837.542053,1466
837.660339,1440
837.778503,1486
837.896667,1499
838.014832,1437
838.132996,1474
838.25116,1393
838.369385,1486
838.487488,1449
838.605713,1448
838.723877,1497
838.84198,1461
838.960205,1446
839.078308,1464
839.196472,1441
839.314636,1456
839.4328,1459
839.550964,1469
839.669067,1434
839.787231,1427
839.905396,1424
840.023499,1444
840.141602,1446
840.259766,1386
840.377869,1432
840.495972,1438
840.614136,1411
840.732239,1438
840.850342,1410
840.968445,1432
841.086548,1399
841.204651,1403
841.322754,1439
841.440918,1411
841.55896,1360
841.677002,1400
841.795166,1408
841.913208,1378
842.031311,1380
842.149353,1414
842.267456,1354
842.385498,1371
842.503601,1403
842.621643,1355
842.739746,1372
842.857788,1365
842.97583,1345
843.093933,1376
843.211975,1372
843.330017,1388
843.44812,1394
843.566101,1400
843.684204,1373
843.802246,1341
843.920227,1382
844.038269,1364
844.156311,1357
844.274292,1385
844.392395,1386
844.510376,1342
844.628357,1340
844.74646,1358
844.864441,1363
844.982422,1383
845.100403,1397
845.218384,1382
845.336426,1375
845.454468,1363
845.572449,1359
845.69043,1344
845.808411,1344
845.926453,1336
846.044373,1330
846.162354,1391
846.280396,1363
846.398315,1356
846.516296,1370
846.634216,1345
846.752197,1370
846.870178,1376
846.988098,1355
847.106079,1368
847.22406,1371
847.34198,1369
847.4599,1344
847.577881,1367
847.695801,1385
847.813782,1351
847.931641,1387
848.049561,1325
848.167603,1348
848.285461,1349
848.403381,1349
848.521362,1369
848.639221,1399
848.75708,1410
848.875,1315
848.99292,1361
849.110901,1373
849.22876,1352
849.34668,1346
849.464539,1385
849.582458,1390
849.700317,1363
849.818176,1329
849.936096,1387
850.053955,1399
850.171875,1401
850.289673,1375
850.407593,1330
850.525452,1382
850.643311,1328
850.761169,1382
850.878967,1367
850.996887,1381
851.114746,1388
851.232544,1343
851.350403,1351
851.468262,1315
851.58606,1355
851.703979,1320
851.821777,1374
851.939636,1372
852.057434,1367
852.175232,1342
852.293091,1354
852.410889,1394
852.528687,1378
852.646545,1340
852.764343,1358
852.88208,1336
852.999939,1374
853.117676,1406
853.235535,1371
853.353271,1414
853.471069,1352
853.588928,1382
853.706604,1367
853.824402,1376
853.9422,1398
854.059998,1374
854.177734,1371
854.295532,1404
854.413269,1391
854.531006,1341
854.648804,1403
854.766541,1405
854.884277,1390
855.002014,1390
855.119751,1408
855.237549,1370
855.355225,1390
855.473022,1390
855.590698,1418
855.708435,1422
855.826172,1414
855.943848,1420
856.061646,1386
856.179321,1381
856.296997,1429
856.414795,1399
856.53241,1371
856.650085,1431
856.767822,1412
856.885559,1373
857.003174,1404
857.120911,1423
857.238586,1384
857.356201,1408
857.473938,1410
857.591614,1404
857.709351,1408
857.826965,1404
857.944641,1396
858.062317,1395
858.179993,1406
858.297668,1374
858.415283,1382
858.532959,1361
858.650574,1401
858.768188,1414
858.885803,1379
859.003479,1420
859.121094,1372
859.23877,1435
859.356384,1368
859.473999,1370
859.591675,1429
859.709229,1396
859.826843,1385
859.944458,1344
860.062012,1366
860.179626,1357
860.297302,1359
860.414856,1341
860.532471,1379
860.650024,1445
860.767639,1377
860.885193,1357
861.002808,1414
861.120361,1448
861.237976,1379
861.35553,1397
861.473022,1373
861.590698,1368
861.708191,1404
861.825745,1412
861.943298,1355
862.060852,1380
862.178406,1349
862.295959,1402
862.413513,1376
862.531006,1344
862.64856,1394
862.766113,1358
862.883667,1412
863.00116,1333
863.118713,1380
863.236206,1388
863.353699,1382
863.471252,1386
863.588745,1402
863.706177,1425
863.82373,1352
863.941162,1368
864.058716,1436
864.176208,1394
864.29364,1422
864.411194,1409
864.528687,1416
864.646118,1381
864.763611,1353
864.881042,1397
864.998535,1372
865.116028,1380
865.233459,1424
865.350891,1379
865.468384,1398
865.585754,1501
865.703308,1388
865.820679,1406
865.938171,1404
866.055542,1439
866.173035,1403
866.290466,1405
866.407837,1467
866.52533,1406
866.6427,1418
866.760071,1352
866.877563,1417
866.994934,1450
867.112305,1395
867.229736,1458
867.347107,1382
867.464539,1443
867.58197,1444
867.699341,1441
867.81665,1402
867.934082,1427
868.051453,1438
868.168823,1393
868.286194,1411
868.403564,1460
868.520935,1415
868.638306,1445
868.755676,1401
868.872986,1390
868.990295,1387
869.107727,1406
869.225037,1412
869.342346,1399
869.459717,1411
869.577026,1404
869.694336,1394
869.811707,1444
869.929016,1428
870.046326,1424
870.163635,1404
870.280945,1393
870.398254,1395
870.515564,1407
870.632812,1433
870.750183,1446
870.867432,1390
870.984741,1449
871.102051,1393
871.219299,1457
871.336609,1424
871.453918,1416
871.571106,1400
871.688416,1390
871.805664,1406
871.922852,1401
872.040222,1456
872.157471,1426
872.274719,1409
872.391968,1445
872.509155,1407
872.626465,1454
872.743652,1385
872.860962,1422
872.978149,1372
873.095337,1398
873.212646,1448
873.329834,1437
873.44696,1403
873.564209,1405
873.681396,1445
873.798645,1422
873.915894,1396
874.03302,1466
874.150208,1445
874.267456,1393
874.384583,1454
874.501831,1419
874.618958,1445
874.736145,1402
874.853333,1470
874.970459,1398
875.087646,1413
875.204834,1406
875.32196,1404
875.439148,1407
875.556274,1443
875.673401,1419
875.790527,1404
875.907715,1424
876.024841,1418
876.141968,1400
876.259094,1459
876.376282,1413
876.493347,1453
876.610474,1424
876.7276,1418
876.844727,1446
876.961853,1448
877.078918,1433
877.195984,1457
877.313171,1446
877.430237,1456
877.547302,1439
877.664368,1435
877.781433,1437
877.898499,1418
878.015625,1451
878.13269,1407
878.249695,1436
878.366821,1421
878.483887,1418
878.600952,1398
878.717957,1487
878.834961,1410
878.952087,1433
879.069092,1431
879.186157,1455
879.303162,1410
879.420227,1429
879.537231,1424
879.654236,1418
879.77124,1443
879.888306,1398
880.005249,1442
880.122314,1456
880.239319,1393
880.356323,1433
880.473328,1447
880.590271,1434
880.707275,1414
880.824341,1463
880.941284,1450
881.058228,1460
881.175232,1415
881.292236,1479
881.40918,1434
881.526123,1464
881.643066,1424
881.760071,1442
881.877014,1425
881.993958,1451
882.11084,1435
882.227783,1473
882.344727,1430
882.46167,1441
882.578613,1395
882.695618,1487
882.812439,1458
882.929382,1451
883.046326,1438
883.163208,1464
883.280151,1454
883.397034,1449
883.513916,1479
883.630798,1495
883.747742,1455
883.864563,1472
883.981506,1390
884.098389,1475
884.21521,1463
884.332153,1430
884.448975,1427
884.565796,1466
884.682678,1464
884.7995,1461
884.916443,1441
885.033264,1487
885.150085,1441
885.266968,1475
885.383789,1452
885.500671,1442
885.617493,1440
885.734314,1477
885.851196,1458
885.967896,1473
886.084717,1465
886.201599,1432
886.318359,1436
886.435181,1465
886.552002,1444
886.668762,1446
886.785645,1466
886.902344,1458
887.019165,1454
887.135925,1444
887.252747,1472
887.369446,1475
887.486267,1435
887.603027,1489
887.719788,1427
887.836548,1462
887.953247,1463
888.070068,1482
888.186829,1487
888.303528,1452
888.420288,1502
888.536987,1406
888.653687,1462
888.770447,1438
888.887146,1500
889.003967,1495
889.120667,1442
889.237305,1425
889.354065,1483
889.470703,1469
889.587463,1454
889.704163,1493
889.820862,1497
889.937561,1452
890.054199,1489
890.170837,1473
890.287598,1470
890.404236,1463
890.520874,1468
890.637634,1496
890.754211,1495
890.87085,1475
890.987549,1501
891.104187,1470
891.220886,1491
891.337463,1484
891.454102,1480
891.57074,1500
891.687378,1548
891.804077,1519
891.920654,1474
892.037231,1494
892.15387,1484
892.270447,1479
892.387085,1513
892.503723,1504
892.6203,1511
892.736877,1482
892.853516,1534
892.970032,1476
893.08667,1502
893.203186,1499
893.319763,1521
893.43634,1494
893.552917,1512
893.669556,1461
893.786011,1486
893.902588,1513
894.019165,1476
894.135681,1473
894.252197,1497
894.368835,1534
894.485291,1525
894.601868,1482
894.718384,1534
894.8349,1524
894.951355,1527
895.067932,1503
895.184448,1536
895.300964,1501
895.417419,1478
895.533936,1526
895.650452,1505
895.766907,1544
895.883423,1523
895.999878,1481
896.116333,1489
896.232849,1529
896.349304,1507
896.465759,1509
896.582214,1517
896.698669,1522
896.815125,1531
896.931641,1544
897.048035,1495
897.164551,1527
897.280884,1537
897.397339,1475
897.513794,1535
897.630249,1504
897.746582,1530
897.863098,1524
897.979431,1518
898.095886,1551
898.212341,1517
898.328674,1535
898.445129,1548
898.561462,1503
898.677795,1520
898.794312,1528
898.910645,1489
899.026978,1514
899.143433,1516
899.259766,1509
899.37616,1545
899.492493,1532
899.608765,1527
899.725159,1525
899.841553,1512
899.957947,1533
900.07428,1486
900.190552,1518
900.306946,1507
900.423157,1547
900.53949,1542
900.655884,1512
900.772156,1526
900.888489,1516
901.004822,1541
901.121033,1479
901.237366,1499
901.353699,1546
901.46991,1516
901.586304,1520
901.702515,1497
901.818787,1553
901.93512,1560
902.051331,1518
902.167603,1496
902.283875,1550
902.400085,1546
902.516418,1516
902.632629,1528
902.74884,1537
902.865112,1564
902.981384,1503
903.097595,1567
903.213867,1504
903.330017,1526
903.446289,1513
903.5625,1557
903.67865,1520
903.794922,1562
903.911072,1563
904.027344,1587
904.143494,1533
904.259705,1575
904.375916,1556
904.492065,1542
904.608215,1572
904.724426,1572
904.840576,1557
904.956726,1569
905.072876,1528
905.189087,1504
905.305176,1548
905.421387,1556
905.537537,1528
905.653687,1539
905.769775,1545
905.885925,1577
906.002014,1515
906.118164,1564
906.234314,1583
906.350403,1560
906.466492,1565
906.582642,1543
906.69873,1569
906.814758,1520
906.930908,1589
907.046936,1556
907.163086,1533
907.279175,1558
907.395264,1545
907.511353,1551
907.62738,1568
907.743408,1600
907.859497,1547
907.975525,1583
908.091553,1532
908.207703,1553
908.32373,1549
908.439758,1545
908.555786,1545
908.671814,1550
908.787842,1594
908.90387,1560
909.019775,1527
909.135864,1551
909.251892,1559
909.367859,1565
909.483826,1584
909.599854,1556
909.715881,1562
909.831848,1576
909.947815,1551
910.063782,1609
910.179749,1530
910.295776,1557
910.411743,1555
910.527649,1536
910.643616,1580
910.759583,1593
910.875488,1540
910.991455,1583
911.107361,1571
911.223267,1550
911.339294,1588
911.4552,1594
911.571106,1540
911.687073,1582
911.802979,1539
911.918823,1553
912.034729,1578
912.150635,1599
912.266602,1559
912.382446,1564
912.498352,1562
912.614197,1569
912.730103,1590
912.846008,1567
792.44574,2235
792.56488,2207
792.68396,2246
792.80304,2204
792.92218,2123
793.041199,2146
793.160339,2078
793.279419,2154
793.398499,2146
793.517578,2154
793.636658,2067
793.755737,2154
793.874817,2134
793.993896,2114
794.112976,2118
794.232056,2091
794.351074,2116
794.470215,2053
794.589233,2100
794.708313,2012
794.827393,2113
794.946411,2009
795.065552,2025
795.18457,2041
795.303589,2018
795.422668,2058
795.541687,2023
795.660767,2060
795.779846,2007
795.898865,1980
796.017883,1977
796.136963,2004
796.255981,1974
796.375061,2005
796.49408,1986
796.613037,1973
796.732117,1940
796.851135,1977
796.970154,1991
797.089233,1974
797.208191,1935
797.327271,2034
797.446228,1969
797.565186,1954
797.684265,1951
797.803223,2004
797.922241,1937
798.04126,1929
798.160278,1997
798.279297,1929
798.398315,1961
798.517273,1946
798.636292,1953
798.75531,1948
798.874268,1910
798.993286,1959
799.112244,2007
799.231323,1968
799.350281,2000
799.469238,1986
799.588257,2009
799.707153,1936
799.826111,1971
799.945129,2016
800.064087,2017
800.183044,1942
800.302063,1972
800.421021,1929
800.539978,1940
800.658936,1949
800.777893,1956
800.896912,2013
801.015747,1959
801.134705,1990
801.253723,2000
801.37262,1971
801.491638,1985
801.610535,2030
801.729492,1971
801.84845,1971
801.967407,2002
802.086243,1972
802.205261,2014
802.324158,2007
802.443115,2037
802.562073,2023
802.680969,2061
802.799927,2017
802.918762,2010
803.037659,2069
803.156677,2028
803.275574,2046
803.39447,2055
803.513428,2046
803.632263,2041
803.751221,2025
803.870117,2015
803.989014,2037
804.107971,2043
804.226746,2027
804.345642,2048
804.4646,2081
804.583496,2090
804.702393,2048
804.821228,2068
804.940125,2120
805.059021,2100
805.177917,2090
805.296814,2095
805.415649,2131
805.534546,2092
805.653442,2104
805.772278,2116
805.891113,2120
806.01001,2127
806.128906,2123
806.247742,2124
806.366577,2145
806.485413,2135
806.604309,2139
806.723145,2092
806.84198,2141
806.960876,2146
807.079712,2103
807.198486,2103
807.317383,2128
807.436218,2112
807.554993,2125
807.673889,2196
807.792725,2136
807.91156,2174
808.030396,2169
808.14917,2145
808.268005,2149
808.386841,2164
808.505676,2143
808.624451,2212
808.743286,2162
808.862122,2181
808.980896,2134
809.099731,2214
809.218506,2165
809.337341,2186
809.456116,2201
809.57489,2243
809.693726,2165
809.8125,2231
809.931274,2233
810.050049,2207
810.168884,2174
810.287659,2197
810.406372,2211
810.525269,2219
810.643982,2220
810.762756,2259
810.881531,2200
811.000305,2272
811.11908,2231
811.237854,2176
811.356567,2231
811.475403,2207
811.594116,2266
811.71283,2236
811.831604,2189
811.950378,2206
812.069153,2203
812.187927,2233
812.30658,2252
812.425415,2223
812.544128,2276
812.662781,2202
812.781616,2230
812.900269,2215
813.019043,2216
813.137756,2220
813.256531,2235
813.375244,2229
813.493896,2255
813.612671,2274
813.731384,2229
813.850037,2180
813.96875,2245
814.087524,2201
814.206238,2196
814.324951,2183
814.443604,2208
814.562256,2130
814.68103,2221
814.799683,2181
814.918335,2184
815.037109,2156
815.155762,2147
815.274475,2223
815.393188,2156
815.511841,2180
815.630554,2183
815.749146,2135
815.867859,2123
815.986572,2111
816.105164,2140
816.223877,2103
816.342529,2116
816.461182,2157
816.579895,2141
816.698486,2117
816.817139,2122
816.935791,2199
817.054504,2177
817.173096,2136
817.291748,2077
817.4104,2037
817.529053,2053
817.647644,2068
817.766235,2030
817.884949,2008
818.00354,1967
818.122192,1920
818.240845,1841
818.359436,1818
818.478088,1802
818.59668,1787
818.715271,1795
818.833923,1724
818.952515,1723
819.071106,1676
819.189758,1687
819.30835,1620
819.426941,1621
819.545532,1624
819.664124,1619
819.782715,1576
819.901306,1594
820.019897,1564
820.138489,1626
820.25708,1617
820.375671,1549
820.494202,1595
820.612732,1561
820.731384,1582
820.849915,1550
820.968506,1576
821.087097,1554
821.205627,1545
821.324158,1559
821.442749,1562
821.561279,1491
821.679871,1493
821.798401,1505
821.916931,1507
822.035461,1507
822.154053,1522
822.272583,1495
822.391174,1476
822.509583,1561
822.628174,1512
822.746704,1460
822.865234,1499
822.983765,1528
823.102295,1504
823.220825,1521
823.339294,1511
823.457825,1485
823.576355,1485
823.694824,1485
823.813354,1497
823.931885,1513
824.050354,1512
824.168884,1567
824.287354,1569
824.405823,1556
824.524353,1576
824.642822,1553
824.761353,1512
824.879822,1571
824.998291,1497
825.116699,1526
825.235291,1574
825.353699,1460
825.472168,1505
825.590637,1458
825.709106,1476
825.827576,1431
825.946045,1440
826.064453,1461
826.182983,1458
826.301392,1449
826.4198,1470
826.53833,1434
826.656738,1412
826.775208,1445
826.893677,1425
827.012024,1419
827.130493,1431
827.248962,1421
827.36731,1414
827.485779,1395
827.604248,1391
827.722595,1437
827.841064,1410
827.959412,1417
828.077942,1428
828.196289,1393
828.314636,1428
828.433105,1434
828.551514,1365
828.669861,1429
828.78833,1370
828.906677,1426
829.025085,1352
829.143433,1384
829.261841,1377
829.38031,1385
829.498657,1367
829.617004,1432
829.735413,1375
829.85376,1398
829.972107,1399
830.090515,1393
830.208862,1407
830.327209,1367
830.445557,1397
830.563904,1403
830.682312,1390
830.800659,1398
830.919006,1362
831.037354,1354
831.155701,1377
831.274048,1383
831.392395,1387
831.51062,1402
831.629028,1375
831.747314,1430
831.865662,1378
831.984009,1355
832.102356,1408
832.220642,1407
832.338928,1421
832.457275,1377
832.575623,1367
832.693909,1380
832.812134,1383
832.930481,1401
833.048828,1374
833.167114,1403
833.2854,1384
833.403687,1364
833.521973,1393
833.640259,1370
833.758545,1387
833.876831,1389
833.995056,1397
834.113281,1396
834.231628,1417
834.349915,1348
834.468201,1387
834.586426,1407
834.704651,1390
834.822998,1395
834.941162,1369
835.059448,1403
835.177673,1412
835.295959,1405
835.414246,1381
835.53241,1399
835.650635,1369
835.768921,1377
835.887146,1426
836.005371,1451
836.123596,1407
836.241821,1428
836.360046,1478
836.478271,1430
836.596497,1453
836.714722,1472
836.832886,1481
836.95105,1462
837.069336,1470
837.1875,1444
837.305725,1462
837.423889,1485
837.542053,1466
837.660339,1444
837.778503,1475
837.896667,1462
838.014832,1462
838.132996,1480
838.25116,1517
838.369385,1476
838.487488,1462
838.605713,1478
838.723877,1436
838.84198,1428
838.960205,1455
839.078308,1397
839.196472,1443
839.314636,1498
839.4328,1440
839.550964,1467
839.669067,1421
839.787231,1428
839.905396,1471
840.023499,1450
840.141602,1421
840.259766,1446
840.377869,1442
840.495972,1456
840.614136,1450
840.732239,1443
840.850342,1440
840.968445,1414
841.086548,1437
841.204651,1455
841.322754,1408
841.440918,1387
841.55896,1430
841.677002,1382
841.795166,1395
841.913208,1384
842.031311,1404
842.149353,1351
842.267456,1355
842.385498,1370
842.503601,1382
842.621643,1413
842.739746,1387
842.857788,1374
842.97583,1402
843.093933,1374
843.211975,1390
843.330017,1353
843.44812,1327
843.566101,1358
843.684204,1358
843.802246,1350
843.920227,1383
844.038269,1398
844.156311,1360
844.274292,1373
844.392395,1365
844.510376,1343
844.628357,1366
844.74646,1321
844.864441,1356
844.982422,1362
845.100403,1398
845.218384,1338
845.336426,1365
845.454468,1334
845.572449,1370
845.69043,1358
845.808411,1395
845.926453,1344
846.044373,1326
846.162354,1350
846.280396,1359
846.398315,1319
846.516296,1385
846.634216,1378
846.752197,1352
846.870178,1373
846.988098,1362
847.106079,1377
847.22406,1336
847.34198,1380
847.4599,1332
847.577881,1364
847.695801,1345
847.813782,1372
847.931641,1390
848.049561,1390
848.167603,1374
848.285461,1380
848.403381,1333
848.521362,1352
848.639221,1337
848.75708,1370
848.875,1370
848.99292,1325
849.110901,1323
849.22876,1363
849.34668,1380
849.464539,1357
849.582458,1360
849.700317,1358
849.818176,1349
849.936096,1351
850.053955,1392
850.171875,1393
850.289673,1361
850.407593,1317
850.525452,1350
850.643311,1359
850.761169,1356
850.878967,1373
850.996887,1371
851.114746,1379
851.232544,1395
851.350403,1357
851.468262,1373
851.58606,1397
851.703979,1367
851.821777,1331
851.939636,1367
852.057434,1365
852.175232,1401
852.293091,1341
852.410889,1377
852.528687,1353
852.646545,1388
852.764343,1386
852.88208,1386
852.999939,1384
853.117676,1393
853.235535,1401
853.353271,1398
853.471069,1386
853.588928,1394
853.706604,1393
853.824402,1390
853.9422,1437
854.059998,1401
854.177734,1346
854.295532,1425
854.413269,1408
854.531006,1404
854.648804,1340
854.766541,1406
854.884277,1402
855.002014,1401
855.119751,1386
855.237549,1423
855.355225,1386
855.473022,1401
855.590698,1382
855.708435,1437
855.826172,1392
855.943848,1435
856.061646,1394
856.179321,1391
856.296997,1396
856.414795,1413
856.53241,1400
856.650085,1405
856.767822,1425
856.885559,1443
857.003174,1402
857.120911,1374
857.238586,1415
857.356201,1433
857.473938,1381
857.591614,1374
857.709351,1420
857.826965,1366
857.944641,1450
858.062317,1362
858.179993,1355
858.297668,1436
858.415283,1419
858.532959,1440
858.650574,1404
858.768188,1415
858.885803,1438
859.003479,1397
859.121094,1376
859.23877,1405
859.356384,1393
859.473999,1371
859.591675,1375
859.709229,1410
859.826843,1400
859.944458,1400
860.062012,1355
860.179626,1406
860.297302,1363
860.414856,1400
860.532471,1364
860.650024,1379
860.767639,1379
860.885193,1415
861.002808,1368
861.120361,1420
861.237976,1427
861.35553,1411
861.473022,1429
861.590698,1413
861.708191,1379
861.825745,1401
861.943298,1381
862.060852,1386
862.178406,1398
862.295959,1448
862.413513,1382
862.531006,1401
862.64856,1403
862.766113,1394
862.883667,1425
863.00116,1383
863.118713,1435
863.236206,1427
863.353699,1414
863.471252,1388
863.588745,1397
863.706177,1396
863.82373,1409
863.941162,1380
864.058716,1390
864.176208,1451
864.29364,1409
864.411194,1419
864.528687,1410
864.646118,1407
864.763611,1393
864.881042,1452
864.998535,1369
865.116028,1421
865.233459,1383
865.350891,1429
865.468384,1400
865.585754,1429
865.703308,1419
865.820679,1444
865.938171,1376
866.055542,1466
866.173035,1379
866.290466,1417
866.407837,1362
866.52533,1464
866.6427,1421
866.760071,1409
866.877563,1399
866.994934,1410
867.112305,1429
867.229736,1419
867.347107,1399
867.464539,1413
867.58197,1420
867.699341,1448
867.81665,1388
867.934082,1395
868.051453,1392
868.168823,1352
868.286194,1431
868.403564,1441
868.520935,1452
868.638306,1470
868.755676,1420
868.872986,1401
868.990295,1432
869.107727,1473
869.225037,1448
869.342346,1407
869.459717,1418
869.577026,1383
869.694336,1485
869.811707,1400
869.929016,1412
870.046326,1448
870.163635,1408
870.280945,1388
870.398254,1404
870.515564,1376
870.632812,1376
870.750183,1421
870.867432,1423
870.984741,1456
871.102051,1434
871.219299,1410
871.336609,1419
871.453918,1437
871.571106,1423
871.688416,1397
871.805664,1411
871.922852,1405
872.040222,1405
872.157471,1397
872.274719,1410
872.391968,1396
872.509155,1449
872.626465,1367
872.743652,1430
872.860962,1417
872.978149,1430
873.095337,1415
873.212646,1423
873.329834,1415
873.44696,1415
873.564209,1422
873.681396,1427
873.798645,1402
873.915894,1444
874.03302,1393
874.150208,1380
874.267456,1421
874.384583,1440
874.501831,1435
874.618958,1458
874.736145,1432
874.853333,1423
874.970459,1404
875.087646,1428
875.204834,1441
875.32196,1415
875.439148,1442
875.556274,1415
875.673401,1413
875.790527,1480
875.907715,1477
876.024841,1405
876.141968,1440
876.259094,1435
876.376282,1457
876.493347,1402
876.610474,1437
876.7276,1433
876.844727,1457
876.961853,1430
877.078918,1449
877.195984,1456
877.313171,1416
877.430237,1456
877.547302,1451
877.664368,1379
877.781433,1447
877.898499,1417
878.015625,1438
878.13269,1420
878.249695,1431
878.366821,1430
878.483887,1434
878.600952,1402
878.717957,1428
878.834961,1453
878.952087,1402
879.069092,1461
879.186157,1440
879.303162,1422
879.420227,1447
879.537231,1380
879.654236,1432
879.77124,1434
879.888306,1403
880.005249,1454
880.122314,1442
880.239319,1413
880.356323,1452
880.473328,1436
880.590271,1433
880.707275,1483
880.824341,1452
880.941284,1445
881.058228,1428
881.175232,1415
881.292236,1436
881.40918,1399
881.526123,1445
881.643066,1442
881.760071,1459
881.877014,1455
881.993958,1480
882.11084,1463
882.227783,1427
882.344727,1434
882.46167,1454
882.578613,1472
882.695618,1433
882.812439,1443
882.929382,1473
883.046326,1455
883.163208,1503
883.280151,1434
883.397034,1475
883.513916,1436
883.630798,1438
883.747742,1485
883.864563,1428
883.981506,1474
884.098389,1456
884.21521,1457
884.332153,1479
884.448975,1452
884.565796,1493
884.682678,1435
884.7995,1436
884.916443,1491
885.033264,1488
885.150085,1472
885.266968,1457
885.383789,1416
885.500671,1472
885.617493,1475
885.734314,1447
885.851196,1495
885.967896,1466
886.084717,1458
886.201599,1469
886.318359,1465
886.435181,1426
886.552002,1494
886.668762,1486
886.785645,1503
886.902344,1494
887.019165,1432
887.135925,1516
887.252747,1464
887.369446,1440
887.486267,1503
887.603027,1420
887.719788,1501
887.836548,1497
887.953247,1467
888.070068,1486
888.186829,1450
888.303528,1471
888.420288,1453
888.536987,1494
888.653687,1475
888.770447,1466
888.887146,1463
889.003967,1470
889.120667,1430
889.237305,1526
889.354065,1475
889.470703,1498
889.587463,1453
889.704163,1491
889.820862,1476
889.937561,1445
890.054199,1505
890.170837,1457
890.287598,1495
890.404236,1477
890.520874,1456
890.637634,1489
890.754211,1494
890.87085,1484
890.987549,1522
891.104187,1505
891.220886,1493
891.337463,1482
891.454102,1489
891.57074,1530
891.687378,1521
891.804077,1489
891.920654,1458
892.037231,1489
892.15387,1502
892.270447,1515
892.387085,1499
892.503723,1483
892.6203,1495
892.736877,1499
892.853516,1479
892.970032,1494
893.08667,1495
893.203186,1507
893.319763,1481
893.43634,1505
893.552917,1482
893.669556,1533
893.786011,1525
893.902588,1493
894.019165,1521
894.135681,1541
894.252197,1527
894.368835,1484
894.485291,1488
894.601868,1477
894.718384,1477
894.8349,1489
894.951355,1527
895.067932,1505
895.184448,1501
895.300964,1557
895.417419,1563
895.533936,1507
895.650452,1494
895.766907,1511
895.883423,1542
895.999878,1531
896.116333,1502
896.232849,1554
896.349304,1506
896.465759,1511
896.582214,1523
896.698669,1512
896.815125,1514
896.931641,1480
897.048035,1495
897.164551,1525
897.280884,1536
897.397339,1525
897.513794,1486
897.630249,1522
897.746582,1530
897.863098,1518
897.979431,1528
898.095886,1536
898.212341,1529
898.328674,1563
898.445129,1547
898.561462,1540
898.677795,1529
898.794312,1520
898.910645,1490
899.026978,1490
899.143433,1526
899.259766,1532
899.37616,1516
899.492493,1582
899.608765,1514
899.725159,1523
899.841553,1493
899.957947,1555
900.07428,1529
900.190552,1529
900.306946,1558
900.423157,1541
900.53949,1512
900.655884,1609
900.772156,1478
900.888489,1530
901.004822,1568
901.121033,1545
901.237366,1517
901.353699,1522
901.46991,1504
901.586304,1508
901.702515,1535
901.818787,1492
901.93512,1540
902.051331,1532
902.167603,1553
902.283875,1593
902.400085,1521
902.516418,1584
902.632629,1542
902.74884,1504
902.865112,1534
902.981384,1513
903.097595,1548
903.213867,1597
903.330017,1581
903.446289,1515
903.5625,1519
903.67865,1536
903.794922,1559
903.911072,1534
904.027344,1511
904.143494,1596
904.259705,1577
904.375916,1516
904.492065,1543
904.608215,1565
904.724426,1519
904.840576,1556
904.956726,1517
905.072876,1572
905.189087,1542
905.305176,1563
905.421387,1583
905.537537,1590
905.653687,1540
905.769775,1544
905.885925,1584
906.002014,1514
906.118164,1544
906.234314,1592
906.350403,1539
906.466492,1574
906.582642,1563
906.69873,1585
906.814758,1574
906.930908,1575
907.046936,1566
907.163086,1575
907.279175,1541
907.395264,1595
907.511353,1535
907.62738,1538
907.743408,1598
907.859497,1554
907.975525,1566
908.091553,1582
908.207703,1573
908.32373,1526
908.439758,1536
908.555786,1545
908.671814,1587
908.787842,1557
908.90387,1524
909.019775,1586
909.135864,1551
909.251892,1563
909.367859,1568
909.483826,1568
909.599854,1551
909.715881,1629
909.831848,1584
909.947815,1564
910.063782,1553
910.179749,1605
910.295776,1568
910.411743,1586
910.527649,1582
910.643616,1583
910.759583,1582
910.875488,1588
910.991455,1585
911.107361,1544
911.223267,1580
911.339294,1563
911.4552,1562
911.571106,1620
911.687073,1521
911.802979,1578
911.918823,1560
912.034729,1537
912.150635,1561
912.266602,1563
912.382446,1538
912.498352,1555
912.614197,1588
912.730103,1545
912.846008,1571
