792.44574,2734
792.56488,2693
792.68396,2585
792.80304,2553
792.92218,2458
793.041199,2471
793.160339,2418
793.279419,2412
793.398499,2359
793.517578,2333
793.636658,2308
793.755737,2309
793.874817,2214
793.993896,2227
794.112976,2168
794.232056,2129
794.351074,2091
794.470215,2094
794.589233,2096
794.708313,2123
794.827393,2075
794.946411,2018
795.065552,2055
795.18457,2036
795.303589,1981
795.422668,2011
795.541687,2018
795.660767,2024
795.779846,1931
795.898865,1945
796.017883,1939
796.136963,1946
796.255981,1884
796.375061,1936
796.49408,1936
796.613037,1909
796.732117,1873
796.851135,1866
796.970154,1857
797.089233,1817
797.208191,1841
797.327271,1794
797.446228,1793
797.565186,1813
797.684265,1761
797.803223,1762
797.922241,1773
798.04126,1796
798.160278,1755
798.279297,1808
798.398315,1789
798.517273,1764
798.636292,1727
798.75531,1733
798.874268,1757
798.993286,1800
799.112244,1730
799.231323,1775
799.350281,1707
799.469238,1750
799.588257,1735
799.707153,1740
799.826111,1688
799.945129,1729
800.064087,1728
800.183044,1745
800.302063,1767
800.421021,1743
800.539978,1697
800.658936,1726
800.777893,1666
800.896912,1670
801.015747,1693
801.134705,1689
801.253723,1682
801.37262,1673
801.491638,1676
801.610535,1709
801.729492,1702
801.84845,1689
801.967407,1696
802.086243,1652
802.205261,1696
802.324158,1649
802.443115,1677
802.562073,1641
802.680969,1622
802.799927,1653
802.918762,1660
803.037659,1676
803.156677,1646
803.275574,1625
803.39447,1613
803.513428,1628
803.632263,1670
803.751221,1657
803.870117,1647
803.989014,1611
804.107971,1645
804.226746,1634
804.345642,1634
804.4646,1659
804.583496,1632
804.702393,1575
804.821228,1625
804.940125,1642
805.059021,1618
805.177917,1600
805.296814,1621
805.415649,1652
805.534546,1609
805.653442,1616
805.772278,1596
805.891113,1626
806.01001,1628
806.128906,1591
806.247742,1590
806.366577,1613
806.485413,1643
806.604309,1591
806.723145,1621
806.84198,1618
806.960876,1608
807.079712,1572
807.198486,1604
807.317383,1592
807.436218,1598
807.554993,1613
807.673889,1568
807.792725,1575
807.91156,1561
808.030396,1618
808.14917,1614
808.268005,1614
808.386841,1610
808.505676,1651
808.624451,1618
808.743286,1561
808.862122,1572
808.980896,1605
809.099731,1564
809.218506,1586
809.337341,1579
809.456116,1575
809.57489,1596
809.693726,1584
809.8125,1594
809.931274,1643
810.050049,1581
810.168884,1532
810.287659,1574
810.406372,1586
810.525269,1552
810.643982,1592
810.762756,1581
810.881531,1578
811.000305,1597
811.11908,1612
811.237854,1645
811.356567,1560
811.475403,1600
811.594116,1568
811.71283,1569
811.831604,1560
811.950378,1599
812.069153,1620
812.187927,1596
812.30658,1594
812.425415,1536
812.544128,1602
812.662781,1614
812.781616,1598
812.900269,1574
813.019043,1586
813.137756,1629
813.256531,1590
813.375244,1590
813.493896,1602
813.612671,1563
813.731384,1594
813.850037,1572
813.96875,1512
814.087524,1578
814.206238,1527
814.324951,1538
814.443604,1542
814.562256,1528
814.68103,1571
814.799683,1546
814.918335,1582
815.037109,1591
815.155762,1563
815.274475,1561
815.393188,1522
815.511841,1504
815.630554,1538
815.749146,1568
815.867859,1490
815.986572,1519
816.105164,1541
816.223877,1525
816.342529,1545
816.461182,1535
816.579895,1509
816.698486,1575
816.817139,1514
816.935791,1581
817.054504,1579
817.173096,1593
817.291748,1532
817.4104,1525
817.529053,1509
817.647644,1522
817.766235,1542
817.884949,1513
818.00354,1524
818.122192,1475
818.240845,1498
818.359436,1467
818.478088,1550
818.59668,1468
818.715271,1473
818.833923,1456
818.952515,1478
819.071106,1479
819.189758,1436
819.30835,1423
819.426941,1444
819.545532,1405
819.664124,1449
819.782715,1409
819.901306,1468
820.019897,1375
820.138489,1409
820.25708,1400
820.375671,1484
820.494202,1412
820.612732,1414
820.731384,1449
820.849915,1399
820.968506,1394
821.087097,1418
821.205627,1417
821.324158,1441
821.442749,1394
821.561279,1448
821.679871,1434
821.798401,1431
821.916931,1431
822.035461,1418
822.154053,1379
822.272583,1372
822.391174,1406
822.509583,1422
822.628174,1366
822.746704,1429
822.865234,1362
822.983765,1430
823.102295,1431
823.220825,1431
823.339294,1348
823.457825,1401
823.576355,1390
823.694824,1418
823.813354,1389
823.931885,1397
824.050354,1405
824.168884,1400
824.287354,1374
824.405823,1406
824.524353,1432
824.642822,1414
824.761353,1394
824.879822,1421
824.998291,1364
825.116699,1364
825.235291,1372
825.353699,1380
825.472168,1382
825.590637,1379
825.709106,1356
825.827576,1387
825.946045,1361
826.064453,1386
826.182983,1403
826.301392,1377
826.4198,1355
826.53833,1356
826.656738,1354
826.775208,1352
826.893677,1347
827.012024,1371
827.130493,1369
827.248962,1405
827.36731,1313
827.485779,1369
827.604248,1334
827.722595,1337
827.841064,1331
827.959412,1360
828.077942,1360
828.196289,1364
828.314636,1340
828.433105,1338
828.551514,1360
828.669861,1351
828.78833,1355
828.906677,1364
829.025085,1363
829.143433,1392
829.261841,1351
829.38031,1345
829.498657,1320
829.617004,1325
829.735413,1388
829.85376,1314
829.972107,1340
830.090515,1348
830.208862,1354
830.327209,1295
830.445557,1327
830.563904,1354
830.682312,1308
830.800659,1311
830.919006,1351
831.037354,1370
831.155701,1363
831.274048,1348
831.392395,1381
831.51062,1358
831.629028,1381
831.747314,1403
831.865662,1360
831.984009,1339
832.102356,1343
832.220642,1372
832.338928,1383
832.457275,1356
832.575623,1386
832.693909,1374
832.812134,1365
832.930481,1391
833.048828,1355
833.167114,1385
833.2854,1361
833.403687,1387
833.521973,1351
833.640259,1349
833.758545,1321
833.876831,1375
833.995056,1326
834.113281,1343
834.231628,1359
834.349915,1349
834.468201,1345
834.586426,1375
834.704651,1329
834.822998,1377
834.941162,1373
835.059448,1340
835.177673,1386
835.295959,1373
835.414246,1349
835.53241,1383
835.650635,1359
835.768921,1328
835.887146,1340
836.005371,1329
836.123596,1352
836.241821,1341
836.360046,1332
836.478271,1369
836.596497,1352
836.714722,1342
836.832886,1310
836.95105,1362
837.069336,1331
837.1875,1361
837.305725,1342
837.423889,1374
837.542053,1375
837.660339,1340
837.778503,1380
837.896667,1348
838.014832,1352
838.132996,1341
838.25116,1372
838.369385,1373
838.487488,1369
838.605713,1367
838.723877,1360
838.84198,1357
838.960205,1384
839.078308,1343
839.196472,1378
839.314636,1335
839.4328,1416
839.550964,1344
839.669067,1385
839.787231,1389
839.905396,1399
840.023499,1383
840.141602,1363
840.259766,1405
840.377869,1370
840.495972,1412
840.614136,1427
840.732239,1359
840.850342,1354
840.968445,1441
841.086548,1410
841.204651,1472
841.322754,1387
841.440918,1428
841.55896,1418
841.677002,1395
841.795166,1409
841.913208,1429
842.031311,1410
842.149353,1419
842.267456,1404
842.385498,1388
842.503601,1374
842.621643,1400
842.739746,1409
842.857788,1382
842.97583,1414
843.093933,1412
843.211975,1373
843.330017,1440
843.44812,1397
843.566101,1363
843.684204,1405
843.802246,1420
843.920227,1399
844.038269,1438
844.156311,1372
844.274292,1408
844.392395,1359
844.510376,1392
844.628357,1413
844.74646,1403
844.864441,1407
844.982422,1386
845.100403,1384
845.218384,1388
845.336426,1390
845.454468,1380
845.572449,1415
845.69043,1371
845.808411,1369
845.926453,1354
846.044373,1412
846.162354,1367
846.280396,1399
846.398315,1380
846.516296,1392
846.634216,1398
846.752197,1420
846.870178,1383
846.988098,1402
847.106079,1339
847.22406,1408
847.34198,1372
847.4599,1336
847.577881,1378
847.695801,1403
847.813782,1399
847.931641,1388
848.049561,1395
848.167603,1387
848.285461,1411
848.403381,1429
848.521362,1391
848.639221,1349
848.75708,1413
848.875,1408
848.99292,1390
849.110901,1431
849.22876,1396
849.34668,1412
849.464539,1382
849.582458,1385
849.700317,1375
849.818176,1395
849.936096,1440
850.053955,1406
850.171875,1390
850.289673,1381
850.407593,1433
850.525452,1383
850.643311,1417
850.761169,1407
850.878967,1428
850.996887,1358
851.114746,1379
851.232544,1344
851.350403,1362
851.468262,1349
851.58606,1369
851.703979,1405
851.821777,1375
851.939636,1407
852.057434,1336
852.175232,1370
852.293091,1398
852.410889,1390
852.528687,1418
852.646545,1461
852.764343,1451
852.88208,1444
852.999939,1435
853.117676,1413
853.235535,1430
853.353271,1409
853.471069,1425
853.588928,1418
853.706604,1381
853.824402,1422
853.9422,1372
854.059998,1394
854.177734,1393
854.295532,1413
854.413269,1420
854.531006,1409
854.648804,1405
854.766541,1418
854.884277,1405
855.002014,1388
855.119751,1402
855.237549,1414
855.355225,1370
855.473022,1423
855.590698,1393
855.708435,1420
855.826172,1374
855.943848,1418
856.061646,1382
856.179321,1399
856.296997,1426
856.414795,1409
856.53241,1385
856.650085,1397
856.767822,1409
856.885559,1446
857.003174,1441
857.120911,1407
857.238586,1443
857.356201,1450
857.473938,1404
857.591614,1411
857.709351,1442
857.826965,1388
857.944641,1429
858.062317,1430
858.179993,1416
858.297668,1449
858.415283,1422
858.532959,1454
858.650574,1428
858.768188,1421
858.885803,1396
859.003479,1380
859.121094,1409
859.23877,1441
859.356384,1378
859.473999,1409
859.591675,1400
859.709229,1454
859.826843,1412
859.944458,1377
860.062012,1425
860.179626,1364
860.297302,1368
860.414856,1360
860.532471,1330
860.650024,1400
860.767639,1392
860.885193,1418
861.002808,1377
861.120361,1404
861.237976,1396
861.35553,1413
861.473022,1368
861.590698,1418
861.708191,1423
861.825745,1409
861.943298,1370
862.060852,1400
862.178406,1396
862.295959,1347
862.413513,1339
862.531006,1359
862.64856,1337
862.766113,1356
862.883667,1353
863.00116,1368
863.118713,1389
863.236206,1368
863.353699,1375
863.471252,1328
863.588745,1394
863.706177,1418
863.82373,1381
863.941162,1382
864.058716,1386
864.176208,1384
864.29364,1372
864.411194,1415
864.528687,1393
864.646118,1404
864.763611,1366
864.881042,1368
864.998535,1406
865.116028,1355
865.233459,1354
865.350891,1373
865.468384,1388
865.585754,1367
865.703308,1388
865.820679,1381
865.938171,1357
866.055542,1348
866.173035,1383
866.290466,1419
866.407837,1360
866.52533,1377
866.6427,1388
866.760071,1353
866.877563,1370
866.994934,1376
867.112305,1391
867.229736,1359
867.347107,1375
867.464539,1389
867.58197,1376
867.699341,1402
867.81665,1385
867.934082,1394
868.051453,1431
868.168823,1391
868.286194,1393
868.403564,1345
868.520935,1388
868.638306,1397
868.755676,1419
868.872986,1404
868.990295,1397
869.107727,1400
869.225037,1353
869.342346,1401
869.459717,1408
869.577026,1394
869.694336,1411
869.811707,1407
869.929016,1446
870.046326,1399
870.163635,1442
870.280945,1428
870.398254,1434
870.515564,1398
870.632812,1429
870.750183,1480
870.867432,1472
870.984741,1439
871.102051,1449
871.219299,1411
871.336609,1448
871.453918,1462
871.571106,1439
871.688416,1486
871.805664,1478
871.922852,1459
872.040222,1461
872.157471,1496
872.274719,1474
872.391968,1501
872.509155,1495
872.626465,1444
872.743652,1469
872.860962,1470
872.978149,1475
873.095337,1455
873.212646,1378
873.329834,1418
873.44696,1460
873.564209,1399
873.681396,1468
873.798645,1438
873.915894,1480
874.03302,1452
874.150208,1458
874.267456,1462
874.384583,1445
874.501831,1506
874.618958,1454
874.736145,1491
874.853333,1481
874.970459,1475
875.087646,1494
875.204834,1440
875.32196,1466
875.439148,1474
875.556274,1472
875.673401,1420
875.790527,1458
875.907715,1425
876.024841,1475
876.141968,1454
876.259094,1424
876.376282,1452
876.493347,1446
876.610474,1429
876.7276,1415
876.844727,1363
876.961853,1399
877.078918,1483
877.195984,1409
877.313171,1410
877.430237,1434
877.547302,1434
877.664368,1419
877.781433,1389
877.898499,1418
878.015625,1394
878.13269,1430
878.249695,1426
878.366821,1410
878.483887,1391
878.600952,1388
878.717957,1440
878.834961,1360
878.952087,1411
879.069092,1406
879.186157,1384
879.303162,1409
879.420227,1360
879.537231,1403
879.654236,1400
879.77124,1392
879.888306,1409
880.005249,1334
880.122314,1355
880.239319,1395
880.356323,1344
880.473328,1389
880.590271,1369
880.707275,1367
880.824341,1380
880.941284,1382
881.058228,1378
881.175232,1381
881.292236,1379
881.40918,1401
881.526123,1339
881.643066,1359
881.760071,1389
881.877014,1344
881.993958,1361
882.11084,1372
882.227783,1322
882.344727,1361
882.46167,1388
882.578613,1360
882.695618,1371
882.812439,1365
882.929382,1410
883.046326,1382
883.163208,1396
883.280151,1429
883.397034,1426
883.513916,1393
883.630798,1377
883.747742,1386
883.864563,1396
883.981506,1409
884.098389,1439
884.21521,1395
884.332153,1429
884.448975,1438
884.565796,1477
884.682678,1458
884.7995,1497
884.916443,1508
885.033264,1542
885.150085,1591
885.266968,1583
885.383789,1646
885.500671,1614
885.617493,1652
885.734314,1591
885.851196,1607
885.967896,1611
886.084717,1618
886.201599,1583
886.318359,1569
886.435181,1563
886.552002,1597
886.668762,1533
886.785645,1516
886.902344,1544
887.019165,1546
887.135925,1504
887.252747,1549
887.369446,1513
887.486267,1503
887.603027,1452
887.719788,1470
887.836548,1437
887.953247,1476
888.070068,1422
888.186829,1440
888.303528,1417
888.420288,1394
888.536987,1404
888.653687,1430
888.770447,1406
888.887146,1399
889.003967,1410
889.120667,1397
889.237305,1404
889.354065,1379
889.470703,1411
889.587463,1354
889.704163,1386
889.820862,1352
889.937561,1386
890.054199,1364
890.170837,1384
890.287598,1396
890.404236,1366
890.520874,1382
890.637634,1365
890.754211,1411
890.87085,1387
890.987549,1370
891.104187,1418
891.220886,1385
891.337463,1384
891.454102,1350
891.57074,1428
891.687378,1402
891.804077,1355
891.920654,1425
892.037231,1402
892.15387,1446
892.270447,1364
892.387085,1373
892.503723,1389
892.6203,1437
892.736877,1431
892.853516,1418
892.970032,1403
893.08667,1404
893.203186,1345
893.319763,1332
893.43634,1403
893.552917,1387
893.669556,1453
893.786011,1367
893.902588,1382
894.019165,1381
894.135681,1393
894.252197,1385
894.368835,1407
894.485291,1350
894.601868,1396
894.718384,1383
894.8349,1366
894.951355,1348
895.067932,1370
895.184448,1371
895.300964,1420
895.417419,1352
895.533936,1400
895.650452,1366
895.766907,1416
895.883423,1387
895.999878,1395
896.116333,1425
896.232849,1377
896.349304,1365
896.465759,1410
896.582214,1357
896.698669,1377
896.815125,1404
896.931641,1381
897.048035,1421
897.164551,1405
897.280884,1345
897.397339,1406
897.513794,1404
897.630249,1441
897.746582,1418
897.863098,1374
897.979431,1401
898.095886,1346
898.212341,1388
898.328674,1408
898.445129,1368
898.561462,1444
898.677795,1420
898.794312,1418
898.910645,1375
899.026978,1413
899.143433,1425
899.259766,1424
899.37616,1387
899.492493,1415
899.608765,1413
899.725159,1445
899.841553,1411
899.957947,1345
900.07428,1430
900.190552,1441
900.306946,1401
900.423157,1403
900.53949,1443
900.655884,1392
900.772156,1445
900.888489,1436
901.004822,1421
901.121033,1445
901.237366,1403
901.353699,1447
901.46991,1436
901.586304,1426
901.702515,1445
901.818787,1409
901.93512,1457
902.051331,1452
902.167603,1474
902.283875,1499
902.400085,1462
902.516418,1466
902.632629,1507
902.74884,1519
902.865112,1559
902.981384,1569
903.097595,1504
903.213867,1540
903.330017,1586
903.446289,1452
903.5625,1513
903.67865,1486
903.794922,1529
903.911072,1475
904.027344,1441
904.143494,1450
904.259705,1493
904.375916,1463
904.492065,1441
904.608215,1434
904.724426,1412
904.840576,1479
904.956726,1441
905.072876,1426
905.189087,1415
905.305176,1391
905.421387,1446
905.537537,1396
905.653687,1430
905.769775,1435
905.885925,1420
906.002014,1403
906.118164,1416
906.234314,1431
906.350403,1389
906.466492,1425
906.582642,1406
906.69873,1413
906.814758,1417
906.930908,1428
907.046936,1405
907.163086,1397
907.279175,1390
907.395264,1432
907.511353,1387
907.62738,1393
907.743408,1372
907.859497,1407
907.975525,1445
908.091553,1425
908.207703,1402
908.32373,1445
908.439758,1390
908.555786,1451
908.671814,1402
908.787842,1405
908.90387,1454
909.019775,1434
909.135864,1432
909.251892,1397
909.367859,1401
909.483826,1451
909.599854,1422
909.715881,1388
909.831848,1448
909.947815,1420
910.063782,1400
910.179749,1436
910.295776,1428
910.411743,1423
910.527649,1408
910.643616,1405
910.759583,1426
910.875488,1434
910.991455,1402
911.107361,1409
911.223267,1470
911.339294,1409
911.4552,1385
911.571106,1446
911.687073,1404
911.802979,1411
911.918823,1414
912.034729,1427
912.150635,1404
912.266602,1414
912.382446,1417
912.498352,1406
912.614197,1406
912.730103,1426
912.846008,1412
792.44574,2679
792.56488,2681
792.68396,2598
792.80304,2587
792.92218,2527
793.041199,2493
793.160339,2441
793.279419,2439
793.398499,2415
793.517578,2387
793.636658,2268
793.755737,2362
793.874817,2240
793.993896,2250
794.112976,2225
794.232056,2208
794.351074,2192
794.470215,2191
794.589233,2143
794.708313,2113
794.827393,2063
794.946411,2057
795.065552,2032
795.18457,2063
795.303589,2030
795.422668,2024
795.541687,2065
795.660767,2025
795.779846,1949
795.898865,1991
796.017883,2000
796.136963,1905
796.255981,1989
796.375061,1944
796.49408,1969
796.613037,1946
796.732117,1905
796.851135,1922
796.970154,1832
797.089233,1877
797.208191,1889
797.327271,1850
797.446228,1816
797.565186,1837
797.684265,1811
797.803223,1764
797.922241,1802
798.04126,1821
798.160278,1821
798.279297,1821
798.398315,1803
798.517273,1780
798.636292,1768
798.75531,1801
798.874268,1848
798.993286,1786
799.112244,1726
799.231323,1759
799.350281,1765
799.469238,1760
799.588257,1761
799.707153,1786
799.826111,1778
799.945129,1721
800.064087,1742
800.183044,1815
800.302063,1762
800.421021,1765
800.539978,1745
800.658936,1698
800.777893,1760
800.896912,1725
801.015747,1737
801.134705,1713
801.253723,1716
801.37262,1702
801.491638,1698
801.610535,1724
801.729492,1731
801.84845,1706
801.967407,1727
802.086243,1738
802.205261,1735
802.324158,1685
802.443115,1728
802.562073,1696
802.680969,1692
802.799927,1688
802.918762,1702
803.037659,1660
803.156677,1656
803.275574,1680
803.39447,1665
803.513428,1692
803.632263,1689
803.751221,1668
803.870117,1690
803.989014,1684
804.107971,1660
804.226746,1686
804.345642,1650
804.4646,1667
804.583496,1681
804.702393,1639
804.821228,1651
804.940125,1710
805.059021,1637
805.177917,1684
805.296814,1616
805.415649,1684
805.534546,1643
805.653442,1639
805.772278,1688
805.891113,1648
806.01001,1687
806.128906,1672
806.247742,1654
806.366577,1639
806.485413,1641
806.604309,1615
806.723145,1670
806.84198,1693
806.960876,1666
807.079712,1652
807.198486,1629
807.317383,1606
807.436218,1601
807.554993,1625
807.673889,1602
807.792725,1620
807.91156,1666
808.030396,1613
808.14917,1612
808.268005,1621
808.386841,1623
808.505676,1642
808.624451,1643
808.743286,1676
808.862122,1610
808.980896,1611
809.099731,1630
809.218506,1565
809.337341,1639
809.456116,1639
809.57489,1637
809.693726,1653
809.8125,1633
809.931274,1624
810.050049,1631
810.168884,1609
810.287659,1600
810.406372,1603
810.525269,1673
810.643982,1663
810.762756,1611
810.881531,1639
811.000305,1639
811.11908,1594
811.237854,1583
811.356567,1627
811.475403,1609
811.594116,1662
811.71283,1618
811.831604,1650
811.950378,1608
812.069153,1563
812.187927,1685
812.30658,1608
812.425415,1611
812.544128,1619
812.662781,1608
812.781616,1606
812.900269,1601
813.019043,1599
813.137756,1662
813.256531,1609
813.375244,1623
813.493896,1628
813.612671,1670
813.731384,1599
813.850037,1577
813.96875,1601
814.087524,1600
814.206238,1599
814.324951,1535
814.443604,1584
814.562256,1613
814.68103,1625
814.799683,1568
814.918335,1603
815.037109,1597
815.155762,1599
815.274475,1558
815.393188,1589
815.511841,1565
815.630554,1556
815.749146,1563
815.867859,1557
815.986572,1580
816.105164,1557
816.223877,1547
816.342529,1507
816.461182,1569
816.579895,1530
816.698486,1616
816.817139,1588
816.935791,1582
817.054504,1591
817.173096,1537
817.291748,1581
817.4104,1553
817.529053,1548
817.647644,1533
817.766235,1561
817.884949,1508
818.00354,1534
818.122192,1509
818.240845,1505
818.359436,1511
818.478088,1500
818.59668,1513
818.715271,1493
818.833923,1485
818.952515,1506
819.071106,1500
819.189758,1432
819.30835,1460
819.426941,1461
819.545532,1446
819.664124,1485
819.782715,1403
819.901306,1463
820.019897,1439
820.138489,1474
820.25708,1465
820.375671,1447
820.494202,1489
820.612732,1471
820.731384,1454
820.849915,1486
820.968506,1447
821.087097,1425
821.205627,1414
821.324158,1418
821.442749,1439
821.561279,1444
821.679871,1417
821.798401,1455
821.916931,1417
822.035461,1427
822.154053,1447
822.272583,1432
822.391174,1407
822.509583,1424
822.628174,1423
822.746704,1437
822.865234,1457
822.983765,1399
823.102295,1365
823.220825,1428
823.339294,1418
823.457825,1422
823.576355,1449
823.694824,1441
823.813354,1424
823.931885,1471
824.050354,1394
824.168884,1391
824.287354,1374
824.405823,1420
824.524353,1440
824.642822,1391
824.761353,1450
824.879822,1382
824.998291,1440
825.116699,1456
825.235291,1391
825.353699,1415
825.472168,1397
825.590637,1408
825.709106,1395
825.827576,1394
825.946045,1386
826.064453,1422
826.182983,1377
826.301392,1397
826.4198,1380
826.53833,1393
826.656738,1364
826.775208,1387
826.893677,1350
827.012024,1405
827.130493,1393
827.248962,1402
827.36731,1391
827.485779,1399
827.604248,1367
827.722595,1398
827.841064,1360
827.959412,1395
828.077942,1338
828.196289,1402
828.314636,1363
828.433105,1381
828.551514,1350
828.669861,1372
828.78833,1365
828.906677,1332
829.025085,1371
829.143433,1375
829.261841,1318
829.38031,1374
829.498657,1353
829.617004,1343
829.735413,1386
829.85376,1362
829.972107,1403
830.090515,1394
830.208862,1361
830.327209,1368
830.445557,1320
830.563904,1395
830.682312,1375
830.800659,1398
830.919006,1412
831.037354,1374
831.155701,1382
831.274048,1380
831.392395,1412
831.51062,1379
831.629028,1340
831.747314,1414
831.865662,1334
831.984009,1399
832.102356,1380
832.220642,1357
832.338928,1452
832.457275,1386
832.575623,1405
832.693909,1395
832.812134,1389
832.930481,1429
833.048828,1372
833.167114,1387
833.2854,1323
833.403687,1404
833.521973,1404
833.640259,1379
833.758545,1388
833.876831,1368
833.995056,1398
834.113281,1374
834.231628,1368
834.349915,1343
834.468201,1367
834.586426,1382
834.704651,1358
834.822998,1400
834.941162,1387
835.059448,1418
835.177673,1374
835.295959,1400
835.414246,1393
835.53241,1392
835.650635,1363
835.768921,1355
835.887146,1413
836.005371,1388
836.123596,1333
836.241821,1379
836.360046,1335
836.478271,1378
836.596497,1381
836.714722,1379
836.832886,1359
836.95105,1374
837.069336,1404
837.1875,1384
837.305725,1370
837.423889,1395
837.542053,1372
837.660339,1402
837.778503,1336
837.896667,1376
838.014832,1384
838.132996,1379
838.25116,1397
838.369385,1381
838.487488,1402
838.605713,1384
838.723877,1357
838.84198,1360
838.960205,1391
839.078308,1388
839.196472,1372
839.314636,1379
839.4328,1457
839.550964,1394
839.669067,1358
839.787231,1363
839.905396,1400
840.023499,1374
840.141602,1432
840.259766,1417
840.377869,1419
840.495972,1430
840.614136,1400
840.732239,1425
840.850342,1431
840.968445,1427
841.086548,1436
841.204651,1423
841.322754,1436
841.440918,1437
841.55896,1459
841.677002,1395
841.795166,1446
841.913208,1430
842.031311,1431
842.149353,1402
842.267456,1449
842.385498,1411
842.503601,1421
842.621643,1414
842.739746,1418
842.857788,1403
842.97583,1418
843.093933,1416
843.211975,1452
843.330017,1456
843.44812,1359
843.566101,1428
843.684204,1431
843.802246,1414
843.920227,1451
844.038269,1400
844.156311,1411
844.274292,1402
844.392395,1428
844.510376,1419
844.628357,1410
844.74646,1448
844.864441,1418
844.982422,1396
845.100403,1419
845.218384,1388
845.336426,1402
845.454468,1392
845.572449,1408
845.69043,1433
845.808411,1421
845.926453,1411
846.044373,1388
846.162354,1381
846.280396,1391
846.398315,1396
846.516296,1386
846.634216,1429
846.752197,1388
846.870178,1453
846.988098,1439
847.106079,1403
847.22406,1359
847.34198,1432
847.4599,1389
847.577881,1443
847.695801,1388
847.813782,1415
847.931641,1457
848.049561,1469
848.167603,1384
848.285461,1389
848.403381,1442
848.521362,1417
848.639221,1390
848.75708,1431
848.875,1407
848.99292,1441
849.110901,1449
849.22876,1439
849.34668,1410
849.464539,1416
849.582458,1408
849.700317,1420
849.818176,1423
849.936096,1449
850.053955,1447
850.171875,1434
850.289673,1466
850.407593,1389
850.525452,1436
850.643311,1436
850.761169,1399
850.878967,1433
850.996887,1412
851.114746,1414
851.232544,1407
851.350403,1400
851.468262,1430
851.58606,1410
851.703979,1417
851.821777,1404
851.939636,1369
852.057434,1411
852.175232,1430
852.293091,1449
852.410889,1413
852.528687,1471
852.646545,1448
852.764343,1475
852.88208,1485
852.999939,1467
853.117676,1443
853.235535,1411
853.353271,1404
853.471069,1399
853.588928,1427
853.706604,1414
853.824402,1453
853.9422,1443
854.059998,1428
854.177734,1424
854.295532,1445
854.413269,1448
854.531006,1453
854.648804,1420
854.766541,1387
854.884277,1407
855.002014,1440
855.119751,1424
855.237549,1430
855.355225,1406
855.473022,1449
855.590698,1398
855.708435,1461
855.826172,1400
855.943848,1380
856.061646,1406
856.179321,1416
856.296997,1411
856.414795,1402
856.53241,1438
856.650085,1414
856.767822,1429
856.885559,1469
857.003174,1430
857.120911,1463
857.238586,1458
857.356201,1433
857.473938,1453
857.591614,1443
857.709351,1428
857.826965,1439
857.944641,1429
858.062317,1487
858.179993,1473
858.297668,1441
858.415283,1443
858.532959,1447
858.650574,1444
858.768188,1474
858.885803,1468
859.003479,1471
859.121094,1458
859.23877,1461
859.356384,1389
859.473999,1446
859.591675,1419
859.709229,1428
859.826843,1397
859.944458,1404
860.062012,1464
860.179626,1384
860.297302,1396
860.414856,1411
860.532471,1453
860.650024,1387
860.767639,1452
860.885193,1416
861.002808,1400
861.120361,1427
861.237976,1412
861.35553,1429
861.473022,1377
861.590698,1489
861.708191,1417
861.825745,1435
861.943298,1416
862.060852,1421
862.178406,1400
862.295959,1391
862.413513,1364
862.531006,1361
862.64856,1431
862.766113,1371
862.883667,1416
863.00116,1390
863.118713,1380
863.236206,1414
863.353699,1344
863.471252,1403
863.588745,1452
863.706177,1400
863.82373,1415
863.941162,1379
864.058716,1429
864.176208,1404
864.29364,1393
864.411194,1408
864.528687,1359
864.646118,1409
864.763611,1368
864.881042,1403
864.998535,1397
865.116028,1415
865.233459,1368
865.350891,1406
865.468384,1395
865.585754,1410
865.703308,1366
865.820679,1407
865.938171,1381
866.055542,1437
866.173035,1365
866.290466,1378
866.407837,1399
866.52533,1388
866.6427,1401
866.760071,1416
866.877563,1364
866.994934,1380
867.112305,1421
867.229736,1443
867.347107,1446
867.464539,1437
867.58197,1442
867.699341,1397
867.81665,1442
867.934082,1384
868.051453,1397
868.168823,1390
868.286194,1419
868.403564,1421
868.520935,1427
868.638306,1408
868.755676,1404
868.872986,1427
868.990295,1446
869.107727,1369
869.225037,1434
869.342346,1437
869.459717,1440
869.577026,1450
869.694336,1441
869.811707,1438
869.929016,1426
870.046326,1476
870.163635,1444
870.280945,1482
870.398254,1427
870.515564,1468
870.632812,1458
870.750183,1450
870.867432,1477
870.984741,1497
871.102051,1494
871.219299,1428
871.336609,1460
871.453918,1464
871.571106,1543
871.688416,1503
871.805664,1500
871.922852,1501
872.040222,1487
872.157471,1489
872.274719,1519
872.391968,1509
872.509155,1506
872.626465,1461
872.743652,1452
872.860962,1427
872.978149,1467
873.095337,1486
873.212646,1438
873.329834,1503
873.44696,1463
873.564209,1485
873.681396,1497
873.798645,1472
873.915894,1477
874.03302,1522
874.150208,1496
874.267456,1504
874.384583,1505
874.501831,1460
874.618958,1478
874.736145,1512
874.853333,1505
874.970459,1497
875.087646,1474
875.204834,1468
875.32196,1480
875.439148,1470
875.556274,1499
875.673401,1485
875.790527,1407
875.907715,1447
876.024841,1420
876.141968,1480
876.259094,1504
876.376282,1502
876.493347,1473
876.610474,1453
876.7276,1431
876.844727,1475
876.961853,1447
877.078918,1445
877.195984,1438
877.313171,1442
877.430237,1404
877.547302,1437
877.664368,1461
877.781433,1439
877.898499,1451
878.015625,1418
878.13269,1429
878.249695,1414
878.366821,1400
878.483887,1428
878.600952,1418
878.717957,1440
878.834961,1438
878.952087,1406
879.069092,1429
879.186157,1437
879.303162,1428
879.420227,1424
879.537231,1408
879.654236,1417
879.77124,1409
879.888306,1393
880.005249,1402
880.122314,1359
880.239319,1410
880.356323,1415
880.473328,1390
880.590271,1398
880.707275,1391
880.824341,1382
880.941284,1406
881.058228,1413
881.175232,1403
881.292236,1396
881.40918,1406
881.526123,1396
881.643066,1395
881.760071,1414
881.877014,1393
881.993958,1366
882.11084,1384
882.227783,1439
882.344727,1432
882.46167,1424
882.578613,1417
882.695618,1366
882.812439,1361
882.929382,1452
883.046326,1415
883.163208,1430
883.280151,1410
883.397034,1438
883.513916,1421
883.630798,1430
883.747742,1425
883.864563,1410
883.981506,1406
884.098389,1474
884.21521,1423
884.332153,1480
884.448975,1470
884.565796,1450
884.682678,1489
884.7995,1485
884.916443,1542
885.033264,1545
885.150085,1590
885.266968,1604
885.383789,1619
885.500671,1630
885.617493,1664
885.734314,1693
885.851196,1665
885.967896,1596
886.084717,1590
886.201599,1614
886.318359,1622
886.435181,1574
886.552002,1634
886.668762,1603
886.785645,1577
886.902344,1579
887.019165,1556
887.135925,1539
887.252747,1555
887.369446,1558
887.486267,1545
887.603027,1504
887.719788,1507
887.836548,1470
887.953247,1458
888.070068,1503
888.186829,1470
888.303528,1478
888.420288,1446
888.536987,1414
888.653687,1407
888.770447,1441
888.887146,1435
889.003967,1377
889.120667,1381
889.237305,1416
889.354065,1390
889.470703,1389
889.587463,1399
889.704163,1381
889.820862,1406
889.937561,1390
890.054199,1401
890.170837,1412
890.287598,1413
890.404236,1389
890.520874,1400
890.637634,1413
890.754211,1403
890.87085,1408
890.987549,1434
891.104187,1459
891.220886,1432
891.337463,1448
891.454102,1418
891.57074,1446
891.687378,1421
891.804077,1441
891.920654,1404
892.037231,1435
892.15387,1445
892.270447,1440
892.387085,1447
892.503723,1456
892.6203,1414
892.736877,1407
892.853516,1426
892.970032,1396
893.08667,1405
893.203186,1429
893.319763,1441
893.43634,1397
893.552917,1468
893.669556,1401
893.786011,1417
893.902588,1439
894.019165,1435
894.135681,1412
894.252197,1403
894.368835,1425
894.485291,1362
894.601868,1418
894.718384,1433
894.8349,1409
894.951355,1440
895.067932,1426
895.184448,1402
895.300964,1415
895.417419,1415
895.533936,1440
895.650452,1382
895.766907,1444
895.883423,1411
895.999878,1402
896.116333,1430
896.232849,1394
896.349304,1397
896.465759,1436
896.582214,1394
896.698669,1392
896.815125,1414
896.931641,1428
897.048035,1451
897.164551,1457
897.280884,1408
897.397339,1411
897.513794,1406
897.630249,1449
897.746582,1414
897.863098,1409
897.979431,1413
898.095886,1476
898.212341,1427
898.328674,1424
898.445129,1442
898.561462,1424
898.677795,1474
898.794312,1428
898.910645,1430
899.026978,1407
899.143433,1465
899.259766,1466
899.37616,1422
899.492493,1442
899.608765,1491
899.725159,1437
899.841553,1397
899.957947,1444
900.07428,1431
900.190552,1470
900.306946,1418
900.423157,1467
900.53949,1437
900.655884,1439
900.772156,1434
900.888489,1477
901.004822,1447
901.121033,1442
901.237366,1479
901.353699,1439
901.46991,1445
901.586304,1455
901.702515,1486
901.818787,1429
901.93512,1440
902.051331,1519
902.167603,1491
902.283875,1520
902.400085,1542
902.516418,1558
902.632629,1547
902.74884,1599
902.865112,1570
902.981384,1553
903.097595,1563
903.213867,1535
903.330017,1547
903.446289,1544
903.5625,1512
903.67865,1511
903.794922,1539
903.911072,1506
904.027344,1539
904.143494,1529
904.259705,1538
904.375916,1541
904.492065,1450
904.608215,1470
904.724426,1515
904.840576,1469
904.956726,1470
905.072876,1421
905.189087,1443
905.305176,1504
905.421387,1467
905.537537,1480
905.653687,1435
905.769775,1471
905.885925,1453
906.002014,1478
906.118164,1466
906.234314,1475
906.350403,1462
906.466492,1457
906.582642,1448
906.69873,1450
906.814758,1442
906.930908,1445
907.046936,1414
907.163086,1444
907.279175,1431
907.395264,1462
907.511353,1422
907.62738,1459
907.743408,1428
907.859497,1440
907.975525,1442
908.091553,1403
908.207703,1444
908.32373,1495
908.439758,1450
908.555786,1452
908.671814,1465
908.787842,1438
908.90387,1493
909.019775,1473
909.135864,1454
909.251892,1459
909.367859,1451
909.483826,1415
909.599854,1527
909.715881,1422
909.831848,1426
909.947815,1451
910.063782,1491
910.179749,1522
910.295776,1433
910.411743,1471
910.527649,1456
910.643616,1484
910.759583,1438
910.875488,1425
910.991455,1473
911.107361,1467
911.223267,1472
911.339294,1447
911.4552,1478
911.571106,1458
911.687073,1430
911.802979,1446
911.918823,1437
912.034729,1443
912.150635,1475
912.266602,1467
912.382446,1405
912.498352,1406
912.614197,1427
912.730103,1474
912.846008,1485
792.44574,2769
792.56488,2681
792.68396,2634
792.80304,2619
792.92218,2487
793.041199,2534
793.160339,2481
793.279419,2413
793.398499,2338
793.517578,2361
793.636658,2352
793.755737,2352
793.874817,2256
793.993896,2295
794.112976,2198
794.232056,2228
794.351074,2188
794.470215,2185
794.589233,2108
794.708313,2111
794.827393,2068
794.946411,2075
795.065552,2072
795.18457,2071
795.303589,2063
795.422668,2055
795.541687,2044
795.660767,2014
795.779846,1990
795.898865,1918
796.017883,1975
796.136963,1937
796.255981,1934
796.375061,1955
796.49408,1917
796.613037,1899
796.732117,1943
796.851135,1923
796.970154,1849
797.089233,1860
797.208191,1882
797.327271,1868
797.446228,1808
797.565186,1873
797.684265,1869
797.803223,1822
797.922241,1839
798.04126,1879
798.160278,1805
798.279297,1793
798.398315,1795
798.517273,1848
798.636292,1796
798.75531,1790
798.874268,1814
798.993286,1797
799.112244,1811
799.231323,1792
799.350281,1822
799.469238,1807
799.588257,1830
799.707153,1739
799.826111,1759
799.945129,1783
800.064087,1782
800.183044,1780
800.302063,1737
800.421021,1752
800.539978,1744
800.658936,1757
800.777893,1767
800.896912,1745
801.015747,1798
801.134705,1763
801.253723,1750
801.37262,1696
801.491638,1721
801.610535,1723
801.729492,1725
801.84845,1728
801.967407,1730
802.086243,1696
802.205261,1708
802.324158,1701
802.443115,1722
802.562073,1715
802.680969,1652
802.799927,1666
802.918762,1689
803.037659,1682
803.156677,1668
803.275574,1664
803.39447,1719
803.513428,1709
803.632263,1676
803.751221,1709
803.870117,1687
803.989014,1706
804.107971,1640
804.226746,1686
804.345642,1697
804.4646,1667
804.583496,1680
804.702393,1604
804.821228,1651
804.940125,1668
805.059021,1635
805.177917,1643
805.296814,1655
805.415649,1652
805.534546,1662
805.653442,1667
805.772278,1698
805.891113,1643
806.01001,1690
806.128906,1679
806.247742,1671
806.366577,1660
806.485413,1651
806.604309,1659
806.723145,1652
806.84198,1659
806.960876,1612
807.079712,1652
807.198486,1616
807.317383,1668
807.436218,1658
807.554993,1651
807.673889,1656
807.792725,1688
807.91156,1578
808.030396,1629
808.14917,1585
808.268005,1662
808.386841,1619
808.505676,1667
808.624451,1637
808.743286,1630
808.862122,1569
808.980896,1647
809.099731,1631
809.218506,1608
809.337341,1612
809.456116,1679
809.57489,1669
809.693726,1622
809.8125,1598
809.931274,1644
810.050049,1657
810.168884,1663
810.287659,1607
810.406372,1593
810.525269,1653
810.643982,1606
810.762756,1663
810.881531,1638
811.000305,1658
811.11908,1638
811.237854,1617
811.356567,1650
811.475403,1639
811.594116,1642
811.71283,1589
811.831604,1641
811.950378,1661
812.069153,1600
812.187927,1610
812.30658,1654
812.425415,1680
812.544128,1651
812.662781,1606
812.781616,1633
812.900269,1656
813.019043,1621
813.137756,1655
813.256531,1631
813.375244,1628
813.493896,1633
813.612671,1671
813.731384,1639
813.850037,1579
813.96875,1569
814.087524,1672
814.206238,1654
814.324951,1602
814.443604,1580
814.562256,1609
814.68103,1576
814.799683,1621
814.918335,1626
815.037109,1613
815.155762,1669
815.274475,1606
815.393188,1599
815.511841,1577
815.630554,1610
815.749146,1580
815.867859,1571
815.986572,1572
816.105164,1614
816.223877,1615
816.342529,1591
816.461182,1556
816.579895,1618
816.698486,1559
816.817139,1559
816.935791,1577
817.054504,1590
817.173096,1561
817.291748,1548
817.4104,1555
817.529053,1557
817.647644,1587
817.766235,1542
817.884949,1546
818.00354,1530
818.122192,1547
818.240845,1551
818.359436,1503
818.478088,1512
818.59668,1544
818.715271,1517
818.833923,1441
818.952515,1497
819.071106,1500
819.189758,1498
819.30835,1461
819.426941,1486
819.545532,1488
819.664124,1454
819.782715,1435
819.901306,1472
820.019897,1432
820.138489,1477
820.25708,1506
820.375671,1447
820.494202,1476
820.612732,1449
820.731384,1485
820.849915,1458
820.968506,1439
821.087097,1500
821.205627,1442
821.324158,1428
821.442749,1451
821.561279,1428
821.679871,1414
821.798401,1443
821.916931,1448
822.035461,1454
822.154053,1440
822.272583,1420
822.391174,1449
822.509583,1490
822.628174,1424
822.746704,1403
822.865234,1410
822.983765,1451
823.102295,1444
823.220825,1395
823.339294,1426
823.457825,1413
823.576355,1411
823.694824,1433
823.813354,1436
823.931885,1441
824.050354,1456
824.168884,1439
824.287354,1395
824.405823,1460
824.524353,1426
824.642822,1389
824.761353,1451
824.879822,1429
824.998291,1442
825.116699,1416
825.235291,1424
825.353699,1375
825.472168,1396
825.590637,1386
825.709106,1389
825.827576,1416
825.946045,1388
826.064453,1391
826.182983,1431
826.301392,1409
826.4198,1397
826.53833,1357
826.656738,1388
826.775208,1412
826.893677,1400
827.012024,1389
827.130493,1394
827.248962,1404
827.36731,1393
827.485779,1394
827.604248,1376
827.722595,1415
827.841064,1365
827.959412,1344
828.077942,1339
828.196289,1404
828.314636,1384
828.433105,1358
828.551514,1368
828.669861,1367
828.78833,1362
828.906677,1370
829.025085,1371
829.143433,1368
829.261841,1385
829.38031,1393
829.498657,1394
829.617004,1394
829.735413,1379
829.85376,1397
829.972107,1395
830.090515,1333
830.208862,1351
830.327209,1389
830.445557,1328
830.563904,1377
830.682312,1358
830.800659,1354
830.919006,1378
831.037354,1375
831.155701,1434
831.274048,1372
831.392395,1413
831.51062,1338
831.629028,1399
831.747314,1372
831.865662,1351
831.984009,1383
832.102356,1413
832.220642,1374
832.338928,1390
832.457275,1425
832.575623,1360
832.693909,1390
832.812134,1410
832.930481,1401
833.048828,1388
833.167114,1386
833.2854,1390
833.403687,1350
833.521973,1370
833.640259,1351
833.758545,1371
833.876831,1426
833.995056,1387
834.113281,1403
834.231628,1381
834.349915,1361
834.468201,1380
834.586426,1361
834.704651,1393
834.822998,1356
834.941162,1368
835.059448,1381
835.177673,1386
835.295959,1393
835.414246,1356
835.53241,1367
835.650635,1350
835.768921,1370
835.887146,1373
836.005371,1407
836.123596,1387
836.241821,1399
836.360046,1388
836.478271,1431
836.596497,1364
836.714722,1376
836.832886,1365
836.95105,1362
837.069336,1393
837.1875,1446
837.305725,1366
837.423889,1402
837.542053,1377
837.660339,1361
837.778503,1402
837.896667,1365
838.014832,1429
838.132996,1381
838.25116,1410
838.369385,1378
838.487488,1429
838.605713,1392
838.723877,1425
838.84198,1394
838.960205,1430
839.078308,1392
839.196472,1420
839.314636,1418
839.4328,1390
839.550964,1443
839.669067,1388
839.787231,1392
839.905396,1437
840.023499,1418
840.141602,1406
840.259766,1407
840.377869,1382
840.495972,1425
840.614136,1447
840.732239,1425
840.850342,1446
840.968445,1474
841.086548,1414
841.204651,1423
841.322754,1414
841.440918,1441
841.55896,1423
841.677002,1401
841.795166,1420
841.913208,1467
842.031311,1440
842.149353,1453
842.267456,1433
842.385498,1410
842.503601,1423
842.621643,1436
842.739746,1429
842.857788,1440
842.97583,1473
843.093933,1447
843.211975,1458
843.330017,1440
843.44812,1474
843.566101,1394
843.684204,1439
843.802246,1404
843.920227,1476
844.038269,1443
844.156311,1422
844.274292,1443
844.392395,1394
844.510376,1441
844.628357,1414
844.74646,1433
844.864441,1463
844.982422,1452
845.100403,1438
845.218384,1380
845.336426,1437
845.454468,1435
845.572449,1418
845.69043,1397
845.808411,1425
845.926453,1405
846.044373,1413
846.162354,1412
846.280396,1433
846.398315,1377
846.516296,1401
846.634216,1377
846.752197,1381
846.870178,1425
846.988098,1428
847.106079,1389
847.22406,1420
847.34198,1443
847.4599,1418
847.577881,1412
847.695801,1415
847.813782,1399
847.931641,1389
848.049561,1408
848.167603,1433
848.285461,1418
848.403381,1399
848.521362,1408
848.639221,1405
848.75708,1414
848.875,1403
848.99292,1468
849.110901,1427
849.22876,1434
849.34668,1473
849.464539,1378
849.582458,1431
849.700317,1375
849.818176,1490
849.936096,1454
850.053955,1408
850.171875,1417
850.289673,1435
850.407593,1446
850.525452,1469
850.643311,1406
850.761169,1414
850.878967,1454
850.996887,1444
851.114746,1420
851.232544,1403
851.350403,1419
851.468262,1377
851.58606,1443
851.703979,1388
851.821777,1436
851.939636,1429
852.057434,1434
852.175232,1413
852.293091,1427
852.410889,1426
852.528687,1440
852.646545,1506
852.764343,1484
852.88208,1486
852.999939,1476
853.117676,1440
853.235535,1420
853.353271,1401
853.471069,1434
853.588928,1398
853.706604,1442
853.824402,1453
853.9422,1432
854.059998,1426
854.177734,1453
854.295532,1414
854.413269,1434
854.531006,1392
854.648804,1457
854.766541,1421
854.884277,1414
855.002014,1431
855.119751,1430
855.237549,1404
855.355225,1461
855.473022,1404
855.590698,1401
855.708435,1382
855.826172,1424
855.943848,1454
856.061646,1431
856.179321,1428
856.296997,1449
856.414795,1401
856.53241,1443
856.650085,1440
856.767822,1406
856.885559,1463
857.003174,1467
857.120911,1524
857.238586,1446
857.356201,1430
857.473938,1424
857.591614,1448
857.709351,1472
857.826965,1444
857.944641,1428
858.062317,1405
858.179993,1471
858.297668,1440
858.415283,1452
858.532959,1461
858.650574,1460
858.768188,1460
858.885803,1420
859.003479,1489
859.121094,1434
859.23877,1464
859.356384,1447
859.473999,1448
859.591675,1417
859.709229,1447
859.826843,1425
859.944458,1403
860.062012,1437
860.179626,1399
860.297302,1425
860.414856,1439
860.532471,1435
860.650024,1398
860.767639,1422
860.885193,1398
861.002808,1396
861.120361,1403
861.237976,1419
861.35553,1393
861.473022,1394
861.590698,1416
861.708191,1433
861.825745,1443
861.943298,1451
862.060852,1406
862.178406,1379
862.295959,1439
862.413513,1409
862.531006,1361
862.64856,1378
862.766113,1434
862.883667,1376
863.00116,1386
863.118713,1415
863.236206,1381
863.353699,1389
863.471252,1414
863.588745,1389
863.706177,1425
863.82373,1449
863.941162,1429
864.058716,1418
864.176208,1414
864.29364,1449
864.411194,1387
864.528687,1417
864.646118,1474
864.763611,1391
864.881042,1394
864.998535,1423
865.116028,1419
865.233459,1451
865.350891,1383
865.468384,1402
865.585754,1448
865.703308,1400
865.820679,1419
865.938171,1421
866.055542,1391
866.173035,1381
866.290466,1433
866.407837,1369
866.52533,1385
866.6427,1409
866.760071,1433
866.877563,1385
866.994934,1408
867.112305,1403
867.229736,1412
867.347107,1405
867.464539,1418
867.58197,1436
867.699341,1423
867.81665,1426
867.934082,1461
868.051453,1428
868.168823,1433
868.286194,1407
868.403564,1440
868.520935,1425
868.638306,1462
868.755676,1448
868.872986,1396
868.990295,1394
869.107727,1428
869.225037,1421
869.342346,1392
869.459717,1464
869.577026,1465
869.694336,1443
869.811707,1449
869.929016,1386
870.046326,1434
870.163635,1438
870.280945,1466
870.398254,1444
870.515564,1473
870.632812,1471
870.750183,1457
870.867432,1439
870.984741,1487
871.102051,1480
871.219299,1500
871.336609,1487
871.453918,1529
871.571106,1475
871.688416,1521
871.805664,1479
871.922852,1464
872.040222,1508
872.157471,1498
872.274719,1498
872.391968,1493
872.509155,1509
872.626465,1477
872.743652,1478
872.860962,1468
872.978149,1480
873.095337,1451
873.212646,1479
873.329834,1466
873.44696,1502
873.564209,1479
873.681396,1450
873.798645,1458
873.915894,1462
874.03302,1434
874.150208,1506
874.267456,1483
874.384583,1486
874.501831,1516
874.618958,1541
874.736145,1512
874.853333,1511
874.970459,1501
875.087646,1515
875.204834,1501
875.32196,1512
875.439148,1455
875.556274,1487
875.673401,1436
875.790527,1491
875.907715,1456
876.024841,1405
876.141968,1461
876.259094,1482
876.376282,1465
876.493347,1462
876.610474,1446
876.7276,1455
876.844727,1459
876.961853,1478
877.078918,1464
877.195984,1419
877.313171,1479
877.430237,1444
877.547302,1460
877.664368,1467
877.781433,1441
877.898499,1458
878.015625,1433
878.13269,1459
878.249695,1455
878.366821,1367
878.483887,1438
878.600952,1412
878.717957,1437
878.834961,1444
878.952087,1423
879.069092,1414
879.186157,1419
879.303162,1403
879.420227,1387
879.537231,1377
879.654236,1412
879.77124,1394
879.888306,1401
880.005249,1389
880.122314,1414
880.239319,1441
880.356323,1404
880.473328,1420
880.590271,1432
880.707275,1407
880.824341,1383
880.941284,1368
881.058228,1407
881.175232,1404
881.292236,1390
881.40918,1391
881.526123,1415
881.643066,1406
881.760071,1406
881.877014,1430
881.993958,1396
882.11084,1463
882.227783,1431
882.344727,1391
882.46167,1397
882.578613,1424
882.695618,1400
882.812439,1404
882.929382,1433
883.046326,1412
883.163208,1350
883.280151,1453
883.397034,1457
883.513916,1403
883.630798,1421
883.747742,1475
883.864563,1417
883.981506,1408
884.098389,1418
884.21521,1455
884.332153,1477
884.448975,1460
884.565796,1509
884.682678,1547
884.7995,1538
884.916443,1549
885.033264,1591
885.150085,1644
885.266968,1628
885.383789,1592
885.500671,1653
885.617493,1656
885.734314,1584
885.851196,1625
885.967896,1633
886.084717,1602
886.201599,1629
886.318359,1626
886.435181,1674
886.552002,1638
886.668762,1606
886.785645,1582
886.902344,1554
887.019165,1613
887.135925,1564
887.252747,1517
887.369446,1510
887.486267,1525
887.603027,1478
887.719788,1491
887.836548,1502
887.953247,1511
888.070068,1467
888.186829,1439
888.303528,1466
888.420288,1457
888.536987,1426
888.653687,1445
888.770447,1424
888.887146,1432
889.003967,1421
889.120667,1364
889.237305,1398
889.354065,1393
889.470703,1416
889.587463,1425
889.704163,1438
889.820862,1445
889.937561,1417
890.054199,1386
890.170837,1451
890.287598,1412
890.404236,1439
890.520874,1396
890.637634,1393
890.754211,1388
890.87085,1383
890.987549,1433
891.104187,1421
891.220886,1454
891.337463,1399
891.454102,1442
891.57074,1436
891.687378,1428
891.804077,1435
891.920654,1419
892.037231,1404
892.15387,1419
892.270447,1456
892.387085,1459
892.503723,1426
892.6203,1380
892.736877,1399
892.853516,1433
892.970032,1465
893.08667,1466
893.203186,1380
893.319763,1422
893.43634,1474
893.552917,1438
893.669556,1454
893.786011,1440
893.902588,1423
894.019165,1435
894.135681,1396
894.252197,1435
894.368835,1437
894.485291,1414
894.601868,1468
894.718384,1416
894.8349,1452
894.951355,1410
895.067932,1402
895.184448,1384
895.300964,1433
895.417419,1472
895.533936,1413
895.650452,1454
895.766907,1449
895.883423,1425
895.999878,1406
896.116333,1442
896.232849,1402
896.349304,1388
896.465759,1452
896.582214,1442
896.698669,1412
896.815125,1416
896.931641,1433
897.048035,1451
897.164551,1460
897.280884,1460
897.397339,1417
897.513794,1450
897.630249,1429
897.746582,1457
897.863098,1442
897.979431,1487
898.095886,1427
898.212341,1441
898.328674,1419
898.445129,1431
898.561462,1431
898.677795,1444
898.794312,1434
898.910645,1421
899.026978,1445
899.143433,1433
899.259766,1435
899.37616,1391
899.492493,1461
899.608765,1436
899.725159,1447
899.841553,1463
899.957947,1430
900.07428,1458
900.190552,1437
900.306946,1457
900.423157,1423
900.53949,1476
900.655884,1424
900.772156,1481
900.888489,1494
901.004822,1474
901.121033,1429
901.237366,1497
901.353699,1451
901.46991,1442
901.586304,1494
901.702515,1453
901.818787,1498
901.93512,1512
902.051331,1503
902.167603,1498
902.283875,1525
902.400085,1508
902.516418,1550
902.632629,1565
902.74884,1587
902.865112,1595
902.981384,1567
903.097595,1635
903.213867,1571
903.330017,1532
903.446289,1554
903.5625,1551
903.67865,1548
903.794922,1577
903.911072,1551
904.027344,1551
904.143494,1506
904.259705,1523
904.375916,1475
904.492065,1482
904.608215,1515
904.724426,1469
904.840576,1466
904.956726,1490
905.072876,1488
905.189087,1461
905.305176,1468
905.421387,1491
905.537537,1489
905.653687,1457
905.769775,1412
905.885925,1483
906.002014,1487
906.118164,1468
906.234314,1485
906.350403,1446
906.466492,1442
906.582642,1487
906.69873,1442
906.814758,1470
906.930908,1452
907.046936,1420
907.163086,1477
907.279175,1446
907.395264,1456
907.511353,1405
907.62738,1451
907.743408,1462
907.859497,1494
907.975525,1466
908.091553,1472
908.207703,1466
908.32373,1450
908.439758,1486
908.555786,1460
908.671814,1501
908.787842,1470
908.90387,1449
909.019775,1483
909.135864,1470
909.251892,1491
909.367859,1479
909.483826,1451
909.599854,1455
909.715881,1526
909.831848,1469
909.947815,1508
910.063782,1454
910.179749,1484
910.295776,1449
910.411743,1494
910.527649,1479
910.643616,1441
910.759583,1471
910.875488,1527
910.991455,1446
911.107361,1480
911.223267,1433
911.339294,1485
911.4552,1461
911.571106,1446
911.687073,1472
911.802979,1397
911.918823,1476
912.034729,1446
912.150635,1409
912.266602,1430
912.382446,1514
912.498352,1444
912.614197,1448
912.730103,1460
912.846008,1416
