792.44574,2125
792.56488,2068
792.68396,2013
792.80304,2032
792.92218,1965
793.041199,1952
793.160339,1891
793.279419,1940
793.398499,1920
793.517578,1857
793.636658,1859
793.755737,1874
793.874817,1862
793.993896,1841
794.112976,1821
794.232056,1777
794.351074,1789
794.470215,1748
794.589233,1782
794.708313,1734
794.827393,1722
794.946411,1699
795.065552,1757
795.18457,1704
795.303589,1743
795.422668,1713
795.541687,1772
795.660767,1698
795.779846,1690
795.898865,1698
796.017883,1693
796.136963,1675
796.255981,1678
796.375061,1660
796.49408,1668
796.613037,1657
796.732117,1606
796.851135,1621
796.970154,1613
797.089233,1602
797.208191,1625
797.327271,1643
797.446228,1629
797.565186,1644
797.684265,1612
797.803223,1595
797.922241,1655
798.04126,1604
798.160278,1593
798.279297,1562
798.398315,1579
798.517273,1590
798.636292,1570
798.75531,1541
798.874268,1565
798.993286,1580
799.112244,1555
799.231323,1569
799.350281,1567
799.469238,1570
799.588257,1614
799.707153,1559
799.826111,1550
799.945129,1572
800.064087,1576
800.183044,1574
800.302063,1545
800.421021,1528
800.539978,1571
800.658936,1522
800.777893,1535
800.896912,1594
801.015747,1556
801.134705,1519
801.253723,1539
801.37262,1500
801.491638,1513
801.610535,1529
801.729492,1515
801.84845,1507
801.967407,1568
802.086243,1544
802.205261,1558
802.324158,1549
802.443115,1515
802.562073,1516
802.680969,1534
802.799927,1527
802.918762,1504
803.037659,1511
803.156677,1536
803.275574,1505
803.39447,1488
803.513428,1509
803.632263,1577
803.751221,1539
803.870117,1462
803.989014,1573
804.107971,1497
804.226746,1515
804.345642,1534
804.4646,1514
804.583496,1550
804.702393,1529
804.821228,1523
804.940125,1475
805.059021,1527
805.177917,1502
805.296814,1516
805.415649,1517
805.534546,1521
805.653442,1503
805.772278,1498
805.891113,1478
806.01001,1528
806.128906,1507
806.247742,1550
806.366577,1508
806.485413,1466
806.604309,1531
806.723145,1450
806.84198,1528
806.960876,1510
807.079712,1496
807.198486,1490
807.317383,1519
807.436218,1493
807.554993,1517
807.673889,1485
807.792725,1503
807.91156,1522
808.030396,1517
808.14917,1500
808.268005,1472
808.386841,1520
808.505676,1496
808.624451,1514
808.743286,1497
808.862122,1526
808.980896,1481
809.099731,1477
809.218506,1539
809.337341,1461
809.456116,1507
809.57489,1479
809.693726,1500
809.8125,1517
809.931274,1474
810.050049,1469
810.168884,1535
810.287659,1439
810.406372,1493
810.525269,1486
810.643982,1509
810.762756,1464
810.881531,1494
811.000305,1496
811.11908,1509
811.237854,1498
811.356567,1532
811.475403,1517
811.594116,1525
811.71283,1497
811.831604,1482
811.950378,1502
812.069153,1480
812.187927,1526
812.30658,1498
812.425415,1488
812.544128,1508
812.662781,1526
812.781616,1508
812.900269,1488
813.019043,1472
813.137756,1525
813.256531,1467
813.375244,1500
813.493896,1464
813.612671,1557
813.731384,1478
813.850037,1494
813.96875,1460
814.087524,1444
814.206238,1454
814.324951,1500
814.443604,1482
814.562256,1471
814.68103,1502
814.799683,1485
814.918335,1494
815.037109,1479
815.155762,1519
815.274475,1475
815.393188,1469
815.511841,1447
815.630554,1493
815.749146,1432
815.867859,1472
815.986572,1465
816.105164,1447
816.223877,1479
816.342529,1463
816.461182,1456
816.579895,1451
816.698486,1482
816.817139,1448
816.935791,1494
817.054504,1446
817.173096,1424
817.291748,1493
817.4104,1492
817.529053,1450
817.647644,1456
817.766235,1426
817.884949,1423
818.00354,1397
818.122192,1417
818.240845,1452
818.359436,1355
818.478088,1423
818.59668,1408
818.715271,1384
818.833923,1385
818.952515,1385
819.071106,1403
819.189758,1387
819.30835,1402
819.426941,1383
819.545532,1361
819.664124,1393
819.782715,1379
819.901306,1421
820.019897,1346
820.138489,1427
820.25708,1349
820.375671,1349
820.494202,1396
820.612732,1376
820.731384,1385
820.849915,1329
820.968506,1364
821.087097,1359
821.205627,1362
821.324158,1330
821.442749,1373
821.561279,1333
821.679871,1369
821.798401,1337
821.916931,1322
822.035461,1347
822.154053,1345
822.272583,1342
822.391174,1342
822.509583,1338
822.628174,1329
822.746704,1327
822.865234,1352
822.983765,1297
823.102295,1355
823.220825,1269
823.339294,1324
823.457825,1333
823.576355,1366
823.694824,1277
823.813354,1341
823.931885,1350
824.050354,1356
824.168884,1313
824.287354,1339
824.405823,1351
824.524353,1355
824.642822,1334
824.761353,1349
824.879822,1333
824.998291,1376
825.116699,1351
825.235291,1346
825.353699,1320
825.472168,1358
825.590637,1349
825.709106,1343
825.827576,1291
825.946045,1272
826.064453,1351
826.182983,1287
826.301392,1311
826.4198,1336
826.53833,1285
826.656738,1334
826.775208,1318
826.893677,1321
827.012024,1335
827.130493,1359
827.248962,1330
827.36731,1317
827.485779,1295
827.604248,1286
827.722595,1322
827.841064,1263
827.959412,1308
828.077942,1301
828.196289,1304
828.314636,1325
828.433105,1309
828.551514,1285
828.669861,1311
828.78833,1285
828.906677,1298
829.025085,1284
829.143433,1297
829.261841,1327
829.38031,1332
829.498657,1294
829.617004,1280
829.735413,1292
829.85376,1319
829.972107,1313
830.090515,1317
830.208862,1335
830.327209,1279
830.445557,1331
830.563904,1319
830.682312,1310
830.800659,1300
830.919006,1336
831.037354,1318
831.155701,1352
831.274048,1299
831.392395,1298
831.51062,1290
831.629028,1329
831.747314,1328
831.865662,1334
831.984009,1319
832.102356,1283
832.220642,1325
832.338928,1304
832.457275,1329
832.575623,1321
832.693909,1292
832.812134,1382
832.930481,1257
833.048828,1305
833.167114,1275
833.2854,1319
833.403687,1272
833.521973,1330
833.640259,1247
833.758545,1277
833.876831,1286
833.995056,1273
834.113281,1294
834.231628,1293
834.349915,1289
834.468201,1294
834.586426,1320
834.704651,1332
834.822998,1291
834.941162,1294
835.059448,1293
835.177673,1313
835.295959,1312
835.414246,1279
835.53241,1326
835.650635,1277
835.768921,1295
835.887146,1308
836.005371,1311
836.123596,1322
836.241821,1302
836.360046,1353
836.478271,1281
836.596497,1324
836.714722,1307
836.832886,1293
836.95105,1298
837.069336,1296
837.1875,1348
837.305725,1321
837.423889,1265
837.542053,1318
837.660339,1302
837.778503,1312
837.896667,1285
838.014832,1287
838.132996,1288
838.25116,1340
838.369385,1306
838.487488,1309
838.605713,1306
838.723877,1331
838.84198,1293
838.960205,1300
839.078308,1286
839.196472,1339
839.314636,1330
839.4328,1344
839.550964,1309
839.669067,1302
839.787231,1326
839.905396,1303
840.023499,1314
840.141602,1376
840.259766,1342
840.377869,1357
840.495972,1265
840.614136,1317
840.732239,1311
840.850342,1344
840.968445,1313
841.086548,1326
841.204651,1320
841.322754,1351
841.440918,1285
841.55896,1304
841.677002,1303
841.795166,1327
841.913208,1317
842.031311,1313
842.149353,1292
842.267456,1302
842.385498,1314
842.503601,1298
842.621643,1344
842.739746,1286
842.857788,1313
842.97583,1268
843.093933,1294
843.211975,1340
843.330017,1309
843.44812,1354
843.566101,1295
843.684204,1351
843.802246,1289
843.920227,1298
844.038269,1304
844.156311,1333
844.274292,1300
844.392395,1312
844.510376,1308
844.628357,1293
844.74646,1324
844.864441,1296
844.982422,1311
845.100403,1299
845.218384,1306
845.336426,1275
845.454468,1278
845.572449,1320
845.69043,1297
845.808411,1251
845.926453,1309
846.044373,1291
846.162354,1298
846.280396,1317
846.398315,1303
846.516296,1319
846.634216,1327
846.752197,1296
846.870178,1301
846.988098,1276
847.106079,1320
847.22406,1263
847.34198,1332
847.4599,1368
847.577881,1286
847.695801,1309
847.813782,1292
847.931641,1322
848.049561,1317
848.167603,1328
848.285461,1312
848.403381,1346
848.521362,1310
848.639221,1337
848.75708,1307
848.875,1290
848.99292,1331
849.110901,1314
849.22876,1327
849.34668,1291
849.464539,1310
849.582458,1308
849.700317,1297
849.818176,1305
849.936096,1287
850.053955,1296
850.171875,1299
850.289673,1285
850.407593,1274
850.525452,1336
850.643311,1316
850.761169,1307
850.878967,1293
850.996887,1345
851.114746,1277
851.232544,1316
851.350403,1257
851.468262,1314
851.58606,1327
851.703979,1287
851.821777,1316
851.939636,1336
852.057434,1280
852.175232,1324
852.293091,1312
852.410889,1301
852.528687,1326
852.646545,1346
852.764343,1318
852.88208,1342
852.999939,1348
853.117676,1315
853.235535,1302
853.353271,1318
853.471069,1317
853.588928,1307
853.706604,1312
853.824402,1353
853.9422,1274
854.059998,1277
854.177734,1280
854.295532,1340
854.413269,1305
854.531006,1372
854.648804,1327
854.766541,1301
854.884277,1297
855.002014,1313
855.119751,1333
855.237549,1295
855.355225,1289
855.473022,1307
855.590698,1289
855.708435,1309
855.826172,1295
855.943848,1324
856.061646,1310
856.179321,1318
856.296997,1324
856.414795,1329
856.53241,1321
856.650085,1357
856.767822,1318
856.885559,1338
857.003174,1306
857.120911,1352
857.238586,1371
857.356201,1353
857.473938,1332
857.591614,1318
857.709351,1306
857.826965,1369
857.944641,1292
858.062317,1318
858.179993,1296
858.297668,1323
858.415283,1338
858.532959,1319
858.650574,1341
858.768188,1347
858.885803,1303
859.003479,1357
859.121094,1274
859.23877,1340
859.356384,1326
859.473999,1319
859.591675,1319
859.709229,1306
859.826843,1315
859.944458,1301
860.062012,1319
860.179626,1264
860.297302,1323
860.414856,1348
860.532471,1270
860.650024,1296
860.767639,1296
860.885193,1314
861.002808,1317
861.120361,1313
861.237976,1300
861.35553,1350
861.473022,1297
861.590698,1307
861.708191,1292
861.825745,1318
861.943298,1283
862.060852,1271
862.178406,1323
862.295959,1290
862.413513,1338
862.531006,1323
862.64856,1333
862.766113,1292
862.883667,1296
863.00116,1308
863.118713,1308
863.236206,1338
863.353699,1343
863.471252,1295
863.588745,1297
863.706177,1288
863.82373,1307
863.941162,1338
864.058716,1260
864.176208,1327
864.29364,1313
864.411194,1331
864.528687,1330
864.646118,1378
864.763611,1313
864.881042,1313
864.998535,1299
865.116028,1312
865.233459,1285
865.350891,1313
865.468384,1331
865.585754,1298
865.703308,1303
865.820679,1347
865.938171,1287
866.055542,1319
866.173035,1304
866.290466,1318
866.407837,1342
866.52533,1295
866.6427,1308
866.760071,1318
866.877563,1313
866.994934,1303
867.112305,1331
867.229736,1311
867.347107,1297
867.464539,1327
867.58197,1291
867.699341,1333
867.81665,1304
867.934082,1347
868.051453,1324
868.168823,1298
868.286194,1350
868.403564,1321
868.520935,1313
868.638306,1333
868.755676,1310
868.872986,1282
868.990295,1327
869.107727,1318
869.225037,1321
869.342346,1318
869.459717,1331
869.577026,1331
869.694336,1335
869.811707,1342
869.929016,1337
870.046326,1360
870.163635,1351
870.280945,1324
870.398254,1346
870.515564,1373
870.632812,1342
870.750183,1370
870.867432,1346
870.984741,1345
871.102051,1346
871.219299,1334
871.336609,1338
871.453918,1356
871.571106,1413
871.688416,1363
871.805664,1334
871.922852,1346
872.040222,1342
872.157471,1347
872.274719,1360
872.391968,1396
872.509155,1356
872.626465,1349
872.743652,1334
872.860962,1330
872.978149,1299
873.095337,1351
873.212646,1371
873.329834,1351
873.44696,1325
873.564209,1343
873.681396,1331
873.798645,1355
873.915894,1358
874.03302,1348
874.150208,1350
874.267456,1366
874.384583,1355
874.501831,1357
874.618958,1326
874.736145,1345
874.853333,1352
874.970459,1361
875.087646,1364
875.204834,1361
875.32196,1367
875.439148,1392
875.556274,1324
875.673401,1387
875.790527,1351
875.907715,1329
876.024841,1337
876.141968,1354
876.259094,1383
876.376282,1365
876.493347,1345
876.610474,1333
876.7276,1321
876.844727,1326
876.961853,1351
877.078918,1377
877.195984,1347
877.313171,1362
877.430237,1327
877.547302,1312
877.664368,1333
877.781433,1317
877.898499,1373
878.015625,1295
878.13269,1321
878.249695,1377
878.366821,1303
878.483887,1340
878.600952,1341
878.717957,1347
878.834961,1332
878.952087,1342
879.069092,1377
879.186157,1367
879.303162,1322
879.420227,1331
879.537231,1301
879.654236,1306
879.77124,1343
879.888306,1349
880.005249,1342
880.122314,1293
880.239319,1281
880.356323,1332
880.473328,1350
880.590271,1293
880.707275,1377
880.824341,1340
880.941284,1334
881.058228,1318
881.175232,1294
881.292236,1307
881.40918,1335
881.526123,1305
881.643066,1306
881.760071,1301
881.877014,1293
881.993958,1356
882.11084,1331
882.227783,1324
882.344727,1319
882.46167,1323
882.578613,1305
882.695618,1335
882.812439,1318
882.929382,1348
883.046326,1321
883.163208,1316
883.280151,1351
883.397034,1368
883.513916,1295
883.630798,1346
883.747742,1339
883.864563,1334
883.981506,1334
884.098389,1359
884.21521,1314
884.332153,1363
884.448975,1315
884.565796,1326
884.682678,1364
884.7995,1419
884.916443,1368
885.033264,1375
885.150085,1421
885.266968,1433
885.383789,1405
885.500671,1414
885.617493,1461
885.734314,1394
885.851196,1407
885.967896,1455
886.084717,1424
886.201599,1411
886.318359,1424
886.435181,1398
886.552002,1403
886.668762,1415
886.785645,1391
886.902344,1380
887.019165,1406
887.135925,1377
887.252747,1413
887.369446,1368
887.486267,1364
887.603027,1352
887.719788,1367
887.836548,1306
887.953247,1359
888.070068,1357
888.186829,1324
888.303528,1358
888.420288,1348
888.536987,1339
888.653687,1372
888.770447,1323
888.887146,1357
889.003967,1354
889.120667,1316
889.237305,1423
889.354065,1342
889.470703,1337
889.587463,1298
889.704163,1376
889.820862,1299
889.937561,1335
890.054199,1325
890.170837,1350
890.287598,1321
890.404236,1387
890.520874,1335
890.637634,1375
890.754211,1346
890.87085,1334
890.987549,1334
891.104187,1338
891.220886,1347
891.337463,1370
891.454102,1342
891.57074,1358
891.687378,1364
891.804077,1379
891.920654,1327
892.037231,1364
892.15387,1405
892.270447,1369
892.387085,1386
892.503723,1338
892.6203,1350
892.736877,1326
892.853516,1381
892.970032,1338
893.08667,1411
893.203186,1330
893.319763,1388
893.43634,1374
893.552917,1371
893.669556,1329
893.786011,1355
893.902588,1361
894.019165,1344
894.135681,1372
894.252197,1391
894.368835,1323
894.485291,1350
894.601868,1349
894.718384,1384
894.8349,1355
894.951355,1325
895.067932,1347
895.184448,1359
895.300964,1373
895.417419,1380
895.533936,1360
895.650452,1388
895.766907,1423
895.883423,1365
895.999878,1365
896.116333,1347
896.232849,1365
896.349304,1373
896.465759,1345
896.582214,1374
896.698669,1332
896.815125,1314
896.931641,1397
897.048035,1370
897.164551,1362
897.280884,1408
897.397339,1349
897.513794,1389
897.630249,1362
897.746582,1346
897.863098,1375
897.979431,1374
898.095886,1365
898.212341,1329
898.328674,1413
898.445129,1381
898.561462,1374
898.677795,1336
898.794312,1335
898.910645,1351
899.026978,1401
899.143433,1354
899.259766,1425
899.37616,1356
899.492493,1367
899.608765,1375
899.725159,1367
899.841553,1373
899.957947,1384
900.07428,1410
900.190552,1381
900.306946,1378
900.423157,1373
900.53949,1384
900.655884,1342
900.772156,1390
900.888489,1382
901.004822,1363
901.121033,1369
901.237366,1361
901.353699,1442
901.46991,1410
901.586304,1383
901.702515,1368
901.818787,1371
901.93512,1379
902.051331,1383
902.167603,1454
902.283875,1446
902.400085,1425
902.516418,1433
902.632629,1411
902.74884,1415
902.865112,1467
902.981384,1446
903.097595,1437
903.213867,1428
903.330017,1436
903.446289,1447
903.5625,1439
903.67865,1444
903.794922,1439
903.911072,1389
904.027344,1399
904.143494,1398
904.259705,1424
904.375916,1411
904.492065,1386
904.608215,1403
904.724426,1371
904.840576,1425
904.956726,1427
905.072876,1419
905.189087,1395
905.305176,1417
905.421387,1401
905.537537,1392
905.653687,1380
905.769775,1396
905.885925,1394
906.002014,1426
906.118164,1373
906.234314,1362
906.350403,1431
906.466492,1385
906.582642,1404
906.69873,1392
906.814758,1398
906.930908,1419
907.046936,1376
907.163086,1396
907.279175,1412
907.395264,1364
907.511353,1378
907.62738,1425
907.743408,1409
907.859497,1360
907.975525,1436
908.091553,1418
908.207703,1420
908.32373,1377
908.439758,1390
908.555786,1417
908.671814,1375
908.787842,1412
908.90387,1406
909.019775,1407
909.135864,1394
909.251892,1401
909.367859,1377
909.483826,1397
909.599854,1333
909.715881,1451
909.831848,1361
909.947815,1404
910.063782,1354
910.179749,1367
910.295776,1458
910.411743,1392
910.527649,1398
910.643616,1390
910.759583,1408
910.875488,1448
910.991455,1423
911.107361,1381
911.223267,1406
911.339294,1413
911.4552,1411
911.571106,1474
911.687073,1362
911.802979,1382
911.918823,1378
912.034729,1413
912.150635,1417
912.266602,1408
912.382446,1386
912.498352,1420
912.614197,1415
912.730103,1433
912.846008,1426
792.44574,2181
792.56488,2083
792.68396,2087
792.80304,2055
792.92218,1994
793.041199,1975
793.160339,1932
793.279419,1895
793.398499,1941
793.517578,1961
793.636658,1876
793.755737,1906
793.874817,1935
793.993896,1883
794.112976,1867
794.232056,1760
794.351074,1821
794.470215,1821
794.589233,1797
794.708313,1818
794.827393,1745
794.946411,1816
795.065552,1739
795.18457,1767
795.303589,1797
795.422668,1723
795.541687,1756
795.660767,1705
795.779846,1698
795.898865,1734
796.017883,1697
796.136963,1687
796.255981,1713
796.375061,1689
796.49408,1697
796.613037,1670
796.732117,1674
796.851135,1652
796.970154,1688
797.089233,1630
797.208191,1678
797.327271,1637
797.446228,1606
797.565186,1653
797.684265,1666
797.803223,1664
797.922241,1614
798.04126,1622
798.160278,1596
798.279297,1652
798.398315,1582
798.517273,1627
798.636292,1568
798.75531,1627
798.874268,1652
798.993286,1614
799.112244,1586
799.231323,1577
799.350281,1554
799.469238,1616
799.588257,1607
799.707153,1605
799.826111,1545
799.945129,1610
800.064087,1621
800.183044,1590
800.302063,1613
800.421021,1583
800.539978,1634
800.658936,1566
800.777893,1546
800.896912,1609
801.015747,1585
801.134705,1541
801.253723,1581
801.37262,1560
801.491638,1590
801.610535,1553
801.729492,1581
801.84845,1560
801.967407,1536
802.086243,1538
802.205261,1597
802.324158,1583
802.443115,1597
802.562073,1599
802.680969,1559
802.799927,1565
802.918762,1587
803.037659,1552
803.156677,1590
803.275574,1565
803.39447,1574
803.513428,1571
803.632263,1525
803.751221,1522
803.870117,1535
803.989014,1528
804.107971,1514
804.226746,1540
804.345642,1562
804.4646,1517
804.583496,1584
804.702393,1572
804.821228,1521
804.940125,1550
805.059021,1522
805.177917,1516
805.296814,1535
805.415649,1533
805.534546,1585
805.653442,1543
805.772278,1581
805.891113,1554
806.01001,1587
806.128906,1509
806.247742,1534
806.366577,1529
806.485413,1539
806.604309,1547
806.723145,1508
806.84198,1578
806.960876,1549
807.079712,1519
807.198486,1519
807.317383,1536
807.436218,1493
807.554993,1493
807.673889,1568
807.792725,1560
807.91156,1542
808.030396,1535
808.14917,1539
808.268005,1498
808.386841,1579
808.505676,1568
808.624451,1526
808.743286,1578
808.862122,1536
808.980896,1572
809.099731,1518
809.218506,1499
809.337341,1535
809.456116,1530
809.57489,1528
809.693726,1534
809.8125,1568
809.931274,1509
810.050049,1566
810.168884,1488
810.287659,1539
810.406372,1528
810.525269,1524
810.643982,1546
810.762756,1545
810.881531,1505
811.000305,1496
811.11908,1494
811.237854,1500
811.356567,1502
811.475403,1526
811.594116,1475
811.71283,1539
811.831604,1530
811.950378,1537
812.069153,1555
812.187927,1545
812.30658,1499
812.425415,1529
812.544128,1531
812.662781,1498
812.781616,1483
812.900269,1484
813.019043,1507
813.137756,1506
813.256531,1472
813.375244,1473
813.493896,1487
813.612671,1550
813.731384,1479
813.850037,1517
813.96875,1543
814.087524,1512
814.206238,1488
814.324951,1501
814.443604,1502
814.562256,1501
814.68103,1521
814.799683,1542
814.918335,1478
815.037109,1484
815.155762,1540
815.274475,1555
815.393188,1457
815.511841,1508
815.630554,1449
815.749146,1474
815.867859,1480
815.986572,1486
816.105164,1479
816.223877,1439
816.342529,1462
816.461182,1467
816.579895,1511
816.698486,1503
816.817139,1522
816.935791,1471
817.054504,1491
817.173096,1471
817.291748,1468
817.4104,1461
817.529053,1485
817.647644,1443
817.766235,1452
817.884949,1466
818.00354,1432
818.122192,1491
818.240845,1418
818.359436,1431
818.478088,1427
818.59668,1406
818.715271,1430
818.833923,1432
818.952515,1440
819.071106,1414
819.189758,1406
819.30835,1424
819.426941,1375
819.545532,1384
819.664124,1396
819.782715,1382
819.901306,1386
820.019897,1393
820.138489,1397
820.25708,1442
820.375671,1396
820.494202,1400
820.612732,1410
820.731384,1399
820.849915,1360
820.968506,1390
821.087097,1400
821.205627,1409
821.324158,1382
821.442749,1416
821.561279,1369
821.679871,1378
821.798401,1394
821.916931,1407
822.035461,1364
822.154053,1403
822.272583,1371
822.391174,1399
822.509583,1361
822.628174,1392
822.746704,1377
822.865234,1390
822.983765,1332
823.102295,1357
823.220825,1398
823.339294,1330
823.457825,1347
823.576355,1360
823.694824,1403
823.813354,1408
823.931885,1395
824.050354,1377
824.168884,1393
824.287354,1372
824.405823,1385
824.524353,1394
824.642822,1387
824.761353,1387
824.879822,1384
824.998291,1349
825.116699,1317
825.235291,1328
825.353699,1372
825.472168,1379
825.590637,1340
825.709106,1353
825.827576,1345
825.946045,1338
826.064453,1357
826.182983,1387
826.301392,1337
826.4198,1386
826.53833,1331
826.656738,1341
826.775208,1310
826.893677,1309
827.012024,1306
827.130493,1364
827.248962,1369
827.36731,1371
827.485779,1377
827.604248,1327
827.722595,1331
827.841064,1360
827.959412,1388
828.077942,1310
828.196289,1364
828.314636,1350
828.433105,1300
828.551514,1352
828.669861,1321
828.78833,1304
828.906677,1313
829.025085,1371
829.143433,1326
829.261841,1329
829.38031,1308
829.498657,1352
829.617004,1311
829.735413,1341
829.85376,1336
829.972107,1306
830.090515,1296
830.208862,1307
830.327209,1340
830.445557,1328
830.563904,1357
830.682312,1327
830.800659,1339
830.919006,1323
831.037354,1359
831.155701,1325
831.274048,1311
831.392395,1350
831.51062,1352
831.629028,1311
831.747314,1309
831.865662,1318
831.984009,1296
832.102356,1352
832.220642,1311
832.338928,1319
832.457275,1312
832.575623,1322
832.693909,1314
832.812134,1327
832.930481,1316
833.048828,1313
833.167114,1326
833.2854,1348
833.403687,1348
833.521973,1351
833.640259,1305
833.758545,1323
833.876831,1327
833.995056,1291
834.113281,1308
834.231628,1293
834.349915,1334
834.468201,1339
834.586426,1316
834.704651,1312
834.822998,1307
834.941162,1295
835.059448,1341
835.177673,1354
835.295959,1335
835.414246,1340
835.53241,1292
835.650635,1275
835.768921,1316
835.887146,1348
836.005371,1345
836.123596,1342
836.241821,1323
836.360046,1304
836.478271,1321
836.596497,1370
836.714722,1307
836.832886,1311
836.95105,1322
837.069336,1341
837.1875,1327
837.305725,1325
837.423889,1337
837.542053,1316
837.660339,1323
837.778503,1351
837.896667,1324
838.014832,1334
838.132996,1335
838.25116,1316
838.369385,1329
838.487488,1357
838.605713,1348
838.723877,1289
838.84198,1307
838.960205,1310
839.078308,1317
839.196472,1317
839.314636,1309
839.4328,1345
839.550964,1349
839.669067,1335
839.787231,1323
839.905396,1303
840.023499,1343
840.141602,1319
840.259766,1302
840.377869,1365
840.495972,1325
840.614136,1370
840.732239,1334
840.850342,1333
840.968445,1353
841.086548,1340
841.204651,1327
841.322754,1346
841.440918,1360
841.55896,1332
841.677002,1336
841.795166,1350
841.913208,1303
842.031311,1351
842.149353,1313
842.267456,1338
842.385498,1312
842.503601,1303
842.621643,1346
842.739746,1342
842.857788,1332
842.97583,1346
843.093933,1323
843.211975,1335
843.330017,1354
843.44812,1351
843.566101,1303
843.684204,1346
843.802246,1307
843.920227,1376
844.038269,1331
844.156311,1315
844.274292,1348
844.392395,1347
844.510376,1342
844.628357,1288
844.74646,1381
844.864441,1315
844.982422,1316
845.100403,1340
845.218384,1356
845.336426,1324
845.454468,1322
845.572449,1314
845.69043,1341
845.808411,1299
845.926453,1334
846.044373,1323
846.162354,1326
846.280396,1324
846.398315,1308
846.516296,1317
846.634216,1326
846.752197,1345
846.870178,1349
846.988098,1341
847.106079,1290
847.22406,1321
847.34198,1310
847.4599,1333
847.577881,1336
847.695801,1317
847.813782,1351
847.931641,1316
848.049561,1344
848.167603,1287
848.285461,1315
848.403381,1333
848.521362,1309
848.639221,1306
848.75708,1304
848.875,1312
848.99292,1339
849.110901,1314
849.22876,1353
849.34668,1344
849.464539,1336
849.582458,1350
849.700317,1341
849.818176,1316
849.936096,1305
850.053955,1352
850.171875,1343
850.289673,1319
850.407593,1309
850.525452,1340
850.643311,1360
850.761169,1311
850.878967,1343
850.996887,1347
851.114746,1346
851.232544,1321
851.350403,1304
851.468262,1358
851.58606,1322
851.703979,1339
851.821777,1316
851.939636,1321
852.057434,1306
852.175232,1329
852.293091,1323
852.410889,1365
852.528687,1310
852.646545,1400
852.764343,1378
852.88208,1368
852.999939,1348
853.117676,1358
853.235535,1315
853.353271,1366
853.471069,1321
853.588928,1336
853.706604,1349
853.824402,1350
853.9422,1358
854.059998,1333
854.177734,1322
854.295532,1366
854.413269,1313
854.531006,1338
854.648804,1355
854.766541,1360
854.884277,1338
855.002014,1368
855.119751,1320
855.237549,1376
855.355225,1354
855.473022,1322
855.590698,1329
855.708435,1317
855.826172,1273
855.943848,1370
856.061646,1333
856.179321,1342
856.296997,1382
856.414795,1371
856.53241,1328
856.650085,1353
856.767822,1328
856.885559,1368
857.003174,1364
857.120911,1342
857.238586,1363
857.356201,1373
857.473938,1334
857.591614,1352
857.709351,1361
857.826965,1341
857.944641,1365
858.062317,1384
858.179993,1356
858.297668,1355
858.415283,1348
858.532959,1344
858.650574,1365
858.768188,1337
858.885803,1329
859.003479,1335
859.121094,1343
859.23877,1342
859.356384,1314
859.473999,1343
859.591675,1336
859.709229,1328
859.826843,1359
859.944458,1363
860.062012,1338
860.179626,1333
860.297302,1313
860.414856,1288
860.532471,1318
860.650024,1328
860.767639,1306
860.885193,1332
861.002808,1334
861.120361,1341
861.237976,1365
861.35553,1339
861.473022,1393
861.590698,1295
861.708191,1330
861.825745,1336
861.943298,1337
862.060852,1326
862.178406,1323
862.295959,1347
862.413513,1280
862.531006,1314
862.64856,1330
862.766113,1340
862.883667,1339
863.00116,1337
863.118713,1352
863.236206,1320
863.353699,1340
863.471252,1346
863.588745,1318
863.706177,1330
863.82373,1341
863.941162,1360
864.058716,1325
864.176208,1314
864.29364,1353
864.411194,1352
864.528687,1301
864.646118,1347
864.763611,1338
864.881042,1334
864.998535,1364
865.116028,1364
865.233459,1312
865.350891,1356
865.468384,1354
865.585754,1336
865.703308,1346
865.820679,1314
865.938171,1345
866.055542,1336
866.173035,1349
866.290466,1376
866.407837,1341
866.52533,1346
866.6427,1340
866.760071,1335
866.877563,1344
866.994934,1347
867.112305,1335
867.229736,1314
867.347107,1334
867.464539,1345
867.58197,1364
867.699341,1334
867.81665,1348
867.934082,1375
868.051453,1321
868.168823,1348
868.286194,1314
868.403564,1372
868.520935,1342
868.638306,1367
868.755676,1332
868.872986,1327
868.990295,1379
869.107727,1364
869.225037,1309
869.342346,1366
869.459717,1395
869.577026,1333
869.694336,1320
869.811707,1373
869.929016,1359
870.046326,1387
870.163635,1402
870.280945,1337
870.398254,1403
870.515564,1385
870.632812,1337
870.750183,1387
870.867432,1376
870.984741,1333
871.102051,1396
871.219299,1389
871.336609,1403
871.453918,1367
871.571106,1403
871.688416,1365
871.805664,1339
871.922852,1330
872.040222,1415
872.157471,1389
872.274719,1336
872.391968,1388
872.509155,1371
872.626465,1412
872.743652,1385
872.860962,1419
872.978149,1320
873.095337,1376
873.212646,1376
873.329834,1368
873.44696,1335
873.564209,1357
873.681396,1403
873.798645,1387
873.915894,1362
874.03302,1347
874.150208,1368
874.267456,1353
874.384583,1388
874.501831,1402
874.618958,1387
874.736145,1410
874.853333,1344
874.970459,1409
875.087646,1364
875.204834,1378
875.32196,1395
875.439148,1361
875.556274,1358
875.673401,1385
875.790527,1402
875.907715,1359
876.024841,1368
876.141968,1324
876.259094,1417
876.376282,1326
876.493347,1368
876.610474,1401
876.7276,1348
876.844727,1381
876.961853,1365
877.078918,1383
877.195984,1374
877.313171,1378
877.430237,1377
877.547302,1360
877.664368,1342
877.781433,1397
877.898499,1385
878.015625,1360
878.13269,1358
878.249695,1357
878.366821,1316
878.483887,1372
878.600952,1343
878.717957,1325
878.834961,1393
878.952087,1352
879.069092,1369
879.186157,1376
879.303162,1351
879.420227,1304
879.537231,1372
879.654236,1365
879.77124,1328
879.888306,1350
880.005249,1340
880.122314,1347
880.239319,1338
880.356323,1341
880.473328,1330
880.590271,1345
880.707275,1374
880.824341,1357
880.941284,1355
881.058228,1366
881.175232,1340
881.292236,1374
881.40918,1336
881.526123,1346
881.643066,1339
881.760071,1384
881.877014,1328
881.993958,1349
882.11084,1359
882.227783,1371
882.344727,1382
882.46167,1354
882.578613,1370
882.695618,1328
882.812439,1350
882.929382,1322
883.046326,1353
883.163208,1336
883.280151,1378
883.397034,1351
883.513916,1393
883.630798,1374
883.747742,1352
883.864563,1318
883.981506,1363
884.098389,1328
884.21521,1395
884.332153,1380
884.448975,1350
884.565796,1423
884.682678,1367
884.7995,1431
884.916443,1419
885.033264,1412
885.150085,1525
885.266968,1437
885.383789,1398
885.500671,1450
885.617493,1461
885.734314,1426
885.851196,1435
885.967896,1489
886.084717,1391
886.201599,1435
886.318359,1447
886.435181,1446
886.552002,1461
886.668762,1476
886.785645,1408
886.902344,1444
887.019165,1410
887.135925,1413
887.252747,1420
887.369446,1411
887.486267,1429
887.603027,1399
887.719788,1373
887.836548,1429
887.953247,1383
888.070068,1357
888.186829,1394
888.303528,1373
888.420288,1441
888.536987,1354
888.653687,1399
888.770447,1406
888.887146,1373
889.003967,1355
889.120667,1355
889.237305,1374
889.354065,1371
889.470703,1339
889.587463,1372
889.704163,1406
889.820862,1387
889.937561,1361
890.054199,1336
890.170837,1368
890.287598,1345
890.404236,1373
890.520874,1387
890.637634,1401
890.754211,1389
890.87085,1400
890.987549,1359
891.104187,1375
891.220886,1330
891.337463,1374
891.454102,1421
891.57074,1366
891.687378,1400
891.804077,1370
891.920654,1372
892.037231,1370
892.15387,1420
892.270447,1388
892.387085,1349
892.503723,1376
892.6203,1385
892.736877,1419
892.853516,1403
892.970032,1373
893.08667,1388
893.203186,1409
893.319763,1393
893.43634,1353
893.552917,1377
893.669556,1394
893.786011,1395
893.902588,1370
894.019165,1367
894.135681,1351
894.252197,1374
894.368835,1412
894.485291,1376
894.601868,1403
894.718384,1408
894.8349,1398
894.951355,1367
895.067932,1356
895.184448,1374
895.300964,1392
895.417419,1388
895.533936,1349
895.650452,1386
895.766907,1388
895.883423,1370
895.999878,1382
896.116333,1400
896.232849,1431
896.349304,1368
896.465759,1393
896.582214,1377
896.698669,1434
896.815125,1386
896.931641,1409
897.048035,1387
897.164551,1366
897.280884,1408
897.397339,1382
897.513794,1379
897.630249,1389
897.746582,1433
897.863098,1424
897.979431,1426
898.095886,1383
898.212341,1398
898.328674,1404
898.445129,1445
898.561462,1396
898.677795,1449
898.794312,1401
898.910645,1427
899.026978,1379
899.143433,1401
899.259766,1393
899.37616,1444
899.492493,1376
899.608765,1419
899.725159,1415
899.841553,1417
899.957947,1428
900.07428,1437
900.190552,1410
900.306946,1440
900.423157,1371
900.53949,1435
900.655884,1389
900.772156,1393
900.888489,1415
901.004822,1399
901.121033,1388
901.237366,1395
901.353699,1481
901.46991,1434
901.586304,1422
901.702515,1392
901.818787,1380
901.93512,1403
902.051331,1448
902.167603,1437
902.283875,1426
902.400085,1448
902.516418,1429
902.632629,1462
902.74884,1457
902.865112,1460
902.981384,1447
903.097595,1441
903.213867,1481
903.330017,1479
903.446289,1452
903.5625,1432
903.67865,1475
903.794922,1449
903.911072,1463
904.027344,1447
904.143494,1451
904.259705,1446
904.375916,1441
904.492065,1436
904.608215,1427
904.724426,1417
904.840576,1416
904.956726,1429
905.072876,1475
905.189087,1432
905.305176,1481
905.421387,1432
905.537537,1438
905.653687,1376
905.769775,1469
905.885925,1419
906.002014,1422
906.118164,1417
906.234314,1430
906.350403,1454
906.466492,1435
906.582642,1405
906.69873,1427
906.814758,1433
906.930908,1424
907.046936,1442
907.163086,1359
907.279175,1416
907.395264,1408
907.511353,1385
907.62738,1424
907.743408,1396
907.859497,1401
907.975525,1430
908.091553,1426
908.207703,1417
908.32373,1406
908.439758,1438
908.555786,1383
908.671814,1447
908.787842,1441
908.90387,1443
909.019775,1444
909.135864,1409
909.251892,1421
909.367859,1389
909.483826,1426
909.599854,1427
909.715881,1399
909.831848,1461
909.947815,1393
910.063782,1424
910.179749,1430
910.295776,1379
910.411743,1499
910.527649,1438
910.643616,1464
910.759583,1414
910.875488,1462
910.991455,1389
911.107361,1402
911.223267,1405
911.339294,1457
911.4552,1425
911.571106,1413
911.687073,1457
911.802979,1453
911.918823,1461
912.034729,1439
912.150635,1440
912.266602,1408
912.382446,1433
912.498352,1426
912.614197,1383
912.730103,1454
912.846008,1441
792.44574,2110
792.56488,2125
792.68396,2083
792.80304,2064
792.92218,2039
793.041199,2008
793.160339,1971
793.279419,1948
793.398499,1906
793.517578,1908
793.636658,1914
793.755737,1907
793.874817,1881
793.993896,1882
794.112976,1855
794.232056,1795
794.351074,1835
794.470215,1776
794.589233,1813
794.708313,1825
794.827393,1822
794.946411,1821
795.065552,1759
795.18457,1768
795.303589,1793
795.422668,1753
795.541687,1776
795.660767,1721
795.779846,1727
795.898865,1741
796.017883,1706
796.136963,1719
796.255981,1663
796.375061,1670
796.49408,1724
796.613037,1677
796.732117,1732
796.851135,1723
796.970154,1638
797.089233,1677
797.208191,1626
797.327271,1655
797.446228,1677
797.565186,1684
797.684265,1653
797.803223,1656
797.922241,1634
798.04126,1621
798.160278,1688
798.279297,1665
798.398315,1638
798.517273,1587
798.636292,1579
798.75531,1598
798.874268,1604
798.993286,1644
799.112244,1632
799.231323,1653
799.350281,1567
799.469238,1659
799.588257,1638
799.707153,1631
799.826111,1595
799.945129,1687
800.064087,1591
800.183044,1574
800.302063,1594
800.421021,1611
800.539978,1622
800.658936,1602
800.777893,1576
800.896912,1592
801.015747,1619
801.134705,1631
801.253723,1582
801.37262,1596
801.491638,1577
801.610535,1589
801.729492,1577
801.84845,1583
801.967407,1585
802.086243,1588
802.205261,1596
802.324158,1589
802.443115,1552
802.562073,1520
802.680969,1585
802.799927,1585
802.918762,1552
803.037659,1541
803.156677,1578
803.275574,1582
803.39447,1544
803.513428,1565
803.632263,1578
803.751221,1580
803.870117,1524
803.989014,1571
804.107971,1577
804.226746,1600
804.345642,1558
804.4646,1549
804.583496,1584
804.702393,1548
804.821228,1535
804.940125,1562
805.059021,1581
805.177917,1560
805.296814,1525
805.415649,1577
805.534546,1516
805.653442,1628
805.772278,1567
805.891113,1578
806.01001,1569
806.128906,1565
806.247742,1545
806.366577,1557
806.485413,1534
806.604309,1600
806.723145,1587
806.84198,1544
806.960876,1582
807.079712,1534
807.198486,1524
807.317383,1553
807.436218,1581
807.554993,1515
807.673889,1574
807.792725,1575
807.91156,1526
808.030396,1552
808.14917,1578
808.268005,1564
808.386841,1529
808.505676,1545
808.624451,1554
808.743286,1531
808.862122,1503
808.980896,1544
809.099731,1575
809.218506,1578
809.337341,1545
809.456116,1494
809.57489,1571
809.693726,1545
809.8125,1549
809.931274,1582
810.050049,1506
810.168884,1574
810.287659,1541
810.406372,1562
810.525269,1530
810.643982,1539
810.762756,1552
810.881531,1542
811.000305,1555
811.11908,1524
811.237854,1553
811.356567,1548
811.475403,1535
811.594116,1553
811.71283,1519
811.831604,1566
811.950378,1562
812.069153,1576
812.187927,1520
812.30658,1547
812.425415,1546
812.544128,1556
812.662781,1537
812.781616,1541
812.900269,1548
813.019043,1581
813.137756,1490
813.256531,1543
813.375244,1489
813.493896,1570
813.612671,1537
813.731384,1479
813.850037,1517
813.96875,1508
814.087524,1536
814.206238,1501
814.324951,1508
814.443604,1511
814.562256,1529
814.68103,1525
814.799683,1530
814.918335,1531
815.037109,1492
815.155762,1531
815.274475,1460
815.393188,1519
815.511841,1507
815.630554,1487
815.749146,1531
815.867859,1531
815.986572,1520
816.105164,1506
816.223877,1506
816.342529,1501
816.461182,1469
816.579895,1476
816.698486,1515
816.817139,1526
816.935791,1513
817.054504,1488
817.173096,1507
817.291748,1464
817.4104,1538
817.529053,1474
817.647644,1505
817.766235,1499
817.884949,1446
818.00354,1487
818.122192,1436
818.240845,1496
818.359436,1458
818.478088,1481
818.59668,1429
818.715271,1456
818.833923,1461
818.952515,1431
819.071106,1450
819.189758,1383
819.30835,1447
819.426941,1429
819.545532,1413
819.664124,1443
819.782715,1398
819.901306,1431
820.019897,1429
820.138489,1407
820.25708,1392
820.375671,1393
820.494202,1397
820.612732,1416
820.731384,1418
820.849915,1449
820.968506,1428
821.087097,1394
821.205627,1401
821.324158,1394
821.442749,1394
821.561279,1390
821.679871,1390
821.798401,1377
821.916931,1407
822.035461,1395
822.154053,1361
822.272583,1424
822.391174,1402
822.509583,1386
822.628174,1382
822.746704,1362
822.865234,1382
822.983765,1381
823.102295,1386
823.220825,1357
823.339294,1360
823.457825,1399
823.576355,1385
823.694824,1352
823.813354,1390
823.931885,1369
824.050354,1375
824.168884,1406
824.287354,1386
824.405823,1362
824.524353,1369
824.642822,1362
824.761353,1347
824.879822,1389
824.998291,1377
825.116699,1351
825.235291,1418
825.353699,1363
825.472168,1365
825.590637,1370
825.709106,1357
825.827576,1400
825.946045,1378
826.064453,1366
826.182983,1380
826.301392,1387
826.4198,1333
826.53833,1353
826.656738,1367
826.775208,1393
826.893677,1336
827.012024,1334
827.130493,1358
827.248962,1391
827.36731,1373
827.485779,1386
827.604248,1333
827.722595,1360
827.841064,1328
827.959412,1365
828.077942,1348
828.196289,1366
828.314636,1315
828.433105,1318
828.551514,1338
828.669861,1330
828.78833,1293
828.906677,1271
829.025085,1373
829.143433,1334
829.261841,1361
829.38031,1357
829.498657,1319
829.617004,1370
829.735413,1314
829.85376,1359
829.972107,1332
830.090515,1327
830.208862,1324
830.327209,1335
830.445557,1324
830.563904,1337
830.682312,1376
830.800659,1361
830.919006,1334
831.037354,1332
831.155701,1359
831.274048,1354
831.392395,1351
831.51062,1344
831.629028,1292
831.747314,1343
831.865662,1351
831.984009,1347
832.102356,1336
832.220642,1322
832.338928,1343
832.457275,1320
832.575623,1378
832.693909,1349
832.812134,1355
832.930481,1328
833.048828,1345
833.167114,1347
833.2854,1349
833.403687,1335
833.521973,1320
833.640259,1319
833.758545,1340
833.876831,1309
833.995056,1325
834.113281,1323
834.231628,1331
834.349915,1320
834.468201,1331
834.586426,1334
834.704651,1330
834.822998,1358
834.941162,1304
835.059448,1367
835.177673,1332
835.295959,1338
835.414246,1373
835.53241,1322
835.650635,1340
835.768921,1361
835.887146,1340
836.005371,1338
836.123596,1348
836.241821,1340
836.360046,1352
836.478271,1317
836.596497,1325
836.714722,1317
836.832886,1312
836.95105,1341
837.069336,1313
837.1875,1326
837.305725,1338
837.423889,1380
837.542053,1316
837.660339,1310
837.778503,1336
837.896667,1334
838.014832,1338
838.132996,1304
838.25116,1349
838.369385,1381
838.487488,1348
838.605713,1309
838.723877,1363
838.84198,1353
838.960205,1327
839.078308,1343
839.196472,1338
839.314636,1328
839.4328,1352
839.550964,1344
839.669067,1354
839.787231,1317
839.905396,1366
840.023499,1365
840.141602,1367
840.259766,1326
840.377869,1354
840.495972,1323
840.614136,1344
840.732239,1356
840.850342,1371
840.968445,1386
841.086548,1350
841.204651,1353
841.322754,1365
841.440918,1345
841.55896,1356
841.677002,1339
841.795166,1382
841.913208,1371
842.031311,1355
842.149353,1365
842.267456,1356
842.385498,1346
842.503601,1337
842.621643,1360
842.739746,1318
842.857788,1372
842.97583,1349
843.093933,1317
843.211975,1334
843.330017,1369
843.44812,1375
843.566101,1315
843.684204,1338
843.802246,1351
843.920227,1347
844.038269,1366
844.156311,1354
844.274292,1365
844.392395,1359
844.510376,1339
844.628357,1332
844.74646,1318
844.864441,1381
844.982422,1322
845.100403,1369
845.218384,1374
845.336426,1306
845.454468,1352
845.572449,1349
845.69043,1359
845.808411,1311
845.926453,1348
846.044373,1318
846.162354,1307
846.280396,1321
846.398315,1311
846.516296,1342
846.634216,1331
846.752197,1335
846.870178,1329
846.988098,1316
847.106079,1339
847.22406,1334
847.34198,1366
847.4599,1342
847.577881,1375
847.695801,1330
847.813782,1335
847.931641,1365
848.049561,1335
848.167603,1357
848.285461,1310
848.403381,1310
848.521362,1353
848.639221,1328
848.75708,1344
848.875,1330
848.99292,1329
849.110901,1328
849.22876,1338
849.34668,1321
849.464539,1381
849.582458,1354
849.700317,1288
849.818176,1357
849.936096,1309
850.053955,1367
850.171875,1340
850.289673,1322
850.407593,1305
850.525452,1366
850.643311,1365
850.761169,1353
850.878967,1362
850.996887,1348
851.114746,1337
851.232544,1317
851.350403,1345
851.468262,1324
851.58606,1319
851.703979,1387
851.821777,1344
851.939636,1372
852.057434,1317
852.175232,1345
852.293091,1354
852.410889,1408
852.528687,1360
852.646545,1358
852.764343,1373
852.88208,1384
852.999939,1384
853.117676,1367
853.235535,1353
853.353271,1342
853.471069,1380
853.588928,1361
853.706604,1319
853.824402,1350
853.9422,1328
854.059998,1335
854.177734,1334
854.295532,1354
854.413269,1352
854.531006,1364
854.648804,1301
854.766541,1326
854.884277,1345
855.002014,1313
855.119751,1342
855.237549,1328
855.355225,1325
855.473022,1369
855.590698,1374
855.708435,1359
855.826172,1337
855.943848,1351
856.061646,1389
856.179321,1356
856.296997,1331
856.414795,1350
856.53241,1386
856.650085,1364
856.767822,1376
856.885559,1389
857.003174,1362
857.120911,1405
857.238586,1366
857.356201,1363
857.473938,1377
857.591614,1383
857.709351,1343
857.826965,1354
857.944641,1363
858.062317,1369
858.179993,1356
858.297668,1386
858.415283,1385
858.532959,1387
858.650574,1350
858.768188,1354
858.885803,1365
859.003479,1368
859.121094,1370
859.23877,1358
859.356384,1344
859.473999,1350
859.591675,1310
859.709229,1377
859.826843,1383
859.944458,1361
860.062012,1374
860.179626,1329
860.297302,1320
860.414856,1350
860.532471,1357
860.650024,1362
860.767639,1355
860.885193,1314
861.002808,1332
861.120361,1346
861.237976,1318
861.35553,1341
861.473022,1323
861.590698,1395
861.708191,1308
861.825745,1385
861.943298,1364
862.060852,1336
862.178406,1379
862.295959,1347
862.413513,1335
862.531006,1375
862.64856,1365
862.766113,1331
862.883667,1314
863.00116,1353
863.118713,1347
863.236206,1350
863.353699,1373
863.471252,1319
863.588745,1395
863.706177,1296
863.82373,1375
863.941162,1336
864.058716,1366
864.176208,1389
864.29364,1355
864.411194,1325
864.528687,1329
864.646118,1345
864.763611,1366
864.881042,1343
864.998535,1379
865.116028,1342
865.233459,1407
865.350891,1322
865.468384,1353
865.585754,1376
865.703308,1330
865.820679,1352
865.938171,1348
866.055542,1326
866.173035,1318
866.290466,1349
866.407837,1339
866.52533,1365
866.6427,1349
866.760071,1369
866.877563,1326
866.994934,1393
867.112305,1345
867.229736,1356
867.347107,1381
867.464539,1401
867.58197,1352
867.699341,1333
867.81665,1328
867.934082,1355
868.051453,1382
868.168823,1346
868.286194,1350
868.403564,1363
868.520935,1339
868.638306,1344
868.755676,1366
868.872986,1349
868.990295,1381
869.107727,1424
869.225037,1353
869.342346,1352
869.459717,1397
869.577026,1347
869.694336,1344
869.811707,1339
869.929016,1383
870.046326,1369
870.163635,1369
870.280945,1416
870.398254,1370
870.515564,1382
870.632812,1361
870.750183,1410
870.867432,1365
870.984741,1369
871.102051,1341
871.219299,1365
871.336609,1383
871.453918,1363
871.571106,1417
871.688416,1395
871.805664,1408
871.922852,1360
872.040222,1400
872.157471,1404
872.274719,1411
872.391968,1399
872.509155,1413
872.626465,1381
872.743652,1401
872.860962,1359
872.978149,1386
873.095337,1382
873.212646,1365
873.329834,1364
873.44696,1350
873.564209,1385
873.681396,1372
873.798645,1357
873.915894,1375
874.03302,1377
874.150208,1359
874.267456,1380
874.384583,1378
874.501831,1391
874.618958,1418
874.736145,1389
874.853333,1391
874.970459,1411
875.087646,1430
875.204834,1393
875.32196,1403
875.439148,1403
875.556274,1399
875.673401,1414
875.790527,1422
875.907715,1397
876.024841,1390
876.141968,1371
876.259094,1417
876.376282,1389
876.493347,1370
876.610474,1345
876.7276,1365
876.844727,1398
876.961853,1393
877.078918,1410
877.195984,1430
877.313171,1400
877.430237,1389
877.547302,1396
877.664368,1387
877.781433,1387
877.898499,1418
878.015625,1353
878.13269,1375
878.249695,1395
878.366821,1355
878.483887,1401
878.600952,1355
878.717957,1386
878.834961,1409
878.952087,1373
879.069092,1362
879.186157,1369
879.303162,1372
879.420227,1363
879.537231,1378
879.654236,1424
879.77124,1357
879.888306,1345
880.005249,1377
880.122314,1344
880.239319,1371
880.356323,1365
880.473328,1357
880.590271,1337
880.707275,1324
880.824341,1367
880.941284,1398
881.058228,1363
881.175232,1327
881.292236,1323
881.40918,1385
881.526123,1314
881.643066,1319
881.760071,1318
881.877014,1387
881.993958,1374
882.11084,1380
882.227783,1409
882.344727,1401
882.46167,1341
882.578613,1396
882.695618,1361
882.812439,1377
882.929382,1369
883.046326,1394
883.163208,1376
883.280151,1353
883.397034,1378
883.513916,1382
883.630798,1364
883.747742,1428
883.864563,1367
883.981506,1386
884.098389,1361
884.21521,1349
884.332153,1385
884.448975,1420
884.565796,1420
884.682678,1436
884.7995,1406
884.916443,1426
885.033264,1437
885.150085,1464
885.266968,1447
885.383789,1432
885.500671,1472
885.617493,1430
885.734314,1506
885.851196,1394
885.967896,1470
886.084717,1468
886.201599,1484
886.318359,1437
886.435181,1477
886.552002,1483
886.668762,1403
886.785645,1452
886.902344,1446
887.019165,1433
887.135925,1480
887.252747,1442
887.369446,1448
887.486267,1433
887.603027,1440
887.719788,1431
887.836548,1385
887.953247,1419
888.070068,1376
888.186829,1379
888.303528,1430
888.420288,1390
888.536987,1352
888.653687,1425
888.770447,1371
888.887146,1371
889.003967,1410
889.120667,1379
889.237305,1411
889.354065,1384
889.470703,1373
889.587463,1342
889.704163,1382
889.820862,1416
889.937561,1371
890.054199,1399
890.170837,1416
890.287598,1384
890.404236,1414
890.520874,1376
890.637634,1388
890.754211,1405
890.87085,1378
890.987549,1378
891.104187,1420
891.220886,1374
891.337463,1360
891.454102,1414
891.57074,1410
891.687378,1427
891.804077,1407
891.920654,1383
892.037231,1396
892.15387,1409
892.270447,1383
892.387085,1383
892.503723,1381
892.6203,1384
892.736877,1419
892.853516,1412
892.970032,1386
893.08667,1418
893.203186,1393
893.319763,1389
893.43634,1370
893.552917,1426
893.669556,1427
893.786011,1401
893.902588,1396
894.019165,1387
894.135681,1387
894.252197,1411
894.368835,1435
894.485291,1456
894.601868,1391
894.718384,1388
894.8349,1424
894.951355,1396
895.067932,1411
895.184448,1441
895.300964,1413
895.417419,1394
895.533936,1427
895.650452,1420
895.766907,1424
895.883423,1442
895.999878,1412
896.116333,1409
896.232849,1386
896.349304,1397
896.465759,1404
896.582214,1467
896.698669,1426
896.815125,1411
896.931641,1432
897.048035,1429
897.164551,1428
897.280884,1366
897.397339,1454
897.513794,1411
897.630249,1437
897.746582,1398
897.863098,1401
897.979431,1448
898.095886,1375
898.212341,1418
898.328674,1425
898.445129,1402
898.561462,1386
898.677795,1424
898.794312,1404
898.910645,1391
899.026978,1389
899.143433,1417
899.259766,1441
899.37616,1382
899.492493,1463
899.608765,1381
899.725159,1435
899.841553,1443
899.957947,1396
900.07428,1475
900.190552,1435
900.306946,1427
900.423157,1420
900.53949,1395
900.655884,1415
900.772156,1408
900.888489,1439
901.004822,1420
901.121033,1428
901.237366,1416
901.353699,1445
901.46991,1449
901.586304,1456
901.702515,1436
901.818787,1436
901.93512,1485
902.051331,1472
902.167603,1435
902.283875,1469
902.400085,1443
902.516418,1452
902.632629,1460
902.74884,1550
902.865112,1522
902.981384,1470
903.097595,1499
903.213867,1465
903.330017,1490
903.446289,1444
903.5625,1449
903.67865,1442
903.794922,1443
903.911072,1447
904.027344,1476
904.143494,1434
904.259705,1445
904.375916,1443
904.492065,1447
904.608215,1442
904.724426,1463
904.840576,1443
904.956726,1459
905.072876,1428
905.189087,1448
905.305176,1441
905.421387,1450
905.537537,1448
905.653687,1435
905.769775,1405
905.885925,1448
906.002014,1442
906.118164,1405
906.234314,1451
906.350403,1400
906.466492,1484
906.582642,1455
906.69873,1431
906.814758,1445
906.930908,1458
907.046936,1419
907.163086,1448
907.279175,1435
907.395264,1485
907.511353,1447
907.62738,1450
907.743408,1441
907.859497,1463
907.975525,1457
908.091553,1414
908.207703,1414
908.32373,1429
908.439758,1475
908.555786,1451
908.671814,1439
908.787842,1451
908.90387,1445
909.019775,1464
909.135864,1438
909.251892,1455
909.367859,1471
909.483826,1442
909.599854,1473
909.715881,1465
909.831848,1450
909.947815,1443
910.063782,1448
910.179749,1446
910.295776,1467
910.411743,1445
910.527649,1473
910.643616,1480
910.759583,1466
910.875488,1442
910.991455,1454
911.107361,1461
911.223267,1443
911.339294,1450
911.4552,1456
911.571106,1431
911.687073,1418
911.802979,1458
911.918823,1423
912.034729,1445
912.150635,1427
912.266602,1467
912.382446,1443
912.498352,1416
912.614197,1442
912.730103,1433
912.846008,1424
