792.44574,2831
792.56488,2744
792.68396,2735
792.80304,2631
792.92218,2600
793.041199,2503
793.160339,2485
793.279419,2503
793.398499,2477
793.517578,2402
793.636658,2323
793.755737,2339
793.874817,2279
793.993896,2268
794.112976,2210
794.232056,2224
794.351074,2192
794.470215,2190
794.589233,2146
794.708313,2136
794.827393,2095
794.946411,2138
795.065552,2038
795.18457,2092
795.303589,2028
795.422668,1975
795.541687,2039
795.660767,2016
795.779846,1945
795.898865,1958
796.017883,1953
796.136963,1928
796.255981,1953
796.375061,1910
796.49408,1923
796.613037,1918
796.732117,1914
796.851135,1896
796.970154,1894
797.089233,1869
797.208191,1818
797.327271,1823
797.446228,1858
797.565186,1870
797.684265,1821
797.803223,1803
797.922241,1808
798.04126,1784
798.160278,1818
798.279297,1763
798.398315,1797
798.517273,1754
798.636292,1768
798.75531,1784
798.874268,1757
798.993286,1737
799.112244,1787
799.231323,1757
799.350281,1742
799.469238,1799
799.588257,1766
799.707153,1737
799.826111,1769
799.945129,1712
800.064087,1731
800.183044,1717
800.302063,1714
800.421021,1705
800.539978,1736
800.658936,1721
800.777893,1743
800.896912,1727
801.015747,1750
801.134705,1700
801.253723,1673
801.37262,1690
801.491638,1718
801.610535,1715
801.729492,1690
801.84845,1663
801.967407,1695
802.086243,1717
802.205261,1691
802.324158,1689
802.443115,1626
802.562073,1682
802.680969,1668
802.799927,1632
802.918762,1689
803.037659,1593
803.156677,1671
803.275574,1665
803.39447,1675
803.513428,1635
803.632263,1646
803.751221,1648
803.870117,1642
803.989014,1640
804.107971,1683
804.226746,1644
804.345642,1640
804.4646,1610
804.583496,1655
804.702393,1653
804.821228,1615
804.940125,1620
805.059021,1630
805.177917,1655
805.296814,1649
805.415649,1602
805.534546,1647
805.653442,1606
805.772278,1658
805.891113,1675
806.01001,1600
806.128906,1642
806.247742,1626
806.366577,1629
806.485413,1643
806.604309,1617
806.723145,1705
806.84198,1648
806.960876,1600
807.079712,1630
807.198486,1645
807.317383,1581
807.436218,1596
807.554993,1629
807.673889,1622
807.792725,1617
807.91156,1614
808.030396,1635
808.14917,1558
808.268005,1618
808.386841,1576
808.505676,1617
808.624451,1580
808.743286,1580
808.862122,1612
808.980896,1626
809.099731,1605
809.218506,1587
809.337341,1667
809.456116,1635
809.57489,1571
809.693726,1619
809.8125,1625
809.931274,1582
810.050049,1577
810.168884,1609
810.287659,1610
810.406372,1638
810.525269,1621
810.643982,1552
810.762756,1595
810.881531,1628
811.000305,1651
811.11908,1620
811.237854,1609
811.356567,1571
811.475403,1617
811.594116,1639
811.71283,1648
811.831604,1616
811.950378,1608
812.069153,1649
812.187927,1606
812.30658,1577
812.425415,1608
812.544128,1604
812.662781,1606
812.781616,1635
812.900269,1595
813.019043,1607
813.137756,1631
813.256531,1619
813.375244,1579
813.493896,1574
813.612671,1582
813.731384,1581
813.850037,1613
813.96875,1622
814.087524,1556
814.206238,1562
814.324951,1634
814.443604,1572
814.562256,1557
814.68103,1599
814.799683,1598
814.918335,1565
815.037109,1576
815.155762,1588
815.274475,1578
815.393188,1545
815.511841,1580
815.630554,1526
815.749146,1541
815.867859,1515
815.986572,1528
816.105164,1559
816.223877,1538
816.342529,1570
816.461182,1582
816.579895,1572
816.698486,1573
816.817139,1579
816.935791,1535
817.054504,1579
817.173096,1546
817.291748,1553
817.4104,1574
817.529053,1497
817.647644,1523
817.766235,1505
817.884949,1509
818.00354,1529
818.122192,1501
818.240845,1522
818.359436,1450
818.478088,1507
818.59668,1468
818.715271,1472
818.833923,1435
818.952515,1453
819.071106,1468
819.189758,1474
819.30835,1432
819.426941,1470
819.545532,1441
819.664124,1481
819.782715,1401
819.901306,1453
820.019897,1427
820.138489,1446
820.25708,1453
820.375671,1390
820.494202,1423
820.612732,1427
820.731384,1420
820.849915,1436
820.968506,1424
821.087097,1425
821.205627,1403
821.324158,1421
821.442749,1405
821.561279,1405
821.679871,1408
821.798401,1415
821.916931,1410
822.035461,1384
822.154053,1374
822.272583,1392
822.391174,1399
822.509583,1385
822.628174,1406
822.746704,1365
822.865234,1382
822.983765,1392
823.102295,1341
823.220825,1377
823.339294,1390
823.457825,1383
823.576355,1419
823.694824,1384
823.813354,1376
823.931885,1418
824.050354,1389
824.168884,1401
824.287354,1382
824.405823,1400
824.524353,1395
824.642822,1360
824.761353,1428
824.879822,1382
824.998291,1379
825.116699,1367
825.235291,1380
825.353699,1391
825.472168,1370
825.590637,1328
825.709106,1376
825.827576,1383
825.946045,1398
826.064453,1352
826.182983,1373
826.301392,1347
826.4198,1363
826.53833,1334
826.656738,1365
826.775208,1339
826.893677,1347
827.012024,1351
827.130493,1363
827.248962,1358
827.36731,1351
827.485779,1358
827.604248,1312
827.722595,1384
827.841064,1361
827.959412,1324
828.077942,1368
828.196289,1334
828.314636,1338
828.433105,1341
828.551514,1371
828.669861,1365
828.78833,1343
828.906677,1330
829.025085,1311
829.143433,1320
829.261841,1355
829.38031,1355
829.498657,1324
829.617004,1331
829.735413,1332
829.85376,1355
829.972107,1347
830.090515,1342
830.208862,1328
830.327209,1314
830.445557,1359
830.563904,1346
830.682312,1360
830.800659,1344
830.919006,1361
831.037354,1376
831.155701,1334
831.274048,1382
831.392395,1366
831.51062,1404
831.629028,1364
831.747314,1380
831.865662,1350
831.984009,1364
832.102356,1344
832.220642,1383
832.338928,1381
832.457275,1388
832.575623,1386
832.693909,1385
832.812134,1350
832.930481,1383
833.048828,1355
833.167114,1361
833.2854,1357
833.403687,1348
833.521973,1350
833.640259,1364
833.758545,1317
833.876831,1352
833.995056,1375
834.113281,1305
834.231628,1387
834.349915,1383
834.468201,1327
834.586426,1324
834.704651,1365
834.822998,1368
834.941162,1340
835.059448,1337
835.177673,1359
835.295959,1327
835.414246,1394
835.53241,1374
835.650635,1377
835.768921,1377
835.887146,1338
836.005371,1387
836.123596,1360
836.241821,1333
836.360046,1303
836.478271,1349
836.596497,1320
836.714722,1321
836.832886,1354
836.95105,1354
837.069336,1372
837.1875,1350
837.305725,1344
837.423889,1356
837.542053,1343
837.660339,1344
837.778503,1358
837.896667,1337
838.014832,1344
838.132996,1330
838.25116,1340
838.369385,1376
838.487488,1387
838.605713,1350
838.723877,1355
838.84198,1392
838.960205,1366
839.078308,1343
839.196472,1376
839.314636,1365
839.4328,1366
839.550964,1343
839.669067,1324
839.787231,1368
839.905396,1397
840.023499,1359
840.141602,1377
840.259766,1403
840.377869,1372
840.495972,1380
840.614136,1388
840.732239,1397
840.850342,1368
840.968445,1408
841.086548,1439
841.204651,1380
841.322754,1413
841.440918,1383
841.55896,1403
841.677002,1423
841.795166,1394
841.913208,1394
842.031311,1392
842.149353,1404
842.267456,1363
842.385498,1396
842.503601,1377
842.621643,1383
842.739746,1374
842.857788,1369
842.97583,1392
843.093933,1395
843.211975,1360
843.330017,1403
843.44812,1412
843.566101,1386
843.684204,1382
843.802246,1404
843.920227,1409
844.038269,1368
844.156311,1416
844.274292,1376
844.392395,1380
844.510376,1375
844.628357,1366
844.74646,1380
844.864441,1389
844.982422,1365
845.100403,1431
845.218384,1360
845.336426,1386
845.454468,1420
845.572449,1372
845.69043,1382
845.808411,1384
845.926453,1370
846.044373,1366
846.162354,1383
846.280396,1399
846.398315,1426
846.516296,1396
846.634216,1378
846.752197,1330
846.870178,1426
846.988098,1380
847.106079,1350
847.22406,1389
847.34198,1371
847.4599,1366
847.577881,1398
847.695801,1353
847.813782,1366
847.931641,1386
848.049561,1424
848.167603,1359
848.285461,1368
848.403381,1423
848.521362,1373
848.639221,1391
848.75708,1377
848.875,1382
848.99292,1382
849.110901,1372
849.22876,1432
849.34668,1393
849.464539,1364
849.582458,1419
849.700317,1345
849.818176,1372
849.936096,1378
850.053955,1387
850.171875,1407
850.289673,1421
850.407593,1330
850.525452,1400
850.643311,1379
850.761169,1410
850.878967,1379
850.996887,1423
851.114746,1326
851.232544,1382
851.350403,1343
851.468262,1382
851.58606,1356
851.703979,1346
851.821777,1356
851.939636,1389
852.057434,1386
852.175232,1406
852.293091,1422
852.410889,1398
852.528687,1419
852.646545,1443
852.764343,1403
852.88208,1436
852.999939,1417
853.117676,1398
853.235535,1432
853.353271,1374
853.471069,1363
853.588928,1382
853.706604,1425
853.824402,1401
853.9422,1396
854.059998,1346
854.177734,1385
854.295532,1375
854.413269,1391
854.531006,1380
854.648804,1433
854.766541,1387
854.884277,1428
855.002014,1363
855.119751,1370
855.237549,1395
855.355225,1399
855.473022,1376
855.590698,1374
855.708435,1396
855.826172,1335
855.943848,1434
856.061646,1383
856.179321,1432
856.296997,1342
856.414795,1412
856.53241,1410
856.650085,1431
856.767822,1391
856.885559,1432
857.003174,1431
857.120911,1420
857.238586,1418
857.356201,1458
857.473938,1427
857.591614,1429
857.709351,1444
857.826965,1359
857.944641,1439
858.062317,1401
858.179993,1399
858.297668,1408
858.415283,1462
858.532959,1456
858.650574,1392
858.768188,1412
858.885803,1388
859.003479,1442
859.121094,1380
859.23877,1431
859.356384,1403
859.473999,1396
859.591675,1366
859.709229,1414
859.826843,1385
859.944458,1381
860.062012,1353
860.179626,1440
860.297302,1354
860.414856,1381
860.532471,1368
860.650024,1356
860.767639,1354
860.885193,1335
861.002808,1342
861.120361,1384
861.237976,1392
861.35553,1411
861.473022,1400
861.590698,1390
861.708191,1403
861.825745,1389
861.943298,1460
862.060852,1353
862.178406,1430
862.295959,1316
862.413513,1375
862.531006,1356
862.64856,1402
862.766113,1358
862.883667,1347
863.00116,1355
863.118713,1351
863.236206,1390
863.353699,1330
863.471252,1374
863.588745,1364
863.706177,1430
863.82373,1364
863.941162,1372
864.058716,1423
864.176208,1360
864.29364,1391
864.411194,1412
864.528687,1361
864.646118,1359
864.763611,1326
864.881042,1387
864.998535,1361
865.116028,1419
865.233459,1350
865.350891,1334
865.468384,1379
865.585754,1349
865.703308,1318
865.820679,1350
865.938171,1358
866.055542,1392
866.173035,1375
866.290466,1387
866.407837,1377
866.52533,1354
866.6427,1407
866.760071,1353
866.877563,1396
866.994934,1384
867.112305,1417
867.229736,1363
867.347107,1398
867.464539,1383
867.58197,1404
867.699341,1344
867.81665,1373
867.934082,1390
868.051453,1358
868.168823,1395
868.286194,1417
868.403564,1359
868.520935,1377
868.638306,1356
868.755676,1392
868.872986,1411
868.990295,1369
869.107727,1373
869.225037,1384
869.342346,1435
869.459717,1371
869.577026,1405
869.694336,1439
869.811707,1425
869.929016,1413
870.046326,1387
870.163635,1423
870.280945,1431
870.398254,1383
870.515564,1473
870.632812,1433
870.750183,1401
870.867432,1420
870.984741,1458
871.102051,1415
871.219299,1478
871.336609,1437
871.453918,1439
871.571106,1448
871.688416,1435
871.805664,1451
871.922852,1454
872.040222,1415
872.157471,1477
872.274719,1420
872.391968,1427
872.509155,1442
872.626465,1386
872.743652,1435
872.860962,1398
872.978149,1472
873.095337,1452
873.212646,1438
873.329834,1419
873.44696,1503
873.564209,1424
873.681396,1413
873.798645,1431
873.915894,1405
874.03302,1442
874.150208,1420
874.267456,1450
874.384583,1451
874.501831,1442
874.618958,1426
874.736145,1491
874.853333,1503
874.970459,1496
875.087646,1458
875.204834,1437
875.32196,1448
875.439148,1487
875.556274,1440
875.673401,1481
875.790527,1429
875.907715,1408
876.024841,1419
876.141968,1420
876.259094,1431
876.376282,1446
876.493347,1355
876.610474,1402
876.7276,1413
876.844727,1398
876.961853,1428
877.078918,1413
877.195984,1421
877.313171,1423
877.430237,1388
877.547302,1402
877.664368,1450
877.781433,1395
877.898499,1431
878.015625,1378
878.13269,1402
878.249695,1409
878.366821,1398
878.483887,1409
878.600952,1346
878.717957,1424
878.834961,1380
878.952087,1394
879.069092,1376
879.186157,1415
879.303162,1370
879.420227,1375
879.537231,1371
879.654236,1399
879.77124,1349
879.888306,1366
880.005249,1401
880.122314,1363
880.239319,1343
880.356323,1381
880.473328,1383
880.590271,1372
880.707275,1389
880.824341,1373
880.941284,1357
881.058228,1389
881.175232,1402
881.292236,1363
881.40918,1394
881.526123,1386
881.643066,1373
881.760071,1353
881.877014,1375
881.993958,1358
882.11084,1377
882.227783,1376
882.344727,1366
882.46167,1350
882.578613,1376
882.695618,1408
882.812439,1324
882.929382,1413
883.046326,1385
883.163208,1381
883.280151,1386
883.397034,1378
883.513916,1373
883.630798,1375
883.747742,1400
883.864563,1387
883.981506,1405
884.098389,1380
884.21521,1399
884.332153,1424
884.448975,1426
884.565796,1415
884.682678,1503
884.7995,1421
884.916443,1501
885.033264,1533
885.150085,1555
885.266968,1553
885.383789,1606
885.500671,1565
885.617493,1601
885.734314,1586
885.851196,1606
885.967896,1543
886.084717,1594
886.201599,1557
886.318359,1526
886.435181,1556
886.552002,1540
886.668762,1539
886.785645,1534
886.902344,1531
887.019165,1503
887.135925,1482
887.252747,1477
887.369446,1493
887.486267,1496
887.603027,1495
887.719788,1456
887.836548,1468
887.953247,1438
888.070068,1446
888.186829,1436
888.303528,1407
888.420288,1432
888.536987,1359
888.653687,1357
888.770447,1343
888.887146,1386
889.003967,1392
889.120667,1354
889.237305,1386
889.354065,1407
889.470703,1387
889.587463,1367
889.704163,1386
889.820862,1340
889.937561,1401
890.054199,1343
890.170837,1332
890.287598,1374
890.404236,1371
890.520874,1329
890.637634,1382
890.754211,1390
890.87085,1399
890.987549,1367
891.104187,1386
891.220886,1379
891.337463,1368
891.454102,1387
891.57074,1376
891.687378,1391
891.804077,1416
891.920654,1432
892.037231,1387
892.15387,1320
892.270447,1390
892.387085,1370
892.503723,1407
892.6203,1401
892.736877,1358
892.853516,1363
892.970032,1380
893.08667,1379
893.203186,1420
893.319763,1330
893.43634,1362
893.552917,1374
893.669556,1375
893.786011,1379
893.902588,1352
894.019165,1371
894.135681,1378
894.252197,1399
894.368835,1381
894.485291,1373
894.601868,1355
894.718384,1382
894.8349,1396
894.951355,1408
895.067932,1366
895.184448,1394
895.300964,1384
895.417419,1423
895.533936,1392
895.650452,1400
895.766907,1380
895.883423,1373
895.999878,1388
896.116333,1382
896.232849,1401
896.349304,1406
896.465759,1404
896.582214,1368
896.698669,1404
896.815125,1414
896.931641,1373
897.048035,1384
897.164551,1385
897.280884,1369
897.397339,1399
897.513794,1407
897.630249,1394
897.746582,1411
897.863098,1379
897.979431,1380
898.095886,1391
898.212341,1372
898.328674,1414
898.445129,1364
898.561462,1425
898.677795,1391
898.794312,1407
898.910645,1363
899.026978,1401
899.143433,1447
899.259766,1397
899.37616,1391
899.492493,1386
899.608765,1395
899.725159,1376
899.841553,1410
899.957947,1393
900.07428,1418
900.190552,1369
900.306946,1442
900.423157,1392
900.53949,1448
900.655884,1386
900.772156,1418
900.888489,1419
901.004822,1428
901.121033,1437
901.237366,1374
901.353699,1423
901.46991,1439
901.586304,1450
901.702515,1380
901.818787,1464
901.93512,1463
902.051331,1465
902.167603,1467
902.283875,1516
902.400085,1463
902.516418,1476
902.632629,1519
902.74884,1528
902.865112,1518
902.981384,1539
903.097595,1502
903.213867,1489
903.330017,1515
903.446289,1560
903.5625,1515
903.67865,1464
903.794922,1470
903.911072,1456
904.027344,1460
904.143494,1464
904.259705,1480
904.375916,1461
904.492065,1477
904.608215,1430
904.724426,1450
904.840576,1439
904.956726,1394
905.072876,1437
905.189087,1423
905.305176,1430
905.421387,1401
905.537537,1439
905.653687,1458
905.769775,1439
905.885925,1446
906.002014,1440
906.118164,1391
906.234314,1409
906.350403,1381
906.466492,1418
906.582642,1400
906.69873,1438
906.814758,1387
906.930908,1404
907.046936,1350
907.163086,1458
907.279175,1422
907.395264,1428
907.511353,1363
907.62738,1434
907.743408,1426
907.859497,1395
907.975525,1411
908.091553,1406
908.207703,1394
908.32373,1426
908.439758,1378
908.555786,1388
908.671814,1435
908.787842,1371
908.90387,1422
909.019775,1375
909.135864,1445
909.251892,1413
909.367859,1382
909.483826,1455
909.599854,1399
909.715881,1446
909.831848,1403
909.947815,1425
910.063782,1407
910.179749,1445
910.295776,1417
910.411743,1427
910.527649,1399
910.643616,1430
910.759583,1409
910.875488,1419
910.991455,1406
911.107361,1394
911.223267,1426
911.339294,1397
911.4552,1395
911.571106,1439
911.687073,1417
911.802979,1464
911.918823,1403
912.034729,1426
912.150635,1414
912.266602,1409
912.382446,1376
912.498352,1418
912.614197,1403
912.730103,1385
912.846008,1365
792.44574,2867
792.56488,2730
792.68396,2704
792.80304,2682
792.92218,2606
793.041199,2519
793.160339,2507
793.279419,2499
793.398499,2417
793.517578,2432
793.636658,2319
793.755737,2361
793.874817,2352
793.993896,2308
794.112976,2238
794.232056,2239
794.351074,2187
794.470215,2185
794.589233,2171
794.708313,2058
794.827393,2143
794.946411,2109
795.065552,2102
795.18457,2096
795.303589,2057
795.422668,2088
795.541687,2033
795.660767,2034
795.779846,1967
795.898865,1998
796.017883,1995
796.136963,1997
796.255981,2006
796.375061,1934
796.49408,1964
796.613037,1923
796.732117,1881
796.851135,1904
796.970154,1888
797.089233,1886
797.208191,1852
797.327271,1847
797.446228,1878
797.565186,1874
797.684265,1869
797.803223,1816
797.922241,1819
798.04126,1834
798.160278,1840
798.279297,1836
798.398315,1785
798.517273,1753
798.636292,1815
798.75531,1802
798.874268,1814
798.993286,1799
799.112244,1777
799.231323,1757
799.350281,1768
799.469238,1714
799.588257,1763
799.707153,1824
799.826111,1765
799.945129,1840
800.064087,1747
800.183044,1729
800.302063,1760
800.421021,1775
800.539978,1761
800.658936,1729
800.777893,1758
800.896912,1709
801.015747,1800
801.134705,1710
801.253723,1719
801.37262,1693
801.491638,1747
801.610535,1698
801.729492,1724
801.84845,1730
801.967407,1661
802.086243,1744
802.205261,1716
802.324158,1712
802.443115,1706
802.562073,1653
802.680969,1716
802.799927,1682
802.918762,1706
803.037659,1685
803.156677,1731
803.275574,1695
803.39447,1710
803.513428,1715
803.632263,1699
803.751221,1689
803.870117,1701
803.989014,1665
804.107971,1652
804.226746,1675
804.345642,1640
804.4646,1646
804.583496,1653
804.702393,1623
804.821228,1663
804.940125,1664
805.059021,1652
805.177917,1594
805.296814,1641
805.415649,1662
805.534546,1648
805.653442,1634
805.772278,1633
805.891113,1720
806.01001,1685
806.128906,1627
806.247742,1676
806.366577,1656
806.485413,1633
806.604309,1685
806.723145,1667
806.84198,1633
806.960876,1686
807.079712,1630
807.198486,1662
807.317383,1594
807.436218,1669
807.554993,1642
807.673889,1621
807.792725,1632
807.91156,1672
808.030396,1599
808.14917,1644
808.268005,1591
808.386841,1663
808.505676,1658
808.624451,1619
808.743286,1608
808.862122,1616
808.980896,1640
809.099731,1631
809.218506,1638
809.337341,1614
809.456116,1636
809.57489,1671
809.693726,1606
809.8125,1624
809.931274,1618
810.050049,1621
810.168884,1631
810.287659,1606
810.406372,1593
810.525269,1614
810.643982,1571
810.762756,1634
810.881531,1632
811.000305,1646
811.11908,1620
811.237854,1599
811.356567,1599
811.475403,1632
811.594116,1635
811.71283,1615
811.831604,1597
811.950378,1670
812.069153,1593
812.187927,1686
812.30658,1655
812.425415,1640
812.544128,1617
812.662781,1635
812.781616,1619
812.900269,1587
813.019043,1596
813.137756,1638
813.256531,1618
813.375244,1584
813.493896,1603
813.612671,1639
813.731384,1637
813.850037,1565
813.96875,1589
814.087524,1607
814.206238,1597
814.324951,1638
814.443604,1609
814.562256,1591
814.68103,1584
814.799683,1610
814.918335,1636
815.037109,1591
815.155762,1565
815.274475,1590
815.393188,1542
815.511841,1595
815.630554,1608
815.749146,1588
815.867859,1576
815.986572,1539
816.105164,1569
816.223877,1549
816.342529,1570
816.461182,1579
816.579895,1569
816.698486,1596
816.817139,1591
816.935791,1568
817.054504,1609
817.173096,1612
817.291748,1550
817.4104,1592
817.529053,1594
817.647644,1560
817.766235,1551
817.884949,1578
818.00354,1524
818.122192,1508
818.240845,1530
818.359436,1526
818.478088,1485
818.59668,1524
818.715271,1490
818.833923,1490
818.952515,1503
819.071106,1510
819.189758,1495
819.30835,1474
819.426941,1475
819.545532,1450
819.664124,1407
819.782715,1435
819.901306,1472
820.019897,1457
820.138489,1503
820.25708,1493
820.375671,1435
820.494202,1469
820.612732,1485
820.731384,1428
820.849915,1461
820.968506,1419
821.087097,1464
821.205627,1426
821.324158,1417
821.442749,1445
821.561279,1449
821.679871,1421
821.798401,1436
821.916931,1406
822.035461,1444
822.154053,1436
822.272583,1431
822.391174,1416
822.509583,1376
822.628174,1392
822.746704,1441
822.865234,1469
822.983765,1415
823.102295,1373
823.220825,1428
823.339294,1378
823.457825,1413
823.576355,1392
823.694824,1408
823.813354,1386
823.931885,1428
824.050354,1425
824.168884,1414
824.287354,1444
824.405823,1433
824.524353,1417
824.642822,1420
824.761353,1423
824.879822,1457
824.998291,1417
825.116699,1404
825.235291,1424
825.353699,1442
825.472168,1378
825.590637,1418
825.709106,1364
825.827576,1380
825.946045,1418
826.064453,1422
826.182983,1420
826.301392,1331
826.4198,1450
826.53833,1394
826.656738,1383
826.775208,1394
826.893677,1380
827.012024,1392
827.130493,1385
827.248962,1402
827.36731,1406
827.485779,1402
827.604248,1410
827.722595,1374
827.841064,1394
827.959412,1339
828.077942,1388
828.196289,1362
828.314636,1380
828.433105,1346
828.551514,1376
828.669861,1390
828.78833,1360
828.906677,1346
829.025085,1363
829.143433,1349
829.261841,1377
829.38031,1327
829.498657,1372
829.617004,1375
829.735413,1417
829.85376,1337
829.972107,1385
830.090515,1327
830.208862,1333
830.327209,1356
830.445557,1363
830.563904,1406
830.682312,1360
830.800659,1361
830.919006,1376
831.037354,1306
831.155701,1411
831.274048,1390
831.392395,1370
831.51062,1418
831.629028,1391
831.747314,1374
831.865662,1409
831.984009,1344
832.102356,1382
832.220642,1401
832.338928,1369
832.457275,1334
832.575623,1394
832.693909,1365
832.812134,1395
832.930481,1404
833.048828,1406
833.167114,1390
833.2854,1370
833.403687,1365
833.521973,1371
833.640259,1405
833.758545,1386
833.876831,1405
833.995056,1417
834.113281,1371
834.231628,1391
834.349915,1383
834.468201,1393
834.586426,1358
834.704651,1356
834.822998,1343
834.941162,1381
835.059448,1393
835.177673,1350
835.295959,1387
835.414246,1399
835.53241,1408
835.650635,1391
835.768921,1347
835.887146,1342
836.005371,1373
836.123596,1338
836.241821,1392
836.360046,1382
836.478271,1365
836.596497,1420
836.714722,1363
836.832886,1338
836.95105,1360
837.069336,1371
837.1875,1363
837.305725,1388
837.423889,1367
837.542053,1348
837.660339,1368
837.778503,1377
837.896667,1348
838.014832,1381
838.132996,1349
838.25116,1370
838.369385,1390
838.487488,1356
838.605713,1381
838.723877,1356
838.84198,1400
838.960205,1427
839.078308,1362
839.196472,1394
839.314636,1359
839.4328,1411
839.550964,1409
839.669067,1390
839.787231,1373
839.905396,1402
840.023499,1390
840.141602,1417
840.259766,1413
840.377869,1410
840.495972,1398
840.614136,1421
840.732239,1376
840.850342,1400
840.968445,1415
841.086548,1370
841.204651,1415
841.322754,1410
841.440918,1407
841.55896,1443
841.677002,1422
841.795166,1440
841.913208,1456
842.031311,1454
842.149353,1412
842.267456,1365
842.385498,1433
842.503601,1376
842.621643,1388
842.739746,1415
842.857788,1417
842.97583,1418
843.093933,1393
843.211975,1399
843.330017,1458
843.44812,1430
843.566101,1456
843.684204,1393
843.802246,1415
843.920227,1456
844.038269,1418
844.156311,1438
844.274292,1375
844.392395,1433
844.510376,1368
844.628357,1398
844.74646,1421
844.864441,1424
844.982422,1384
845.100403,1379
845.218384,1381
845.336426,1393
845.454468,1351
845.572449,1410
845.69043,1388
845.808411,1363
845.926453,1436
846.044373,1395
846.162354,1354
846.280396,1420
846.398315,1406
846.516296,1364
846.634216,1384
846.752197,1394
846.870178,1397
846.988098,1443
847.106079,1369
847.22406,1399
847.34198,1409
847.4599,1416
847.577881,1414
847.695801,1409
847.813782,1372
847.931641,1371
848.049561,1372
848.167603,1429
848.285461,1395
848.403381,1390
848.521362,1377
848.639221,1416
848.75708,1408
848.875,1427
848.99292,1425
849.110901,1365
849.22876,1401
849.34668,1399
849.464539,1376
849.582458,1419
849.700317,1440
849.818176,1417
849.936096,1434
850.053955,1411
850.171875,1413
850.289673,1427
850.407593,1445
850.525452,1411
850.643311,1446
850.761169,1430
850.878967,1363
850.996887,1390
851.114746,1401
851.232544,1380
851.350403,1411
851.468262,1387
851.58606,1386
851.703979,1391
851.821777,1438
851.939636,1419
852.057434,1398
852.175232,1438
852.293091,1400
852.410889,1450
852.528687,1453
852.646545,1470
852.764343,1493
852.88208,1489
852.999939,1443
853.117676,1424
853.235535,1446
853.353271,1423
853.471069,1391
853.588928,1431
853.706604,1401
853.824402,1418
853.9422,1371
854.059998,1396
854.177734,1420
854.295532,1419
854.413269,1417
854.531006,1428
854.648804,1393
854.766541,1429
854.884277,1430
855.002014,1425
855.119751,1383
855.237549,1361
855.355225,1462
855.473022,1407
855.590698,1401
855.708435,1380
855.826172,1368
855.943848,1442
856.061646,1396
856.179321,1447
856.296997,1402
856.414795,1461
856.53241,1379
856.650085,1376
856.767822,1402
856.885559,1442
857.003174,1448
857.120911,1481
857.238586,1467
857.356201,1465
857.473938,1392
857.591614,1486
857.709351,1445
857.826965,1429
857.944641,1422
858.062317,1438
858.179993,1456
858.297668,1484
858.415283,1449
858.532959,1446
858.650574,1465
858.768188,1478
858.885803,1457
859.003479,1433
859.121094,1438
859.23877,1428
859.356384,1395
859.473999,1434
859.591675,1436
859.709229,1412
859.826843,1398
859.944458,1431
860.062012,1409
860.179626,1363
860.297302,1403
860.414856,1381
860.532471,1419
860.650024,1404
860.767639,1397
860.885193,1369
861.002808,1385
861.120361,1410
861.237976,1384
861.35553,1404
861.473022,1401
861.590698,1385
861.708191,1384
861.825745,1431
861.943298,1442
862.060852,1405
862.178406,1413
862.295959,1394
862.413513,1331
862.531006,1395
862.64856,1354
862.766113,1356
862.883667,1418
863.00116,1374
863.118713,1375
863.236206,1453
863.353699,1393
863.471252,1426
863.588745,1397
863.706177,1381
863.82373,1450
863.941162,1459
864.058716,1388
864.176208,1416
864.29364,1375
864.411194,1417
864.528687,1378
864.646118,1441
864.763611,1369
864.881042,1397
864.998535,1371
865.116028,1406
865.233459,1395
865.350891,1356
865.468384,1436
865.585754,1411
865.703308,1355
865.820679,1386
865.938171,1379
866.055542,1368
866.173035,1399
866.290466,1383
866.407837,1381
866.52533,1379
866.6427,1420
866.760071,1412
866.877563,1428
866.994934,1373
867.112305,1390
867.229736,1343
867.347107,1437
867.464539,1354
867.58197,1399
867.699341,1387
867.81665,1420
867.934082,1455
868.051453,1350
868.168823,1416
868.286194,1372
868.403564,1416
868.520935,1387
868.638306,1399
868.755676,1402
868.872986,1396
868.990295,1403
869.107727,1413
869.225037,1405
869.342346,1456
869.459717,1418
869.577026,1420
869.694336,1439
869.811707,1449
869.929016,1420
870.046326,1441
870.163635,1464
870.280945,1430
870.398254,1442
870.515564,1448
870.632812,1498
870.750183,1493
870.867432,1436
870.984741,1463
871.102051,1443
871.219299,1464
871.336609,1453
871.453918,1450
871.571106,1470
871.688416,1452
871.805664,1472
871.922852,1455
872.040222,1450
872.157471,1491
872.274719,1471
872.391968,1519
872.509155,1488
872.626465,1444
872.743652,1456
872.860962,1455
872.978149,1462
873.095337,1446
873.212646,1474
873.329834,1459
873.44696,1458
873.564209,1459
873.681396,1497
873.798645,1466
873.915894,1445
874.03302,1475
874.150208,1425
874.267456,1491
874.384583,1474
874.501831,1505
874.618958,1473
874.736145,1514
874.853333,1480
874.970459,1486
875.087646,1482
875.204834,1491
875.32196,1435
875.439148,1460
875.556274,1470
875.673401,1474
875.790527,1426
875.907715,1449
876.024841,1466
876.141968,1467
876.259094,1453
876.376282,1437
876.493347,1450
876.610474,1415
876.7276,1490
876.844727,1429
876.961853,1490
877.078918,1412
877.195984,1447
877.313171,1418
877.430237,1465
877.547302,1426
877.664368,1435
877.781433,1470
877.898499,1431
878.015625,1446
878.13269,1452
878.249695,1467
878.366821,1429
878.483887,1437
878.600952,1417
878.717957,1380
878.834961,1412
878.952087,1419
879.069092,1450
879.186157,1424
879.303162,1390
879.420227,1417
879.537231,1417
879.654236,1362
879.77124,1421
879.888306,1387
880.005249,1402
880.122314,1393
880.239319,1402
880.356323,1395
880.473328,1414
880.590271,1410
880.707275,1410
880.824341,1372
880.941284,1396
881.058228,1399
881.175232,1386
881.292236,1423
881.40918,1382
881.526123,1381
881.643066,1415
881.760071,1386
881.877014,1380
881.993958,1423
882.11084,1374
882.227783,1366
882.344727,1391
882.46167,1389
882.578613,1373
882.695618,1387
882.812439,1354
882.929382,1424
883.046326,1428
883.163208,1456
883.280151,1368
883.397034,1423
883.513916,1428
883.630798,1378
883.747742,1433
883.864563,1392
883.981506,1433
884.098389,1456
884.21521,1434
884.332153,1436
884.448975,1424
884.565796,1477
884.682678,1483
884.7995,1511
884.916443,1531
885.033264,1551
885.150085,1567
885.266968,1594
885.383789,1598
885.500671,1688
885.617493,1654
885.734314,1632
885.851196,1646
885.967896,1632
886.084717,1598
886.201599,1584
886.318359,1590
886.435181,1592
886.552002,1570
886.668762,1597
886.785645,1593
886.902344,1550
887.019165,1524
887.135925,1520
887.252747,1515
887.369446,1511
887.486267,1476
887.603027,1521
887.719788,1479
887.836548,1494
887.953247,1458
888.070068,1495
888.186829,1409
888.303528,1469
888.420288,1450
888.536987,1416
888.653687,1443
888.770447,1422
888.887146,1446
889.003967,1445
889.120667,1403
889.237305,1414
889.354065,1423
889.470703,1397
889.587463,1357
889.704163,1418
889.820862,1368
889.937561,1388
890.054199,1388
890.170837,1404
890.287598,1381
890.404236,1389
890.520874,1398
890.637634,1388
890.754211,1400
890.87085,1425
890.987549,1402
891.104187,1396
891.220886,1423
891.337463,1397
891.454102,1414
891.57074,1352
891.687378,1366
891.804077,1438
891.920654,1391
892.037231,1404
892.15387,1417
892.270447,1450
892.387085,1431
892.503723,1377
892.6203,1424
892.736877,1375
892.853516,1443
892.970032,1422
893.08667,1386
893.203186,1397
893.319763,1371
893.43634,1414
893.552917,1424
893.669556,1480
893.786011,1398
893.902588,1429
894.019165,1411
894.135681,1439
894.252197,1422
894.368835,1444
894.485291,1461
894.601868,1459
894.718384,1420
894.8349,1404
894.951355,1410
895.067932,1457
895.184448,1434
895.300964,1413
895.417419,1393
895.533936,1406
895.650452,1426
895.766907,1394
895.883423,1440
895.999878,1432
896.116333,1411
896.232849,1419
896.349304,1371
896.465759,1443
896.582214,1418
896.698669,1459
896.815125,1414
896.931641,1419
897.048035,1461
897.164551,1391
897.280884,1407
897.397339,1437
897.513794,1414
897.630249,1419
897.746582,1461
897.863098,1408
897.979431,1410
898.095886,1449
898.212341,1441
898.328674,1448
898.445129,1406
898.561462,1443
898.677795,1435
898.794312,1426
898.910645,1406
899.026978,1424
899.143433,1433
899.259766,1429
899.37616,1440
899.492493,1389
899.608765,1443
899.725159,1475
899.841553,1450
899.957947,1461
900.07428,1456
900.190552,1482
900.306946,1455
900.423157,1458
900.53949,1464
900.655884,1490
900.772156,1430
900.888489,1452
901.004822,1473
901.121033,1437
901.237366,1457
901.353699,1454
901.46991,1467
901.586304,1475
901.702515,1465
901.818787,1437
901.93512,1486
902.051331,1482
902.167603,1485
902.283875,1506
902.400085,1510
902.516418,1501
902.632629,1541
902.74884,1581
902.865112,1554
902.981384,1555
903.097595,1513
903.213867,1533
903.330017,1540
903.446289,1534
903.5625,1540
903.67865,1534
903.794922,1525
903.911072,1500
904.027344,1530
904.143494,1500
904.259705,1480
904.375916,1466
904.492065,1477
904.608215,1504
904.724426,1438
904.840576,1494
904.956726,1464
905.072876,1466
905.189087,1482
905.305176,1457
905.421387,1477
905.537537,1469
905.653687,1461
905.769775,1426
905.885925,1503
906.002014,1450
906.118164,1463
906.234314,1457
906.350403,1430
906.466492,1449
906.582642,1400
906.69873,1438
906.814758,1429
906.930908,1510
907.046936,1475
907.163086,1462
907.279175,1461
907.395264,1430
907.511353,1405
907.62738,1422
907.743408,1433
907.859497,1458
907.975525,1440
908.091553,1468
908.207703,1438
908.32373,1439
908.439758,1447
908.555786,1468
908.671814,1461
908.787842,1461
908.90387,1434
909.019775,1451
909.135864,1377
909.251892,1466
909.367859,1491
909.483826,1510
909.599854,1430
909.715881,1491
909.831848,1458
909.947815,1451
910.063782,1458
910.179749,1460
910.295776,1466
910.411743,1465
910.527649,1433
910.643616,1443
910.759583,1480
910.875488,1479
910.991455,1456
911.107361,1470
911.223267,1482
911.339294,1415
911.4552,1465
911.571106,1424
911.687073,1453
911.802979,1447
911.918823,1468
912.034729,1423
912.150635,1447
912.266602,1449
912.382446,1436
912.498352,1444
912.614197,1432
912.730103,1475
912.846008,1424
792.44574,2860
792.56488,2767
792.68396,2809
792.80304,2701
792.92218,2621
793.041199,2534
793.160339,2514
793.279419,2462
793.398499,2474
793.517578,2411
793.636658,2446
793.755737,2365
793.874817,2296
793.993896,2259
794.112976,2287
794.232056,2252
794.351074,2234
794.470215,2210
794.589233,2187
794.708313,2202
794.827393,2123
794.946411,2091
795.065552,2151
795.18457,2083
795.303589,2086
795.422668,2026
795.541687,2036
795.660767,2025
795.779846,2021
795.898865,1976
796.017883,2011
796.136963,1958
796.255981,2012
796.375061,1924
796.49408,1968
796.613037,1933
796.732117,1896
796.851135,1865
796.970154,1917
797.089233,1873
797.208191,1925
797.327271,1873
797.446228,1856
797.565186,1843
797.684265,1862
797.803223,1872
797.922241,1835
798.04126,1797
798.160278,1867
798.279297,1831
798.398315,1808
798.517273,1749
798.636292,1794
798.75531,1796
798.874268,1826
798.993286,1807
799.112244,1768
799.231323,1834
799.350281,1755
799.469238,1787
799.588257,1780
799.707153,1793
799.826111,1796
799.945129,1792
800.064087,1760
800.183044,1773
800.302063,1751
800.421021,1785
800.539978,1732
800.658936,1751
800.777893,1721
800.896912,1738
801.015747,1766
801.134705,1764
801.253723,1773
801.37262,1756
801.491638,1722
801.610535,1736
801.729492,1764
801.84845,1696
801.967407,1733
802.086243,1735
802.205261,1707
802.324158,1664
802.443115,1678
802.562073,1693
802.680969,1699
802.799927,1733
802.918762,1697
803.037659,1692
803.156677,1720
803.275574,1700
803.39447,1666
803.513428,1670
803.632263,1705
803.751221,1700
803.870117,1638
803.989014,1698
804.107971,1702
804.226746,1673
804.345642,1612
804.4646,1686
804.583496,1696
804.702393,1648
804.821228,1649
804.940125,1699
805.059021,1663
805.177917,1661
805.296814,1686
805.415649,1702
805.534546,1679
805.653442,1652
805.772278,1669
805.891113,1662
806.01001,1656
806.128906,1691
806.247742,1661
806.366577,1660
806.485413,1611
806.604309,1656
806.723145,1665
806.84198,1689
806.960876,1653
807.079712,1670
807.198486,1660
807.317383,1675
807.436218,1617
807.554993,1649
807.673889,1642
807.792725,1652
807.91156,1604
808.030396,1658
808.14917,1645
808.268005,1675
808.386841,1641
808.505676,1663
808.624451,1657
808.743286,1640
808.862122,1634
808.980896,1628
809.099731,1603
809.218506,1645
809.337341,1648
809.456116,1647
809.57489,1660
809.693726,1678
809.8125,1627
809.931274,1630
810.050049,1699
810.168884,1625
810.287659,1625
810.406372,1641
810.525269,1579
810.643982,1591
810.762756,1644
810.881531,1651
811.000305,1653
811.11908,1640
811.237854,1650
811.356567,1696
811.475403,1658
811.594116,1642
811.71283,1634
811.831604,1631
811.950378,1616
812.069153,1639
812.187927,1688
812.30658,1682
812.425415,1624
812.544128,1648
812.662781,1636
812.781616,1679
812.900269,1658
813.019043,1635
813.137756,1659
813.256531,1642
813.375244,1658
813.493896,1641
813.612671,1647
813.731384,1597
813.850037,1612
813.96875,1633
814.087524,1621
814.206238,1616
814.324951,1598
814.443604,1619
814.562256,1618
814.68103,1602
814.799683,1616
814.918335,1608
815.037109,1594
815.155762,1613
815.274475,1564
815.393188,1589
815.511841,1618
815.630554,1566
815.749146,1568
815.867859,1568
815.986572,1583
816.105164,1557
816.223877,1583
816.342529,1602
816.461182,1573
816.579895,1570
816.698486,1526
816.817139,1619
816.935791,1664
817.054504,1594
817.173096,1595
817.291748,1584
817.4104,1572
817.529053,1538
817.647644,1564
817.766235,1559
817.884949,1518
818.00354,1547
818.122192,1497
818.240845,1483
818.359436,1537
818.478088,1481
818.59668,1525
818.715271,1518
818.833923,1498
818.952515,1471
819.071106,1507
819.189758,1513
819.30835,1489
819.426941,1490
819.545532,1500
819.664124,1464
819.782715,1471
819.901306,1442
820.019897,1477
820.138489,1446
820.25708,1477
820.375671,1474
820.494202,1456
820.612732,1452
820.731384,1448
820.849915,1482
820.968506,1493
821.087097,1456
821.205627,1447
821.324158,1453
821.442749,1437
821.561279,1453
821.679871,1422
821.798401,1427
821.916931,1460
822.035461,1459
822.154053,1419
822.272583,1431
822.391174,1409
822.509583,1415
822.628174,1458
822.746704,1412
822.865234,1433
822.983765,1431
823.102295,1457
823.220825,1407
823.339294,1422
823.457825,1398
823.576355,1443
823.694824,1413
823.813354,1432
823.931885,1410
824.050354,1425
824.168884,1424
824.287354,1456
824.405823,1454
824.524353,1443
824.642822,1435
824.761353,1468
824.879822,1427
824.998291,1416
825.116699,1439
825.235291,1429
825.353699,1398
825.472168,1417
825.590637,1442
825.709106,1424
825.827576,1358
825.946045,1416
826.064453,1393
826.182983,1420
826.301392,1397
826.4198,1418
826.53833,1390
826.656738,1394
826.775208,1435
826.893677,1400
827.012024,1378
827.130493,1388
827.248962,1343
827.36731,1420
827.485779,1387
827.604248,1382
827.722595,1395
827.841064,1392
827.959412,1407
828.077942,1329
828.196289,1365
828.314636,1380
828.433105,1341
828.551514,1348
828.669861,1349
828.78833,1357
828.906677,1348
829.025085,1340
829.143433,1383
829.261841,1376
829.38031,1378
829.498657,1367
829.617004,1378
829.735413,1353
829.85376,1347
829.972107,1391
830.090515,1365
830.208862,1382
830.327209,1347
830.445557,1366
830.563904,1398
830.682312,1356
830.800659,1380
830.919006,1374
831.037354,1349
831.155701,1396
831.274048,1370
831.392395,1393
831.51062,1404
831.629028,1373
831.747314,1410
831.865662,1366
831.984009,1396
832.102356,1390
832.220642,1423
832.338928,1436
832.457275,1418
832.575623,1419
832.693909,1370
832.812134,1405
832.930481,1386
833.048828,1381
833.167114,1402
833.2854,1374
833.403687,1382
833.521973,1379
833.640259,1372
833.758545,1372
833.876831,1408
833.995056,1354
834.113281,1396
834.231628,1414
834.349915,1403
834.468201,1373
834.586426,1385
834.704651,1392
834.822998,1393
834.941162,1367
835.059448,1412
835.177673,1376
835.295959,1405
835.414246,1363
835.53241,1397
835.650635,1408
835.768921,1377
835.887146,1396
836.005371,1361
836.123596,1398
836.241821,1371
836.360046,1340
836.478271,1377
836.596497,1407
836.714722,1385
836.832886,1391
836.95105,1364
837.069336,1372
837.1875,1362
837.305725,1399
837.423889,1383
837.542053,1377
837.660339,1330
837.778503,1390
837.896667,1374
838.014832,1404
838.132996,1402
838.25116,1429
838.369385,1414
838.487488,1381
838.605713,1417
838.723877,1417
838.84198,1403
838.960205,1397
839.078308,1383
839.196472,1369
839.314636,1385
839.4328,1429
839.550964,1437
839.669067,1395
839.787231,1421
839.905396,1394
840.023499,1403
840.141602,1434
840.259766,1420
840.377869,1422
840.495972,1438
840.614136,1412
840.732239,1407
840.850342,1401
840.968445,1446
841.086548,1373
841.204651,1399
841.322754,1418
841.440918,1424
841.55896,1432
841.677002,1518
841.795166,1420
841.913208,1457
842.031311,1392
842.149353,1474
842.267456,1422
842.385498,1431
842.503601,1416
842.621643,1410
842.739746,1429
842.857788,1449
842.97583,1434
843.093933,1449
843.211975,1428
843.330017,1421
843.44812,1429
843.566101,1457
843.684204,1396
843.802246,1397
843.920227,1437
844.038269,1379
844.156311,1482
844.274292,1400
844.392395,1432
844.510376,1414
844.628357,1423
844.74646,1435
844.864441,1366
844.982422,1435
845.100403,1423
845.218384,1395
845.336426,1427
845.454468,1373
845.572449,1426
845.69043,1376
845.808411,1419
845.926453,1431
846.044373,1411
846.162354,1420
846.280396,1422
846.398315,1393
846.516296,1451
846.634216,1379
846.752197,1384
846.870178,1396
846.988098,1424
847.106079,1409
847.22406,1423
847.34198,1404
847.4599,1330
847.577881,1410
847.695801,1418
847.813782,1392
847.931641,1447
848.049561,1421
848.167603,1382
848.285461,1392
848.403381,1388
848.521362,1428
848.639221,1456
848.75708,1423
848.875,1405
848.99292,1386
849.110901,1410
849.22876,1417
849.34668,1414
849.464539,1446
849.582458,1412
849.700317,1412
849.818176,1442
849.936096,1424
850.053955,1434
850.171875,1385
850.289673,1410
850.407593,1417
850.525452,1392
850.643311,1404
850.761169,1406
850.878967,1407
850.996887,1420
851.114746,1415
851.232544,1412
851.350403,1410
851.468262,1392
851.58606,1448
851.703979,1415
851.821777,1433
851.939636,1388
852.057434,1450
852.175232,1407
852.293091,1415
852.410889,1487
852.528687,1469
852.646545,1488
852.764343,1462
852.88208,1477
852.999939,1438
853.117676,1481
853.235535,1427
853.353271,1420
853.471069,1445
853.588928,1439
853.706604,1389
853.824402,1428
853.9422,1389
854.059998,1427
854.177734,1449
854.295532,1390
854.413269,1434
854.531006,1417
854.648804,1433
854.766541,1413
854.884277,1414
855.002014,1447
855.119751,1423
855.237549,1434
855.355225,1418
855.473022,1403
855.590698,1408
855.708435,1428
855.826172,1441
855.943848,1434
856.061646,1423
856.179321,1398
856.296997,1405
856.414795,1470
856.53241,1385
856.650085,1432
856.767822,1459
856.885559,1476
857.003174,1476
857.120911,1494
857.238586,1463
857.356201,1407
857.473938,1476
857.591614,1450
857.709351,1438
857.826965,1408
857.944641,1472
858.062317,1469
858.179993,1378
858.297668,1462
858.415283,1461
858.532959,1462
858.650574,1444
858.768188,1496
858.885803,1459
859.003479,1454
859.121094,1455
859.23877,1473
859.356384,1447
859.473999,1430
859.591675,1373
859.709229,1443
859.826843,1417
859.944458,1387
860.062012,1406
860.179626,1422
860.297302,1408
860.414856,1414
860.532471,1447
860.650024,1401
860.767639,1415
860.885193,1412
861.002808,1422
861.120361,1394
861.237976,1402
861.35553,1416
861.473022,1453
861.590698,1424
861.708191,1411
861.825745,1434
861.943298,1417
862.060852,1397
862.178406,1440
862.295959,1413
862.413513,1376
862.531006,1373
862.64856,1412
862.766113,1385
862.883667,1370
863.00116,1415
863.118713,1378
863.236206,1385
863.353699,3163
863.471252,1340
863.588745,1405
863.706177,1392
863.82373,1368
863.941162,1438
864.058716,1429
864.176208,1426
864.29364,1411
864.411194,1448
864.528687,1425
864.646118,1432
864.763611,1394
864.881042,1385
864.998535,1394
865.116028,1378
865.233459,1470
865.350891,1371
865.468384,1397
865.585754,1426
865.703308,1354
865.820679,1415
865.938171,1420
866.055542,1408
866.173035,1437
866.290466,1393
866.407837,1411
866.52533,1397
866.6427,1361
866.760071,1445
866.877563,1367
866.994934,1374
867.112305,1414
867.229736,1341
867.347107,1369
867.464539,1433
867.58197,1423
867.699341,1435
867.81665,1422
867.934082,1424
868.051453,1392
868.168823,1427
868.286194,1433
868.403564,1414
868.520935,1446
868.638306,1427
868.755676,1438
868.872986,1419
868.990295,1433
869.107727,1415
869.225037,1444
869.342346,1456
869.459717,1454
869.577026,1424
869.694336,1403
869.811707,1416
869.929016,1437
870.046326,1415
870.163635,1436
870.280945,1446
870.398254,1441
870.515564,1436
870.632812,1479
870.750183,1446
870.867432,1494
870.984741,1442
871.102051,1443
871.219299,1460
871.336609,1493
871.453918,1488
871.571106,1486
871.688416,1491
871.805664,1477
871.922852,1447
872.040222,1460
872.157471,1511
872.274719,1529
872.391968,1484
872.509155,1508
872.626465,1495
872.743652,1559
872.860962,1447
872.978149,1498
873.095337,1482
873.212646,1518
873.329834,1480
873.44696,1457
873.564209,1475
873.681396,1455
873.798645,1509
873.915894,1475
874.03302,1424
874.150208,1480
874.267456,1488
874.384583,1486
874.501831,1472
874.618958,1491
874.736145,1515
874.853333,1476
874.970459,1501
875.087646,1469
875.204834,1465
875.32196,1512
875.439148,1479
875.556274,1478
875.673401,1500
875.790527,1491
875.907715,1495
876.024841,1439
876.141968,1485
876.259094,1407
876.376282,1442
876.493347,1413
876.610474,1416
876.7276,1449
876.844727,1471
876.961853,1470
877.078918,1441
877.195984,1456
877.313171,1484
877.430237,1466
877.547302,1471
877.664368,1475
877.781433,1439
877.898499,1441
878.015625,1445
878.13269,1423
878.249695,1435
878.366821,1438
878.483887,1430
878.600952,1426
878.717957,1477
878.834961,1412
878.952087,1417
879.069092,1447
879.186157,1415
879.303162,1396
879.420227,1415
879.537231,1405
879.654236,1423
879.77124,1432
879.888306,1402
880.005249,1425
880.122314,1407
880.239319,1428
880.356323,1400
880.473328,1395
880.590271,1440
880.707275,1413
880.824341,1420
880.941284,1379
881.058228,1430
881.175232,1415
881.292236,1411
881.40918,1415
881.526123,1406
881.643066,1367
881.760071,1426
881.877014,1423
881.993958,1448
882.11084,1376
882.227783,1413
882.344727,1439
882.46167,1436
882.578613,1394
882.695618,1430
882.812439,1376
882.929382,1411
883.046326,1413
883.163208,1432
883.280151,1402
883.397034,1360
883.513916,1408
883.630798,1453
883.747742,1442
883.864563,1423
883.981506,1430
884.098389,1425
884.21521,1495
884.332153,1465
884.448975,1485
884.565796,1474
884.682678,1465
884.7995,1505
884.916443,1542
885.033264,1585
885.150085,1549
885.266968,1626
885.383789,1611
885.500671,1597
885.617493,1677
885.734314,1575
885.851196,1614
885.967896,1631
886.084717,1607
886.201599,1624
886.318359,1640
886.435181,1558
886.552002,1589
886.668762,1576
886.785645,1598
886.902344,1556
887.019165,1540
887.135925,1586
887.252747,1563
887.369446,1572
887.486267,1525
887.603027,1509
887.719788,1467
887.836548,1508
887.953247,1496
888.070068,1466
888.186829,1477
888.303528,1473
888.420288,1430
888.536987,1442
888.653687,1402
888.770447,1416
888.887146,1398
889.003967,1458
889.120667,1407
889.237305,1392
889.354065,1445
889.470703,1408
889.587463,1409
889.704163,1410
889.820862,1398
889.937561,1419
890.054199,1423
890.170837,1440
890.287598,1407
890.404236,1386
890.520874,1386
890.637634,1431
890.754211,1429
890.87085,1424
890.987549,1435
891.104187,1418
891.220886,1452
891.337463,1423
891.454102,1405
891.57074,1427
891.687378,1414
891.804077,1393
891.920654,1416
892.037231,1434
892.15387,1432
892.270447,1461
892.387085,1422
892.503723,1432
892.6203,1435
892.736877,1434
892.853516,1424
892.970032,1433
893.08667,1415
893.203186,1407
893.319763,1425
893.43634,1420
893.552917,1441
893.669556,1452
893.786011,1414
893.902588,1412
894.019165,1473
894.135681,1406
894.252197,1464
894.368835,1404
894.485291,1465
894.601868,1410
894.718384,1445
894.8349,1416
894.951355,1459
895.067932,1414
895.184448,1408
895.300964,1450
895.417419,1414
895.533936,1450
895.650452,1436
895.766907,1423
895.883423,1422
895.999878,1433
896.116333,1405
896.232849,1446
896.349304,1388
896.465759,1482
896.582214,1410
896.698669,1437
896.815125,1436
896.931641,1438
897.048035,1424
897.164551,1447
897.280884,1442
897.397339,1447
897.513794,1454
897.630249,1416
897.746582,1429
897.863098,1402
897.979431,1435
898.095886,1491
898.212341,1419
898.328674,1440
898.445129,1436
898.561462,1430
898.677795,1475
898.794312,1488
898.910645,1388
899.026978,1447
899.143433,1421
899.259766,1416
899.37616,1429
899.492493,1476
899.608765,1433
899.725159,1466
899.841553,1468
899.957947,1463
900.07428,1453
900.190552,1446
900.306946,1427
900.423157,1417
900.53949,1433
900.655884,1465
900.772156,1477
900.888489,1454
901.004822,1448
901.121033,1447
901.237366,1450
901.353699,1490
901.46991,1451
901.586304,1472
901.702515,1489
901.818787,1530
901.93512,1494
902.051331,1522
902.167603,1546
902.283875,1532
902.400085,1519
902.516418,1550
902.632629,1568
902.74884,1549
902.865112,1580
902.981384,1578
903.097595,1568
903.213867,1569
903.330017,1545
903.446289,1540
903.5625,1532
903.67865,1584
903.794922,1493
903.911072,1502
904.027344,1518
904.143494,1496
904.259705,1513
904.375916,1474
904.492065,1473
904.608215,1514
904.724426,1462
904.840576,1484
904.956726,1485
905.072876,1455
905.189087,1447
905.305176,1460
905.421387,1472
905.537537,1445
905.653687,1461
905.769775,1456
905.885925,1497
906.002014,1398
906.118164,1472
906.234314,1457
906.350403,1448
906.466492,1455
906.582642,1496
906.69873,1452
906.814758,1444
906.930908,1474
907.046936,1448
907.163086,1440
907.279175,1476
907.395264,1454
907.511353,1486
907.62738,1438
907.743408,1501
907.859497,1450
907.975525,1447
908.091553,1453
908.207703,1472
908.32373,1431
908.439758,1450
908.555786,1435
908.671814,1492
908.787842,1437
908.90387,1442
909.019775,1433
909.135864,1522
909.251892,1451
909.367859,1498
909.483826,1440
909.599854,1494
909.715881,1488
909.831848,1490
909.947815,1476
910.063782,1469
910.179749,1447
910.295776,1477
910.411743,1455
910.527649,1502
910.643616,1466
910.759583,1454
910.875488,1517
910.991455,1473
911.107361,1463
911.223267,1429
911.339294,1487
911.4552,1479
911.571106,1439
911.687073,1459
911.802979,1475
911.918823,1471
912.034729,1469
912.150635,1445
912.266602,1446
912.382446,1472
912.498352,1469
912.614197,1494
912.730103,1460
912.846008,1456
