792.44574,1552
792.56488,1592
792.68396,1585
792.80304,1535
792.92218,1511
793.041199,1483
793.160339,1517
793.279419,1488
793.398499,1527
793.517578,1530
793.636658,1515
793.755737,1500
793.874817,1485
793.993896,1490
794.112976,1494
794.232056,1467
794.351074,1490
794.470215,1465
794.589233,1487
794.708313,1486
794.827393,1506
794.946411,1479
795.065552,1472
795.18457,1438
795.303589,1480
795.422668,1483
795.541687,1432
795.660767,1484
795.779846,1443
795.898865,1462
796.017883,1432
796.136963,1454
796.255981,1465
796.375061,1471
796.49408,1454
796.613037,1488
796.732117,1447
796.851135,1460
796.970154,1435
797.089233,1486
797.208191,1421
797.327271,1452
797.446228,1418
797.565186,1440
797.684265,1430
797.803223,1405
797.922241,1476
798.04126,1469
798.160278,1397
798.279297,1413
798.398315,1435
798.517273,1425
798.636292,1417
798.75531,1466
798.874268,1451
798.993286,1436
799.112244,1422
799.231323,1408
799.350281,1422
799.469238,1393
799.588257,1455
799.707153,1407
799.826111,1424
799.945129,1413
800.064087,1443
800.183044,1443
800.302063,1414
800.421021,1455
800.539978,1433
800.658936,1428
800.777893,1470
800.896912,1395
801.015747,1431
801.134705,1441
801.253723,1412
801.37262,1455
801.491638,1443
801.610535,1399
801.729492,1384
801.84845,1398
801.967407,1407
802.086243,1455
802.205261,1426
802.324158,1440
802.443115,1401
802.562073,1428
802.680969,1470
802.799927,1381
802.918762,1450
803.037659,1416
803.156677,1399
803.275574,1445
803.39447,1391
803.513428,1369
803.632263,1465
803.751221,1360
803.870117,1391
803.989014,1384
804.107971,1410
804.226746,1412
804.345642,1406
804.4646,1427
804.583496,1427
804.702393,1393
804.821228,1394
804.940125,1393
805.059021,1424
805.177917,1407
805.296814,1393
805.415649,1408
805.534546,1432
805.653442,1399
805.772278,1432
805.891113,1425
806.01001,1423
806.128906,1403
806.247742,1417
806.366577,1421
806.485413,1432
806.604309,1427
806.723145,1401
806.84198,1400
806.960876,1382
807.079712,1387
807.198486,1424
807.317383,1394
807.436218,1396
807.554993,1408
807.673889,1405
807.792725,1389
807.91156,1366
808.030396,1369
808.14917,1379
808.268005,1419
808.386841,1387
808.505676,1384
808.624451,1395
808.743286,1339
808.862122,1399
808.980896,1349
809.099731,1338
809.218506,1443
809.337341,1402
809.456116,1373
809.57489,1354
809.693726,1437
809.8125,1354
809.931274,1389
810.050049,1392
810.168884,1439
810.287659,1392
810.406372,1425
810.525269,1387
810.643982,1419
810.762756,1360
810.881531,1429
811.000305,1387
811.11908,1376
811.237854,1401
811.356567,1329
811.475403,1383
811.594116,1364
811.71283,1405
811.831604,1383
811.950378,1425
812.069153,1382
812.187927,1369
812.30658,1389
812.425415,1340
812.544128,1378
812.662781,1399
812.781616,1402
812.900269,1385
813.019043,1360
813.137756,1387
813.256531,1391
813.375244,1369
813.493896,1392
813.612671,1423
813.731384,1356
813.850037,1375
813.96875,1389
814.087524,1380
814.206238,1415
814.324951,1363
814.443604,1376
814.562256,1345
814.68103,1354
814.799683,1349
814.918335,1343
815.037109,1382
815.155762,1375
815.274475,1395
815.393188,1372
815.511841,1399
815.630554,1361
815.749146,1404
815.867859,1368
815.986572,1383
816.105164,1354
816.223877,1377
816.342529,1357
816.461182,1388
816.579895,1378
816.698486,1376
816.817139,1377
816.935791,1359
817.054504,1390
817.173096,1355
817.291748,1321
817.4104,1371
817.529053,1363
817.647644,1377
817.766235,1387
817.884949,1334
818.00354,1316
818.122192,1349
818.240845,1340
818.359436,1318
818.478088,1332
818.59668,1329
818.715271,1360
818.833923,1327
818.952515,1323
819.071106,1315
819.189758,1377
819.30835,1305
819.426941,1287
819.545532,1350
819.664124,1304
819.782715,1321
819.901306,1329
820.019897,1285
820.138489,1354
820.25708,1351
820.375671,1348
820.494202,1318
820.612732,1318
820.731384,1297
820.849915,1374
820.968506,1300
821.087097,1325
821.205627,1329
821.324158,1309
821.442749,1334
821.561279,1331
821.679871,1317
821.798401,1314
821.916931,1310
822.035461,1288
822.154053,1298
822.272583,1291
822.391174,1264
822.509583,1281
822.628174,1326
822.746704,1307
822.865234,1305
822.983765,1330
823.102295,1308
823.220825,1312
823.339294,1280
823.457825,1283
823.576355,1268
823.694824,1302
823.813354,1320
823.931885,1304
824.050354,1272
824.168884,1275
824.287354,1282
824.405823,1300
824.524353,1340
824.642822,1279
824.761353,1285
824.879822,1288
824.998291,1261
825.116699,1287
825.235291,1303
825.353699,1299
825.472168,1269
825.590637,1285
825.709106,1294
825.827576,1326
825.946045,1289
826.064453,1317
826.182983,1293
826.301392,1279
826.4198,1302
826.53833,1277
826.656738,1326
826.775208,1288
826.893677,1316
827.012024,1302
827.130493,1300
827.248962,1320
827.36731,1268
827.485779,1252
827.604248,1313
827.722595,1300
827.841064,1253
827.959412,1271
828.077942,1239
828.196289,1234
828.314636,1300
828.433105,1303
828.551514,1277
828.669861,1282
828.78833,1254
828.906677,1248
829.025085,1280
829.143433,1274
829.261841,1266
829.38031,1260
829.498657,1283
829.617004,1314
829.735413,1276
829.85376,1266
829.972107,1320
830.090515,1230
830.208862,1244
830.327209,1299
830.445557,1263
830.563904,1322
830.682312,1286
830.800659,1271
830.919006,1294
831.037354,1283
831.155701,1293
831.274048,1257
831.392395,1299
831.51062,1272
831.629028,1266
831.747314,1244
831.865662,1262
831.984009,1235
832.102356,1294
832.220642,1248
832.338928,1277
832.457275,1269
832.575623,1237
832.693909,1243
832.812134,1286
832.930481,1268
833.048828,1256
833.167114,1242
833.2854,1256
833.403687,1304
833.521973,1286
833.640259,1218
833.758545,1252
833.876831,1229
833.995056,1282
834.113281,1271
834.231628,1275
834.349915,1214
834.468201,1270
834.586426,1252
834.704651,1235
834.822998,1268
834.941162,1279
835.059448,1230
835.177673,1270
835.295959,1245
835.414246,1261
835.53241,1276
835.650635,1279
835.768921,1226
835.887146,1301
836.005371,1211
836.123596,1250
836.241821,1249
836.360046,1241
836.478271,1243
836.596497,1274
836.714722,1241
836.832886,1252
836.95105,1245
837.069336,1261
837.1875,1268
837.305725,1259
837.423889,1283
837.542053,1259
837.660339,1291
837.778503,1288
837.896667,1235
838.014832,1258
838.132996,1301
838.25116,1244
838.369385,1242
838.487488,1275
838.605713,1260
838.723877,1291
838.84198,1259
838.960205,1287
839.078308,1279
839.196472,1253
839.314636,1260
839.4328,1253
839.550964,1227
839.669067,1233
839.787231,1253
839.905396,1291
840.023499,1219
840.141602,1244
840.259766,1244
840.377869,1260
840.495972,1247
840.614136,1255
840.732239,1268
840.850342,1271
840.968445,1246
841.086548,1274
841.204651,1276
841.322754,1310
841.440918,1235
841.55896,1260
841.677002,1251
841.795166,1286
841.913208,1224
842.031311,1246
842.149353,1246
842.267456,1249
842.385498,1248
842.503601,1247
842.621643,1280
842.739746,1274
842.857788,1261
842.97583,1253
843.093933,1259
843.211975,1252
843.330017,1247
843.44812,1244
843.566101,1245
843.684204,1268
843.802246,1253
843.920227,1244
844.038269,1245
844.156311,1220
844.274292,1267
844.392395,1252
844.510376,1245
844.628357,1230
844.74646,1287
844.864441,1269
844.982422,1249
845.100403,1242
845.218384,1238
845.336426,1262
845.454468,1238
845.572449,1284
845.69043,1246
845.808411,1245
845.926453,1240
846.044373,1229
846.162354,1258
846.280396,1240
846.398315,1230
846.516296,1208
846.634216,1236
846.752197,1242
846.870178,1276
846.988098,1232
847.106079,1255
847.22406,1245
847.34198,1244
847.4599,1246
847.577881,1245
847.695801,1289
847.813782,1236
847.931641,1221
848.049561,1271
848.167603,1243
848.285461,1233
848.403381,1243
848.521362,1265
848.639221,1265
848.75708,1263
848.875,1267
848.99292,1243
849.110901,1292
849.22876,1238
849.34668,1254
849.464539,1277
849.582458,1270
849.700317,1235
849.818176,1210
849.936096,1238
850.053955,1243
850.171875,1272
850.289673,1244
850.407593,1270
850.525452,1247
850.643311,1256
850.761169,1298
850.878967,1267
850.996887,1323
851.114746,1249
851.232544,1241
851.350403,1240
851.468262,1223
851.58606,1257
851.703979,1243
851.821777,1222
851.939636,1242
852.057434,1267
852.175232,1269
852.293091,1239
852.410889,1275
852.528687,1301
852.646545,1259
852.764343,1266
852.88208,1274
852.999939,1232
853.117676,1304
853.235535,1252
853.353271,1212
853.471069,1273
853.588928,1246
853.706604,1247
853.824402,1268
853.9422,1225
854.059998,1296
854.177734,1234
854.295532,1251
854.413269,1264
854.531006,1266
854.648804,1288
854.766541,1239
854.884277,1258
855.002014,1278
855.119751,1276
855.237549,1308
855.355225,1273
855.473022,1266
855.590698,1270
855.708435,1262
855.826172,1241
855.943848,1242
856.061646,1232
856.179321,1285
856.296997,1253
856.414795,1276
856.53241,1261
856.650085,1254
856.767822,1251
856.885559,1257
857.003174,1266
857.120911,1237
857.238586,1229
857.356201,1259
857.473938,1245
857.591614,1265
857.709351,1284
857.826965,1263
857.944641,1241
858.062317,1296
858.179993,1310
858.297668,1255
858.415283,1262
858.532959,1251
858.650574,1230
858.768188,1271
858.885803,1225
859.003479,1269
859.121094,1245
859.23877,1279
859.356384,1249
859.473999,1251
859.591675,1251
859.709229,1247
859.826843,1270
859.944458,1260
860.062012,1243
860.179626,1254
860.297302,1247
860.414856,1253
860.532471,1240
860.650024,1245
860.767639,1242
860.885193,1268
861.002808,1278
861.120361,1271
861.237976,1282
861.35553,1265
861.473022,1219
861.590698,1245
861.708191,1249
861.825745,1242
861.943298,1246
862.060852,1240
862.178406,1250
862.295959,1229
862.413513,1264
862.531006,1287
862.64856,1265
862.766113,1246
862.883667,1274
863.00116,1273
863.118713,1263
863.236206,1267
863.353699,1255
863.471252,1250
863.588745,1296
863.706177,1302
863.82373,1237
863.941162,1255
864.058716,1269
864.176208,1243
864.29364,1306
864.411194,1282
864.528687,1262
864.646118,1245
864.763611,1283
864.881042,1241
864.998535,1290
865.116028,1290
865.233459,1279
865.350891,1262
865.468384,1271
865.585754,1287
865.703308,1245
865.820679,1258
865.938171,1271
866.055542,1273
866.173035,1291
866.290466,1234
866.407837,1269
866.52533,1278
866.6427,1250
866.760071,1250
866.877563,1274
866.994934,1286
867.112305,1257
867.229736,1262
867.347107,1279
867.464539,1233
867.58197,1258
867.699341,1261
867.81665,1253
867.934082,1285
868.051453,1266
868.168823,1242
868.286194,1264
868.403564,1252
868.520935,1287
868.638306,1284
868.755676,1266
868.872986,1240
868.990295,1297
869.107727,1319
869.225037,1257
869.342346,1293
869.459717,1223
869.577026,1294
869.694336,1254
869.811707,1294
869.929016,1294
870.046326,1252
870.163635,1262
870.280945,1278
870.398254,1296
870.515564,1290
870.632812,1293
870.750183,1284
870.867432,1273
870.984741,1263
871.102051,1272
871.219299,1256
871.336609,1301
871.453918,1256
871.571106,1220
871.688416,1270
871.805664,1260
871.922852,1294
872.040222,1269
872.157471,1246
872.274719,1280
872.391968,1307
872.509155,1291
872.626465,1252
872.743652,1290
872.860962,1284
872.978149,1225
873.095337,1262
873.212646,1274
873.329834,1277
873.44696,1278
873.564209,1302
873.681396,1278
873.798645,1286
873.915894,1245
874.03302,1279
874.150208,1307
874.267456,1278
874.384583,1244
874.501831,1253
874.618958,1290
874.736145,1277
874.853333,1302
874.970459,1299
875.087646,1283
875.204834,1278
875.32196,1279
875.439148,1294
875.556274,1315
875.673401,1271
875.790527,1260
875.907715,1310
876.024841,1287
876.141968,1275
876.259094,1284
876.376282,1275
876.493347,1287
876.610474,1262
876.7276,1260
876.844727,1284
876.961853,1271
877.078918,1270
877.195984,1329
877.313171,1282
877.430237,1286
877.547302,1249
877.664368,1305
877.781433,1279
877.898499,1257
878.015625,1278
878.13269,1289
878.249695,1334
878.366821,1241
878.483887,1283
878.600952,1245
878.717957,1325
878.834961,1274
878.952087,1296
879.069092,1282
879.186157,1321
879.303162,1313
879.420227,1259
879.537231,1288
879.654236,1280
879.77124,1288
879.888306,1295
880.005249,1326
880.122314,1314
880.239319,1304
880.356323,1283
880.473328,1272
880.590271,1275
880.707275,1285
880.824341,1298
880.941284,1275
881.058228,1290
881.175232,1264
881.292236,1312
881.40918,1283
881.526123,1305
881.643066,1297
881.760071,1307
881.877014,1304
881.993958,1317
882.11084,1257
882.227783,1305
882.344727,1295
882.46167,1286
882.578613,1289
882.695618,1267
882.812439,1334
882.929382,1301
883.046326,1312
883.163208,1300
883.280151,1254
883.397034,1269
883.513916,1281
883.630798,1269
883.747742,1286
883.864563,1286
883.981506,1315
884.098389,1244
884.21521,1282
884.332153,1302
884.448975,1278
884.565796,1314
884.682678,1234
884.7995,1285
884.916443,1329
885.033264,1290
885.150085,1304
885.266968,1314
885.383789,1348
885.500671,1338
885.617493,1333
885.734314,1319
885.851196,1266
885.967896,1309
886.084717,1311
886.201599,1334
886.318359,1336
886.435181,1318
886.552002,1328
886.668762,1325
886.785645,1364
886.902344,1310
887.019165,1333
887.135925,1283
887.252747,1319
887.369446,1355
887.486267,1347
887.603027,1285
887.719788,1295
887.836548,1323
887.953247,1324
888.070068,1312
888.186829,1307
888.303528,1317
888.420288,1304
888.536987,1313
888.653687,1315
888.770447,1331
888.887146,1311
889.003967,1355
889.120667,1284
889.237305,1331
889.354065,1296
889.470703,1317
889.587463,1285
889.704163,1326
889.820862,1347
889.937561,1306
890.054199,1282
890.170837,1304
890.287598,1319
890.404236,1334
890.520874,1348
890.637634,1304
890.754211,1347
890.87085,1293
890.987549,1323
891.104187,1340
891.220886,1333
891.337463,1334
891.454102,1325
891.57074,1351
891.687378,1309
891.804077,1299
891.920654,1313
892.037231,1269
892.15387,1341
892.270447,1332
892.387085,1333
892.503723,1305
892.6203,1322
892.736877,1305
892.853516,1328
892.970032,1337
893.08667,1336
893.203186,1356
893.319763,1337
893.43634,1335
893.552917,1318
893.669556,1340
893.786011,1325
893.902588,1320
894.019165,1299
894.135681,1306
894.252197,1378
894.368835,1310
894.485291,1346
894.601868,1350
894.718384,1327
894.8349,1283
894.951355,1324
895.067932,1342
895.184448,1315
895.300964,1330
895.417419,1365
895.533936,1332
895.650452,1358
895.766907,1357
895.883423,1358
895.999878,1369
896.116333,1277
896.232849,1316
896.349304,1293
896.465759,1342
896.582214,1360
896.698669,1359
896.815125,1331
896.931641,1329
897.048035,1317
897.164551,1307
897.280884,1310
897.397339,1338
897.513794,1274
897.630249,1374
897.746582,1336
897.863098,1333
897.979431,1329
898.095886,1356
898.212341,1334
898.328674,1385
898.445129,1365
898.561462,1339
898.677795,1351
898.794312,1384
898.910645,1351
899.026978,1324
899.143433,1352
899.259766,1362
899.37616,1328
899.492493,1335
899.608765,1332
899.725159,1362
899.841553,1348
899.957947,1340
900.07428,1349
900.190552,1329
900.306946,1360
900.423157,1342
900.53949,1365
900.655884,1345
900.772156,1365
900.888489,1334
901.004822,1327
901.121033,1356
901.237366,1319
901.353699,1336
901.46991,1354
901.586304,1342
901.702515,1356
901.818787,1348
901.93512,1313
902.051331,1357
902.167603,1349
902.283875,1384
902.400085,1353
902.516418,1385
902.632629,1350
902.74884,1369
902.865112,1387
902.981384,1338
903.097595,1358
903.213867,1352
903.330017,1355
903.446289,1351
903.5625,1377
903.67865,1347
903.794922,1357
903.911072,1351
904.027344,1350
904.143494,1361
904.259705,1368
904.375916,1335
904.492065,1385
904.608215,1333
904.724426,1383
904.840576,1346
904.956726,1386
905.072876,1374
905.189087,1402
905.305176,1326
905.421387,1365
905.537537,1372
905.653687,1368
905.769775,1316
905.885925,1364
906.002014,1355
906.118164,1377
906.234314,1358
906.350403,1373
906.466492,1403
906.582642,1419
906.69873,1349
906.814758,1379
906.930908,1365
907.046936,1334
907.163086,1362
907.279175,1376
907.395264,1369
907.511353,1338
907.62738,1377
907.743408,1358
907.859497,1404
907.975525,1395
908.091553,1355
908.207703,1361
908.32373,1363
908.439758,1405
908.555786,1345
908.671814,1363
908.787842,1332
908.90387,1333
909.019775,1358
909.135864,1348
909.251892,1353
909.367859,1357
909.483826,1375
909.599854,1346
909.715881,1428
909.831848,1353
909.947815,1374
910.063782,1404
910.179749,1403
910.295776,1386
910.411743,1350
910.527649,1369
910.643616,1365
910.759583,1392
910.875488,1388
910.991455,1387
911.107361,1401
911.223267,1381
911.339294,1370
911.4552,1344
911.571106,1371
911.687073,1397
911.802979,1401
911.918823,1400
912.034729,1373
912.150635,1381
912.266602,1413
912.382446,1359
912.498352,1347
912.614197,1380
912.730103,1332
912.846008,1373
792.44574,1611
792.56488,1613
792.68396,1609
792.80304,1566
792.92218,1564
793.041199,1588
793.160339,1573
793.279419,1508
793.398499,1569
793.517578,1541
793.636658,1510
793.755737,1535
793.874817,1577
793.993896,1549
794.112976,1568
794.232056,1454
794.351074,1555
794.470215,1549
794.589233,1545
794.708313,1512
794.827393,1536
794.946411,1515
795.065552,1503
795.18457,1508
795.303589,1538
795.422668,1466
795.541687,1507
795.660767,1533
795.779846,1502
795.898865,1495
796.017883,1488
796.136963,1479
796.255981,1468
796.375061,1478
796.49408,1483
796.613037,1478
796.732117,1454
796.851135,1507
796.970154,1479
797.089233,1429
797.208191,1498
797.327271,1465
797.446228,1501
797.565186,1510
797.684265,1490
797.803223,1468
797.922241,1517
798.04126,1473
798.160278,1471
798.279297,1448
798.398315,1467
798.517273,1500
798.636292,1479
798.75531,1433
798.874268,1481
798.993286,1483
799.112244,1475
799.231323,1457
799.350281,1488
799.469238,1479
799.588257,1497
799.707153,1436
799.826111,1478
799.945129,1462
800.064087,1460
800.183044,1426
800.302063,1466
800.421021,1464
800.539978,1460
800.658936,1465
800.777893,1449
800.896912,1498
801.015747,1476
801.134705,1497
801.253723,1419
801.37262,1431
801.491638,1461
801.610535,1470
801.729492,1473
801.84845,1439
801.967407,1461
802.086243,1424
802.205261,1452
802.324158,1464
802.443115,1439
802.562073,1420
802.680969,1432
802.799927,1472
802.918762,1426
803.037659,1412
803.156677,1470
803.275574,1480
803.39447,1420
803.513428,1470
803.632263,1465
803.751221,1451
803.870117,1457
803.989014,1445
804.107971,1437
804.226746,1427
804.345642,1456
804.4646,1489
804.583496,1454
804.702393,1442
804.821228,1496
804.940125,1433
805.059021,1450
805.177917,1439
805.296814,1453
805.415649,1437
805.534546,1457
805.653442,1400
805.772278,1438
805.891113,1476
806.01001,1452
806.128906,1447
806.247742,1444
806.366577,1448
806.485413,1433
806.604309,1407
806.723145,1450
806.84198,1457
806.960876,1385
807.079712,1422
807.198486,1423
807.317383,1492
807.436218,1440
807.554993,1426
807.673889,1413
807.792725,1436
807.91156,1433
808.030396,1434
808.14917,1441
808.268005,1414
808.386841,1448
808.505676,1439
808.624451,1446
808.743286,1400
808.862122,1452
808.980896,1404
809.099731,1369
809.218506,1421
809.337341,1464
809.456116,1383
809.57489,1392
809.693726,1405
809.8125,1391
809.931274,1436
810.050049,1427
810.168884,1443
810.287659,1415
810.406372,1447
810.525269,1429
810.643982,1460
810.762756,1428
810.881531,1414
811.000305,1428
811.11908,1420
811.237854,1395
811.356567,1384
811.475403,1443
811.594116,1425
811.71283,1457
811.831604,1431
811.950378,1431
812.069153,1424
812.187927,1464
812.30658,1402
812.425415,1421
812.544128,1373
812.662781,1438
812.781616,1399
812.900269,1449
813.019043,1389
813.137756,1405
813.256531,1424
813.375244,1426
813.493896,1401
813.612671,1380
813.731384,1400
813.850037,1436
813.96875,1433
814.087524,1403
814.206238,1381
814.324951,1424
814.443604,1404
814.562256,1428
814.68103,1418
814.799683,1410
814.918335,1413
815.037109,1469
815.155762,1389
815.274475,1424
815.393188,1405
815.511841,1434
815.630554,1393
815.749146,1394
815.867859,1371
815.986572,1416
816.105164,1392
816.223877,1396
816.342529,1372
816.461182,1406
816.579895,1376
816.698486,1395
816.817139,1408
816.935791,1365
817.054504,1385
817.173096,1403
817.291748,1412
817.4104,1454
817.529053,1393
817.647644,1373
817.766235,1390
817.884949,1398
818.00354,1385
818.122192,1378
818.240845,1366
818.359436,1353
818.478088,1333
818.59668,1364
818.715271,1353
818.833923,1378
818.952515,1342
819.071106,1388
819.189758,1362
819.30835,1353
819.426941,1337
819.545532,1364
819.664124,1361
819.782715,1362
819.901306,1324
820.019897,1337
820.138489,1353
820.25708,1350
820.375671,1335
820.494202,1342
820.612732,1321
820.731384,1354
820.849915,1342
820.968506,1360
821.087097,1336
821.205627,1329
821.324158,1362
821.442749,1346
821.561279,1348
821.679871,1344
821.798401,1342
821.916931,1410
822.035461,1359
822.154053,1348
822.272583,1304
822.391174,1326
822.509583,1358
822.628174,1357
822.746704,1340
822.865234,1351
822.983765,1340
823.102295,1294
823.220825,1368
823.339294,1308
823.457825,1328
823.576355,1326
823.694824,1329
823.813354,1334
823.931885,1357
824.050354,1342
824.168884,1344
824.287354,1337
824.405823,1305
824.524353,1352
824.642822,1321
824.761353,1332
824.879822,1325
824.998291,1341
825.116699,1316
825.235291,1346
825.353699,1292
825.472168,1327
825.590637,1332
825.709106,1290
825.827576,1311
825.946045,1380
826.064453,1350
826.182983,1314
826.301392,1327
826.4198,1316
826.53833,1344
826.656738,1317
826.775208,1341
826.893677,1334
827.012024,1317
827.130493,1332
827.248962,1341
827.36731,1358
827.485779,1308
827.604248,1267
827.722595,1315
827.841064,1315
827.959412,1311
828.077942,1287
828.196289,1277
828.314636,1280
828.433105,1282
828.551514,1278
828.669861,1310
828.78833,1279
828.906677,1308
829.025085,1310
829.143433,1332
829.261841,1297
829.38031,1298
829.498657,1269
829.617004,1286
829.735413,1334
829.85376,1354
829.972107,1265
830.090515,1282
830.208862,1291
830.327209,1307
830.445557,1319
830.563904,1317
830.682312,1276
830.800659,1272
830.919006,1321
831.037354,1310
831.155701,1297
831.274048,1314
831.392395,1295
831.51062,1267
831.629028,1308
831.747314,1274
831.865662,1318
831.984009,1292
832.102356,1273
832.220642,1262
832.338928,1233
832.457275,1292
832.575623,1300
832.693909,1239
832.812134,1252
832.930481,1294
833.048828,1264
833.167114,1324
833.2854,1300
833.403687,1281
833.521973,1286
833.640259,1289
833.758545,1273
833.876831,1297
833.995056,1308
834.113281,1295
834.231628,1331
834.349915,1268
834.468201,1266
834.586426,1282
834.704651,1272
834.822998,1294
834.941162,1277
835.059448,1294
835.177673,1298
835.295959,1292
835.414246,1273
835.53241,1264
835.650635,1283
835.768921,1257
835.887146,1287
836.005371,1295
836.123596,1292
836.241821,1324
836.360046,1304
836.478271,1303
836.596497,1326
836.714722,1283
836.832886,1304
836.95105,1269
837.069336,1312
837.1875,1304
837.305725,1290
837.423889,1283
837.542053,1309
837.660339,1280
837.778503,1265
837.896667,1268
838.014832,1332
838.132996,1287
838.25116,1288
838.369385,1309
838.487488,1308
838.605713,1276
838.723877,1289
838.84198,1277
838.960205,1311
839.078308,1300
839.196472,1286
839.314636,1312
839.4328,1310
839.550964,1272
839.669067,1276
839.787231,1281
839.905396,1267
840.023499,1259
840.141602,1274
840.259766,1311
840.377869,1281
840.495972,1253
840.614136,1268
840.732239,1291
840.850342,1319
840.968445,1286
841.086548,1286
841.204651,1273
841.322754,1296
841.440918,1293
841.55896,1310
841.677002,1240
841.795166,1336
841.913208,1241
842.031311,1330
842.149353,1302
842.267456,1296
842.385498,1324
842.503601,1301
842.621643,1234
842.739746,1275
842.857788,1302
842.97583,1305
843.093933,1291
843.211975,1254
843.330017,1273
843.44812,1280
843.566101,1299
843.684204,1282
843.802246,1241
843.920227,1291
844.038269,1274
844.156311,1291
844.274292,1265
844.392395,1292
844.510376,1284
844.628357,1265
844.74646,1296
844.864441,1281
844.982422,1303
845.100403,1281
845.218384,1279
845.336426,1240
845.454468,1282
845.572449,1207
845.69043,1288
845.808411,1257
845.926453,1290
846.044373,1244
846.162354,1279
846.280396,1273
846.398315,1294
846.516296,1290
846.634216,1278
846.752197,1248
846.870178,1253
846.988098,1273
847.106079,1240
847.22406,1258
847.34198,1268
847.4599,1316
847.577881,1266
847.695801,1297
847.813782,1271
847.931641,1264
848.049561,1302
848.167603,1285
848.285461,1268
848.403381,1264
848.521362,1291
848.639221,1303
848.75708,1287
848.875,1295
848.99292,1278
849.110901,1311
849.22876,1263
849.34668,1224
849.464539,1290
849.582458,1248
849.700317,1300
849.818176,1294
849.936096,1284
850.053955,1278
850.171875,1257
850.289673,1271
850.407593,1267
850.525452,1324
850.643311,1278
850.761169,1302
850.878967,1270
850.996887,1276
851.114746,1268
851.232544,1281
851.350403,1274
851.468262,1269
851.58606,1311
851.703979,1281
851.821777,1267
851.939636,1285
852.057434,1286
852.175232,1316
852.293091,1279
852.410889,1264
852.528687,1273
852.646545,1292
852.764343,1264
852.88208,1278
852.999939,1283
853.117676,1284
853.235535,1287
853.353271,1294
853.471069,1282
853.588928,1253
853.706604,1279
853.824402,1283
853.9422,1271
854.059998,1269
854.177734,1269
854.295532,1239
854.413269,1299
854.531006,1333
854.648804,1276
854.766541,1282
854.884277,1252
855.002014,1265
855.119751,1271
855.237549,1261
855.355225,1292
855.473022,1239
855.590698,1314
855.708435,1269
855.826172,1282
855.943848,1272
856.061646,1280
856.179321,1284
856.296997,1278
856.414795,1320
856.53241,1304
856.650085,1249
856.767822,1257
856.885559,1289
857.003174,1244
857.120911,1271
857.238586,1298
857.356201,1271
857.473938,1284
857.591614,1292
857.709351,1293
857.826965,1316
857.944641,1301
858.062317,1288
858.179993,1306
858.297668,1296
858.415283,1291
858.532959,1305
858.650574,1284
858.768188,1285
858.885803,1292
859.003479,1317
859.121094,1285
859.23877,1320
859.356384,1262
859.473999,1303
859.591675,1292
859.709229,1278
859.826843,1257
859.944458,1278
860.062012,1274
860.179626,1293
860.297302,1266
860.414856,1271
860.532471,1294
860.650024,1308
860.767639,1348
860.885193,1312
861.002808,1303
861.120361,1322
861.237976,1258
861.35553,1307
861.473022,1282
861.590698,1311
861.708191,1251
861.825745,1302
861.943298,1316
862.060852,1301
862.178406,1282
862.295959,1307
862.413513,1281
862.531006,1323
862.64856,1270
862.766113,1288
862.883667,1299
863.00116,1295
863.118713,1265
863.236206,1285
863.353699,1289
863.471252,1251
863.588745,1292
863.706177,1320
863.82373,1291
863.941162,1291
864.058716,1272
864.176208,1279
864.29364,1269
864.411194,1289
864.528687,1253
864.646118,1322
864.763611,1281
864.881042,1282
864.998535,1287
865.116028,1293
865.233459,1285
865.350891,1291
865.468384,1301
865.585754,1315
865.703308,1310
865.820679,1311
865.938171,1270
866.055542,1273
866.173035,1290
866.290466,1264
866.407837,1268
866.52533,1292
866.6427,1359
866.760071,1305
866.877563,1293
866.994934,1291
867.112305,1268
867.229736,1279
867.347107,1276
867.464539,1283
867.58197,1273
867.699341,1331
867.81665,1276
867.934082,1319
868.051453,1276
868.168823,1277
868.286194,1301
868.403564,1306
868.520935,1289
868.638306,1328
868.755676,1274
868.872986,1326
868.990295,1283
869.107727,1290
869.225037,1310
869.342346,1279
869.459717,1328
869.577026,1324
869.694336,1310
869.811707,1298
869.929016,1320
870.046326,1317
870.163635,1326
870.280945,1292
870.398254,1256
870.515564,1319
870.632812,1296
870.750183,1335
870.867432,1293
870.984741,1335
871.102051,1277
871.219299,1324
871.336609,1322
871.453918,1300
871.571106,1327
871.688416,1329
871.805664,1297
871.922852,1302
872.040222,1275
872.157471,1313
872.274719,1289
872.391968,1303
872.509155,1341
872.626465,1307
872.743652,1313
872.860962,1284
872.978149,1332
873.095337,1331
873.212646,1301
873.329834,1336
873.44696,1305
873.564209,1334
873.681396,1300
873.798645,1276
873.915894,1322
874.03302,1273
874.150208,1297
874.267456,1277
874.384583,1277
874.501831,1298
874.618958,1296
874.736145,1324
874.853333,1267
874.970459,1289
875.087646,1283
875.204834,1271
875.32196,1308
875.439148,1356
875.556274,1337
875.673401,1272
875.790527,1341
875.907715,1329
876.024841,1265
876.141968,1334
876.259094,1333
876.376282,1322
876.493347,1307
876.610474,1313
876.7276,1308
876.844727,1354
876.961853,1306
877.078918,1319
877.195984,1303
877.313171,1326
877.430237,1300
877.547302,1343
877.664368,1327
877.781433,1301
877.898499,1302
878.015625,1325
878.13269,1258
878.249695,1320
878.366821,1293
878.483887,1311
878.600952,1325
878.717957,1275
878.834961,1326
878.952087,1301
879.069092,1314
879.186157,1321
879.303162,1275
879.420227,1276
879.537231,1275
879.654236,1304
879.77124,1346
879.888306,1281
880.005249,1322
880.122314,1275
880.239319,1341
880.356323,1314
880.473328,1349
880.590271,1336
880.707275,1324
880.824341,1314
880.941284,1325
881.058228,1309
881.175232,1333
881.292236,1319
881.40918,1332
881.526123,1283
881.643066,1287
881.760071,1346
881.877014,1305
881.993958,1320
882.11084,1282
882.227783,1308
882.344727,1329
882.46167,1357
882.578613,1346
882.695618,1314
882.812439,1314
882.929382,1310
883.046326,1342
883.163208,1310
883.280151,1317
883.397034,1341
883.513916,1328
883.630798,1345
883.747742,1344
883.864563,1337
883.981506,1354
884.098389,1298
884.21521,1325
884.332153,1311
884.448975,1311
884.565796,1335
884.682678,1325
884.7995,1348
884.916443,1307
885.033264,1348
885.150085,1310
885.266968,1348
885.383789,1332
885.500671,1336
885.617493,1308
885.734314,1326
885.851196,1336
885.967896,1320
886.084717,1319
886.201599,1357
886.318359,1330
886.435181,1366
886.552002,1362
886.668762,1354
886.785645,1361
886.902344,1330
887.019165,1355
887.135925,1316
887.252747,1355
887.369446,1329
887.486267,1354
887.603027,1336
887.719788,1333
887.836548,1354
887.953247,1349
888.070068,1366
888.186829,1357
888.303528,1334
888.420288,1341
888.536987,1316
888.653687,1344
888.770447,1333
888.887146,1356
889.003967,1350
889.120667,1346
889.237305,1352
889.354065,1317
889.470703,1342
889.587463,1323
889.704163,1341
889.820862,1328
889.937561,1331
890.054199,1335
890.170837,1329
890.287598,1339
890.404236,1349
890.520874,1348
890.637634,1326
890.754211,1359
890.87085,1334
890.987549,1383
891.104187,1358
891.220886,1378
891.337463,1317
891.454102,1377
891.57074,1340
891.687378,1321
891.804077,1370
891.920654,1335
892.037231,1356
892.15387,1370
892.270447,1374
892.387085,1370
892.503723,1329
892.6203,1338
892.736877,1354
892.853516,1375
892.970032,1374
893.08667,1340
893.203186,1359
893.319763,1348
893.43634,1390
893.552917,1317
893.669556,1333
893.786011,1357
893.902588,1357
894.019165,1372
894.135681,1378
894.252197,1376
894.368835,1390
894.485291,1364
894.601868,1396
894.718384,1357
894.8349,1327
894.951355,1333
895.067932,1382
895.184448,1313
895.300964,1393
895.417419,1351
895.533936,1301
895.650452,1393
895.766907,1339
895.883423,1400
895.999878,1394
896.116333,1369
896.232849,1387
896.349304,1366
896.465759,1386
896.582214,1352
896.698669,1402
896.815125,1367
896.931641,1351
897.048035,1336
897.164551,1390
897.280884,1341
897.397339,1356
897.513794,1351
897.630249,1356
897.746582,1402
897.863098,1355
897.979431,1336
898.095886,1372
898.212341,1346
898.328674,1407
898.445129,1360
898.561462,1347
898.677795,1362
898.794312,1392
898.910645,1375
899.026978,1351
899.143433,1380
899.259766,1370
899.37616,1398
899.492493,1350
899.608765,1414
899.725159,1333
899.841553,1380
899.957947,1370
900.07428,1397
900.190552,1372
900.306946,1379
900.423157,1405
900.53949,1375
900.655884,1360
900.772156,1394
900.888489,1444
901.004822,1396
901.121033,1394
901.237366,1392
901.353699,1351
901.46991,1390
901.586304,1381
901.702515,1383
901.818787,1382
901.93512,1421
902.051331,1371
902.167603,1411
902.283875,1383
902.400085,1380
902.516418,1349
902.632629,1433
902.74884,1378
902.865112,1389
902.981384,1412
903.097595,1376
903.213867,1404
903.330017,1398
903.446289,1382
903.5625,1386
903.67865,1447
903.794922,1376
903.911072,1353
904.027344,1396
904.143494,1419
904.259705,1403
904.375916,1356
904.492065,1390
904.608215,1393
904.724426,1367
904.840576,1365
904.956726,1386
905.072876,1380
905.189087,1380
905.305176,1346
905.421387,1370
905.537537,1434
905.653687,1361
905.769775,1367
905.885925,1412
906.002014,1371
906.118164,1395
906.234314,1414
906.350403,1426
906.466492,1369
906.582642,1413
906.69873,1385
906.814758,1395
906.930908,1388
907.046936,1396
907.163086,1421
907.279175,1413
907.395264,1365
907.511353,1411
907.62738,1407
907.743408,1427
907.859497,1394
907.975525,1424
908.091553,1383
908.207703,1400
908.32373,1419
908.439758,1374
908.555786,1380
908.671814,1405
908.787842,1396
908.90387,1448
909.019775,1376
909.135864,1409
909.251892,1413
909.367859,1421
909.483826,1432
909.599854,1427
909.715881,1427
909.831848,1442
909.947815,1380
910.063782,1421
910.179749,1403
910.295776,1416
910.411743,1403
910.527649,1417
910.643616,1428
910.759583,1423
910.875488,1415
910.991455,1394
911.107361,1414
911.223267,1412
911.339294,1418
911.4552,1405
911.571106,1423
911.687073,1397
911.802979,1405
911.918823,1383
912.034729,1431
912.150635,1421
912.266602,1448
912.382446,1355
912.498352,1389
912.614197,1401
912.730103,1393
912.846008,1432
792.44574,1610
792.56488,1621
792.68396,1681
792.80304,1588
792.92218,1535
793.041199,1605
793.160339,1527
793.279419,1546
793.398499,1601
793.517578,1587
793.636658,1565
793.755737,1572
793.874817,1526
793.993896,1589
794.112976,1544
794.232056,1530
794.351074,1554
794.470215,1555
794.589233,1545
794.708313,1527
794.827393,1541
794.946411,1507
795.065552,1514
795.18457,1534
795.303589,1522
795.422668,1529
795.541687,1543
795.660767,1525
795.779846,1530
795.898865,1534
796.017883,1564
796.136963,1513
796.255981,1554
796.375061,1520
796.49408,1527
796.613037,1523
796.732117,1519
796.851135,1506
796.970154,1491
797.089233,1492
797.208191,1509
797.327271,1499
797.446228,1505
797.565186,1495
797.684265,1499
797.803223,1524
797.922241,1446
798.04126,1492
798.160278,1501
798.279297,1490
798.398315,1473
798.517273,1504
798.636292,1473
798.75531,1494
798.874268,1520
798.993286,1466
799.112244,1487
799.231323,1500
799.350281,1467
799.469238,1451
799.588257,1509
799.707153,1519
799.826111,1460
799.945129,1484
800.064087,1479
800.183044,1463
800.302063,1505
800.421021,1488
800.539978,1467
800.658936,1460
800.777893,1485
800.896912,1447
801.015747,1462
801.134705,1511
801.253723,1485
801.37262,1510
801.491638,1466
801.610535,1474
801.729492,1462
801.84845,1447
801.967407,1457
802.086243,1468
802.205261,1467
802.324158,1455
802.443115,1448
802.562073,1472
802.680969,1463
802.799927,1435
802.918762,1467
803.037659,1474
803.156677,1474
803.275574,1460
803.39447,1436
803.513428,1475
803.632263,1471
803.751221,1508
803.870117,1476
803.989014,1498
804.107971,1468
804.226746,1447
804.345642,1435
804.4646,1426
804.583496,1487
804.702393,1466
804.821228,1446
804.940125,1459
805.059021,1433
805.177917,1458
805.296814,1465
805.415649,1468
805.534546,1431
805.653442,1469
805.772278,1437
805.891113,1470
806.01001,1461
806.128906,1448
806.247742,1435
806.366577,1451
806.485413,1462
806.604309,1466
806.723145,1483
806.84198,1448
806.960876,1449
807.079712,1425
807.198486,1481
807.317383,1478
807.436218,1463
807.554993,1462
807.673889,1444
807.792725,1450
807.91156,1441
808.030396,1436
808.14917,1459
808.268005,1416
808.386841,1486
808.505676,1438
808.624451,1459
808.743286,1457
808.862122,1383
808.980896,1410
809.099731,1417
809.218506,1471
809.337341,1472
809.456116,1415
809.57489,1425
809.693726,1484
809.8125,1424
809.931274,1486
810.050049,1424
810.168884,1429
810.287659,1415
810.406372,1423
810.525269,1386
810.643982,1432
810.762756,1406
810.881531,1468
811.000305,1471
811.11908,1439
811.237854,1464
811.356567,1427
811.475403,1420
811.594116,1408
811.71283,1447
811.831604,1440
811.950378,1434
812.069153,1468
812.187927,1384
812.30658,1446
812.425415,1405
812.544128,1438
812.662781,1387
812.781616,1398
812.900269,1456
813.019043,1437
813.137756,1430
813.256531,1464
813.375244,1413
813.493896,1420
813.612671,1431
813.731384,1380
813.850037,1459
813.96875,1431
814.087524,1428
814.206238,1436
814.324951,1391
814.443604,1420
814.562256,1434
814.68103,1433
814.799683,1413
814.918335,1400
815.037109,1429
815.155762,1431
815.274475,1446
815.393188,1396
815.511841,1414
815.630554,1389
815.749146,1381
815.867859,1372
815.986572,1401
816.105164,1393
816.223877,1401
816.342529,1392
816.461182,1407
816.579895,1421
816.698486,1417
816.817139,1425
816.935791,1398
817.054504,1425
817.173096,1408
817.291748,1382
817.4104,1465
817.529053,1342
817.647644,1400
817.766235,1396
817.884949,1415
818.00354,1401
818.122192,1361
818.240845,1378
818.359436,1374
818.478088,1365
818.59668,1374
818.715271,1412
818.833923,1358
818.952515,1374
819.071106,1365
819.189758,1371
819.30835,1423
819.426941,1366
819.545532,1402
819.664124,1375
819.782715,1350
819.901306,1379
820.019897,1384
820.138489,1316
820.25708,1360
820.375671,1364
820.494202,1367
820.612732,1366
820.731384,1371
820.849915,1351
820.968506,1326
821.087097,1363
821.205627,1376
821.324158,1283
821.442749,1309
821.561279,1339
821.679871,1308
821.798401,1349
821.916931,1389
822.035461,1374
822.154053,1376
822.272583,1346
822.391174,1349
822.509583,1321
822.628174,1334
822.746704,1335
822.865234,1322
822.983765,1365
823.102295,1366
823.220825,1361
823.339294,1349
823.457825,1352
823.576355,1349
823.694824,1354
823.813354,1340
823.931885,1307
824.050354,1376
824.168884,1322
824.287354,1282
824.405823,1326
824.524353,1352
824.642822,1348
824.761353,1366
824.879822,1275
824.998291,1298
825.116699,1361
825.235291,1320
825.353699,1321
825.472168,1320
825.590637,1324
825.709106,1358
825.827576,1318
825.946045,1322
826.064453,1329
826.182983,1317
826.301392,1361
826.4198,1332
826.53833,1320
826.656738,1330
826.775208,1308
826.893677,1308
827.012024,1333
827.130493,1321
827.248962,1321
827.36731,1303
827.485779,1355
827.604248,1354
827.722595,1308
827.841064,1298
827.959412,1317
828.077942,1339
828.196289,1325
828.314636,1347
828.433105,1310
828.551514,1307
828.669861,1332
828.78833,1284
828.906677,1360
829.025085,1329
829.143433,1299
829.261841,1352
829.38031,1322
829.498657,1320
829.617004,1326
829.735413,1335
829.85376,1316
829.972107,1306
830.090515,1354
830.208862,1316
830.327209,1336
830.445557,1333
830.563904,1281
830.682312,1295
830.800659,1301
830.919006,1314
831.037354,1311
831.155701,1322
831.274048,1313
831.392395,1337
831.51062,1281
831.629028,1304
831.747314,1298
831.865662,1291
831.984009,1303
832.102356,1303
832.220642,1314
832.338928,1300
832.457275,1339
832.575623,1279
832.693909,1310
832.812134,1290
832.930481,1314
833.048828,1277
833.167114,1295
833.2854,1297
833.403687,1306
833.521973,1326
833.640259,1276
833.758545,1279
833.876831,1316
833.995056,1279
834.113281,1274
834.231628,1291
834.349915,1287
834.468201,1331
834.586426,1320
834.704651,1311
834.822998,1301
834.941162,1300
835.059448,1313
835.177673,1275
835.295959,1311
835.414246,1350
835.53241,1287
835.650635,1307
835.768921,1305
835.887146,1335
836.005371,1321
836.123596,1299
836.241821,1305
836.360046,1304
836.478271,1242
836.596497,1295
836.714722,1294
836.832886,1297
836.95105,1317
837.069336,1296
837.1875,1304
837.305725,1308
837.423889,1297
837.542053,1287
837.660339,1295
837.778503,1324
837.896667,1258
838.014832,1304
838.132996,1258
838.25116,1279
838.369385,1276
838.487488,1287
838.605713,1274
838.723877,1312
838.84198,1299
838.960205,1300
839.078308,1321
839.196472,1301
839.314636,1324
839.4328,1315
839.550964,1325
839.669067,1279
839.787231,1297
839.905396,1301
840.023499,1296
840.141602,1318
840.259766,1305
840.377869,1275
840.495972,1298
840.614136,1295
840.732239,1304
840.850342,1291
840.968445,1282
841.086548,1284
841.204651,1288
841.322754,1311
841.440918,1323
841.55896,1307
841.677002,1275
841.795166,1309
841.913208,1261
842.031311,1306
842.149353,1278
842.267456,1304
842.385498,1312
842.503601,1260
842.621643,1268
842.739746,1274
842.857788,1287
842.97583,1276
843.093933,1291
843.211975,1286
843.330017,1275
843.44812,1303
843.566101,1315
843.684204,1273
843.802246,1322
843.920227,1297
844.038269,1286
844.156311,1272
844.274292,1291
844.392395,1299
844.510376,1304
844.628357,1286
844.74646,1271
844.864441,1281
844.982422,1295
845.100403,1247
845.218384,1281
845.336426,1274
845.454468,1303
845.572449,1284
845.69043,1308
845.808411,1268
845.926453,1284
846.044373,1269
846.162354,1296
846.280396,1303
846.398315,1282
846.516296,1279
846.634216,1286
846.752197,1280
846.870178,1321
846.988098,1262
847.106079,1285
847.22406,1248
847.34198,1289
847.4599,1305
847.577881,1303
847.695801,1290
847.813782,1295
847.931641,1286
848.049561,1285
848.167603,1283
848.285461,1295
848.403381,1258
848.521362,1318
848.639221,1269
848.75708,1313
848.875,1281
848.99292,1289
849.110901,1289
849.22876,1330
849.34668,1287
849.464539,1280
849.582458,1308
849.700317,1302
849.818176,1279
849.936096,1302
850.053955,1267
850.171875,1280
850.289673,1317
850.407593,1323
850.525452,1255
850.643311,1279
850.761169,1345
850.878967,1294
850.996887,1299
851.114746,1294
851.232544,1295
851.350403,1301
851.468262,1282
851.58606,1272
851.703979,1335
851.821777,1301
851.939636,1282
852.057434,1266
852.175232,1287
852.293091,1286
852.410889,1243
852.528687,1304
852.646545,1276
852.764343,1314
852.88208,1301
852.999939,1298
853.117676,1301
853.235535,1291
853.353271,1303
853.471069,1270
853.588928,1303
853.706604,1300
853.824402,1301
853.9422,1282
854.059998,1292
854.177734,1305
854.295532,1263
854.413269,1274
854.531006,1290
854.648804,1318
854.766541,1308
854.884277,1278
855.002014,1259
855.119751,1278
855.237549,1269
855.355225,1294
855.473022,1287
855.590698,1293
855.708435,1281
855.826172,1299
855.943848,1295
856.061646,1298
856.179321,1318
856.296997,1281
856.414795,1294
856.53241,1253
856.650085,1288
856.767822,1304
856.885559,1320
857.003174,1287
857.120911,1308
857.238586,1265
857.356201,1277
857.473938,1262
857.591614,1285
857.709351,1286
857.826965,1268
857.944641,1289
858.062317,1328
858.179993,1312
858.297668,1304
858.415283,1317
858.532959,1282
858.650574,1310
858.768188,1339
858.885803,1278
859.003479,1275
859.121094,1281
859.23877,1303
859.356384,1288
859.473999,1314
859.591675,1306
859.709229,1302
859.826843,1307
859.944458,1285
860.062012,1285
860.179626,1310
860.297302,1338
860.414856,1281
860.532471,1328
860.650024,1292
860.767639,1287
860.885193,1295
861.002808,1280
861.120361,1280
861.237976,1265
861.35553,1303
861.473022,1330
861.590698,1290
861.708191,1301
861.825745,1304
861.943298,1302
862.060852,1278
862.178406,1264
862.295959,1272
862.413513,1318
862.531006,1310
862.64856,1306
862.766113,1295
862.883667,1275
863.00116,1317
863.118713,1248
863.236206,1325
863.353699,1311
863.471252,1297
863.588745,1299
863.706177,1300
863.82373,1293
863.941162,1271
864.058716,1324
864.176208,1319
864.29364,1326
864.411194,1284
864.528687,1286
864.646118,1312
864.763611,1283
864.881042,1329
864.998535,1314
865.116028,1329
865.233459,1278
865.350891,1291
865.468384,1265
865.585754,1330
865.703308,1290
865.820679,1313
865.938171,1299
866.055542,1312
866.173035,1296
866.290466,1296
866.407837,1297
866.52533,1313
866.6427,1285
866.760071,1280
866.877563,1328
866.994934,1291
867.112305,1304
867.229736,1296
867.347107,1300
867.464539,1312
867.58197,1304
867.699341,1301
867.81665,1294
867.934082,1277
868.051453,1313
868.168823,1308
868.286194,1292
868.403564,1310
868.520935,1312
868.638306,1314
868.755676,1283
868.872986,1276
868.990295,1326
869.107727,1320
869.225037,1308
869.342346,1324
869.459717,1315
869.577026,1307
869.694336,1335
869.811707,1293
869.929016,1317
870.046326,1315
870.163635,1313
870.280945,1361
870.398254,1308
870.515564,1318
870.632812,1330
870.750183,1360
870.867432,1318
870.984741,1307
871.102051,1269
871.219299,1326
871.336609,1290
871.453918,1320
871.571106,1300
871.688416,1299
871.805664,1281
871.922852,1311
872.040222,1321
872.157471,1301
872.274719,1301
872.391968,1331
872.509155,1322
872.626465,1297
872.743652,1337
872.860962,1312
872.978149,1300
873.095337,1284
873.212646,1314
873.329834,1308
873.44696,1313
873.564209,1265
873.681396,1356
873.798645,1323
873.915894,1281
874.03302,1304
874.150208,1304
874.267456,1355
874.384583,1320
874.501831,1323
874.618958,1300
874.736145,1314
874.853333,1310
874.970459,1333
875.087646,1361
875.204834,4008
875.32196,1266
875.439148,1305
875.556274,1351
875.673401,1354
875.790527,1312
875.907715,1319
876.024841,1349
876.141968,1323
876.259094,1320
876.376282,1290
876.493347,1351
876.610474,1328
876.7276,1350
876.844727,1289
876.961853,1312
877.078918,1324
877.195984,1334
877.313171,1344
877.430237,1337
877.547302,1351
877.664368,1343
877.781433,1323
877.898499,1340
878.015625,1328
878.13269,1336
878.249695,1345
878.366821,1317
878.483887,1315
878.600952,1333
878.717957,1326
878.834961,1323
878.952087,1317
879.069092,1306
879.186157,1340
879.303162,1328
879.420227,1316
879.537231,1366
879.654236,1316
879.77124,1337
879.888306,1331
880.005249,1314
880.122314,1283
880.239319,1288
880.356323,1305
880.473328,1333
880.590271,1291
880.707275,1319
880.824341,1354
880.941284,1353
881.058228,1295
881.175232,1325
881.292236,1303
881.40918,1300
881.526123,1329
881.643066,1284
881.760071,1349
881.877014,1350
881.993958,1333
882.11084,1316
882.227783,1347
882.344727,1346
882.46167,1330
882.578613,1346
882.695618,1326
882.812439,1379
882.929382,1318
883.046326,1362
883.163208,1379
883.280151,1363
883.397034,1322
883.513916,1321
883.630798,1361
883.747742,1358
883.864563,1317
883.981506,1349
884.098389,1330
884.21521,1385
884.332153,1316
884.448975,1323
884.565796,1350
884.682678,1326
884.7995,1310
884.916443,1382
885.033264,1303
885.150085,1322
885.266968,1376
885.383789,1357
885.500671,1389
885.617493,1396
885.734314,1386
885.851196,1328
885.967896,1343
886.084717,1369
886.201599,1378
886.318359,1354
886.435181,1354
886.552002,1353
886.668762,1367
886.785645,1316
886.902344,1354
887.019165,1344
887.135925,1336
887.252747,1388
887.369446,1344
887.486267,1310
887.603027,1317
887.719788,1321
887.836548,1325
887.953247,1363
888.070068,1332
888.186829,1366
888.303528,1358
888.420288,1343
888.536987,1357
888.653687,1358
888.770447,1365
888.887146,1364
889.003967,1344
889.120667,1374
889.237305,1332
889.354065,1359
889.470703,1352
889.587463,1351
889.704163,1357
889.820862,1334
889.937561,1382
890.054199,1324
890.170837,1392
890.287598,1333
890.404236,1388
890.520874,1361
890.637634,1353
890.754211,1378
890.87085,1349
890.987549,1348
891.104187,1399
891.220886,1359
891.337463,1384
891.454102,1346
891.57074,1337
891.687378,1374
891.804077,1320
891.920654,1354
892.037231,1342
892.15387,1434
892.270447,1362
892.387085,1385
892.503723,1353
892.6203,1384
892.736877,1312
892.853516,1363
892.970032,1382
893.08667,1375
893.203186,1369
893.319763,1371
893.43634,1373
893.552917,1377
893.669556,1367
893.786011,1385
893.902588,1396
894.019165,1376
894.135681,1396
894.252197,1377
894.368835,1374
894.485291,1402
894.601868,1393
894.718384,1406
894.8349,1393
894.951355,1330
895.067932,1388
895.184448,1349
895.300964,1389
895.417419,1364
895.533936,1389
895.650452,1416
895.766907,1394
895.883423,1402
895.999878,1394
896.116333,1384
896.232849,1414
896.349304,1359
896.465759,1389
896.582214,1375
896.698669,1377
896.815125,1403
896.931641,1367
897.048035,1380
897.164551,1385
897.280884,1392
897.397339,1365
897.513794,1382
897.630249,1373
897.746582,1371
897.863098,1366
897.979431,1360
898.095886,1390
898.212341,1354
898.328674,1382
898.445129,1408
898.561462,1359
898.677795,1373
898.794312,1378
898.910645,1415
899.026978,1363
899.143433,1406
899.259766,1417
899.37616,1403
899.492493,1389
899.608765,1399
899.725159,1417
899.841553,1319
899.957947,1390
900.07428,1427
900.190552,1374
900.306946,1383
900.423157,1428
900.53949,1366
900.655884,1359
900.772156,1415
900.888489,1388
901.004822,1384
901.121033,1387
901.237366,1400
901.353699,1407
901.46991,1395
901.586304,1411
901.702515,1386
901.818787,1381
901.93512,1387
902.051331,1396
902.167603,1416
902.283875,1398
902.400085,1416
902.516418,1363
902.632629,1384
902.74884,1403
902.865112,1410
902.981384,1422
903.097595,1411
903.213867,1392
903.330017,1422
903.446289,1387
903.5625,1384
903.67865,1401
903.794922,1393
903.911072,1392
904.027344,1417
904.143494,1425
904.259705,1473
904.375916,1418
904.492065,1432
904.608215,1422
904.724426,1386
904.840576,1394
904.956726,1354
905.072876,1410
905.189087,1380
905.305176,1412
905.421387,1437
905.537537,1406
905.653687,1390
905.769775,1430
905.885925,1433
906.002014,1396
906.118164,1396
906.234314,1412
906.350403,1423
906.466492,1420
906.582642,1451
906.69873,1375
906.814758,1441
906.930908,1412
907.046936,1383
907.163086,1429
907.279175,1449
907.395264,1450
907.511353,1384
907.62738,1459
907.743408,1436
907.859497,1399
907.975525,1411
908.091553,1426
908.207703,1420
908.32373,1411
908.439758,1465
908.555786,1425
908.671814,1409
908.787842,1443
908.90387,1401
909.019775,1422
909.135864,1403
909.251892,1420
909.367859,1427
909.483826,1375
909.599854,1447
909.715881,1399
909.831848,1420
909.947815,4450
910.063782,6178
910.179749,1311
910.295776,1440
910.411743,1411
910.527649,1430
910.643616,1424
910.759583,1422
910.875488,1403
910.991455,1379
911.107361,1420
911.223267,1443
911.339294,1414
911.4552,1442
911.571106,1414
911.687073,1428
911.802979,1426
911.918823,1435
912.034729,1413
912.150635,1443
912.266602,1447
912.382446,1385
912.498352,1399
912.614197,1398
912.730103,1422
912.846008,1409
