792.44574,1658
792.56488,1671
792.68396,1660
792.80304,1670
792.92218,1596
793.041199,1563
793.160339,1595
793.279419,1582
793.398499,1588
793.517578,1568
793.636658,1557
793.755737,1591
793.874817,1562
793.993896,1580
794.112976,1508
794.232056,1553
794.351074,1530
794.470215,1544
794.589233,1544
794.708313,1506
794.827393,1541
794.946411,1543
795.065552,1527
795.18457,1578
795.303589,1539
795.422668,1510
795.541687,1513
795.660767,1539
795.779846,1490
795.898865,1494
796.017883,1492
796.136963,1491
796.255981,1534
796.375061,1488
796.49408,1497
796.613037,1505
796.732117,1541
796.851135,1475
796.970154,1447
797.089233,1495
797.208191,1502
797.327271,1477
797.446228,1467
797.565186,1492
797.684265,1561
797.803223,1483
797.922241,1483
798.04126,1491
798.160278,1470
798.279297,1530
798.398315,1473
798.517273,1479
798.636292,1504
798.75531,1413
798.874268,1432
798.993286,1491
799.112244,1453
799.231323,1437
799.350281,1432
799.469238,1461
799.588257,1458
799.707153,1480
799.826111,1468
799.945129,1430
800.064087,1459
800.183044,1469
800.302063,1457
800.421021,1476
800.539978,1402
800.658936,1482
800.777893,1455
800.896912,1406
801.015747,1441
801.134705,1469
801.253723,1452
801.37262,1440
801.491638,1459
801.610535,1455
801.729492,1423
801.84845,1449
801.967407,1456
802.086243,1479
802.205261,1472
802.324158,1446
802.443115,1438
802.562073,1443
802.680969,1436
802.799927,1433
802.918762,1422
803.037659,1422
803.156677,1461
803.275574,1407
803.39447,1441
803.513428,1450
803.632263,1399
803.751221,1433
803.870117,1406
803.989014,1403
804.107971,1427
804.226746,1448
804.345642,1426
804.4646,1415
804.583496,1475
804.702393,1418
804.821228,1441
804.940125,1484
805.059021,1439
805.177917,1415
805.296814,1456
805.415649,1437
805.534546,1453
805.653442,1415
805.772278,1483
805.891113,1472
806.01001,1480
806.128906,1461
806.247742,1430
806.366577,1389
806.485413,1484
806.604309,1450
806.723145,1433
806.84198,1445
806.960876,1426
807.079712,1408
807.198486,1438
807.317383,1408
807.436218,1462
807.554993,1465
807.673889,1433
807.792725,1440
807.91156,1410
808.030396,1398
808.14917,1442
808.268005,1405
808.386841,1431
808.505676,1433
808.624451,1426
808.743286,1411
808.862122,1416
808.980896,1460
809.099731,1421
809.218506,1415
809.337341,1444
809.456116,1451
809.57489,1468
809.693726,1442
809.8125,1424
809.931274,1414
810.050049,1439
810.168884,1440
810.287659,1454
810.406372,1445
810.525269,1428
810.643982,1436
810.762756,1409
810.881531,1457
811.000305,1427
811.11908,1428
811.237854,1405
811.356567,1471
811.475403,1412
811.594116,1448
811.71283,1416
811.831604,1444
811.950378,1441
812.069153,1404
812.187927,1409
812.30658,1473
812.425415,1437
812.544128,1414
812.662781,1471
812.781616,1470
812.900269,1392
813.019043,1453
813.137756,1445
813.256531,1413
813.375244,1395
813.493896,1394
813.612671,1430
813.731384,1423
813.850037,1393
813.96875,1377
814.087524,1390
814.206238,1425
814.324951,1419
814.443604,1438
814.562256,1436
814.68103,1434
814.799683,1389
814.918335,1429
815.037109,1410
815.155762,1441
815.274475,1396
815.393188,1366
815.511841,1402
815.630554,1388
815.749146,1398
815.867859,1340
815.986572,1386
816.105164,1381
816.223877,1401
816.342529,1383
816.461182,1423
816.579895,1422
816.698486,1385
816.817139,1397
816.935791,1395
817.054504,1364
817.173096,1391
817.291748,1417
817.4104,1399
817.529053,1409
817.647644,1381
817.766235,1379
817.884949,1366
818.00354,1368
818.122192,1383
818.240845,1359
818.359436,1404
818.478088,1411
818.59668,1348
818.715271,1318
818.833923,1345
818.952515,1354
819.071106,1344
819.189758,1371
819.30835,1345
819.426941,1347
819.545532,1330
819.664124,1360
819.782715,1342
819.901306,1340
820.019897,1352
820.138489,1373
820.25708,1324
820.375671,1354
820.494202,1351
820.612732,1333
820.731384,1315
820.849915,1333
820.968506,1324
821.087097,1343
821.205627,1322
821.324158,1324
821.442749,1345
821.561279,1314
821.679871,1356
821.798401,1313
821.916931,1325
822.035461,1337
822.154053,1333
822.272583,1314
822.391174,1301
822.509583,1362
822.628174,1352
822.746704,1313
822.865234,1292
822.983765,1322
823.102295,1292
823.220825,1289
823.339294,1311
823.457825,1321
823.576355,1303
823.694824,1319
823.813354,1323
823.931885,1274
824.050354,1345
824.168884,1338
824.287354,1346
824.405823,1310
824.524353,1310
824.642822,1327
824.761353,1308
824.879822,1323
824.998291,1306
825.116699,1304
825.235291,1348
825.353699,1336
825.472168,1334
825.590637,1313
825.709106,1345
825.827576,1332
825.946045,1251
826.064453,1306
826.182983,1289
826.301392,1316
826.4198,1328
826.53833,1303
826.656738,1333
826.775208,1294
826.893677,1298
827.012024,1290
827.130493,1295
827.248962,1270
827.36731,1301
827.485779,1291
827.604248,1343
827.722595,1313
827.841064,1295
827.959412,1258
828.077942,1287
828.196289,1304
828.314636,1274
828.433105,1285
828.551514,1296
828.669861,1298
828.78833,1278
828.906677,1291
829.025085,1298
829.143433,1309
829.261841,1311
829.38031,1277
829.498657,1291
829.617004,1302
829.735413,1277
829.85376,1285
829.972107,1236
830.090515,1288
830.208862,1286
830.327209,1281
830.445557,1286
830.563904,1330
830.682312,1295
830.800659,1258
830.919006,1263
831.037354,1281
831.155701,1252
831.274048,1299
831.392395,1269
831.51062,1292
831.629028,1267
831.747314,1296
831.865662,1280
831.984009,1309
832.102356,1263
832.220642,1247
832.338928,1303
832.457275,1268
832.575623,1267
832.693909,1314
832.812134,1302
832.930481,1244
833.048828,1315
833.167114,1227
833.2854,1240
833.403687,1296
833.521973,1313
833.640259,1282
833.758545,1282
833.876831,1289
833.995056,1250
834.113281,1273
834.231628,1296
834.349915,1270
834.468201,1258
834.586426,1273
834.704651,1286
834.822998,1274
834.941162,1294
835.059448,1256
835.177673,1277
835.295959,1252
835.414246,1307
835.53241,1296
835.650635,1263
835.768921,1279
835.887146,1304
836.005371,1276
836.123596,1295
836.241821,1299
836.360046,1301
836.478271,1314
836.596497,1281
836.714722,1282
836.832886,1228
836.95105,1282
837.069336,1272
837.1875,1288
837.305725,1252
837.423889,1277
837.542053,1275
837.660339,1263
837.778503,1288
837.896667,1255
838.014832,1289
838.132996,1262
838.25116,1298
838.369385,1256
838.487488,1293
838.605713,1285
838.723877,1272
838.84198,1298
838.960205,1279
839.078308,1276
839.196472,1281
839.314636,1259
839.4328,1257
839.550964,1263
839.669067,1257
839.787231,1270
839.905396,1234
840.023499,1262
840.141602,1265
840.259766,1239
840.377869,1262
840.495972,1261
840.614136,1293
840.732239,1246
840.850342,1246
840.968445,1271
841.086548,1259
841.204651,1279
841.322754,1279
841.440918,1268
841.55896,1242
841.677002,1264
841.795166,1269
841.913208,1287
842.031311,1283
842.149353,1248
842.267456,1293
842.385498,1265
842.503601,1258
842.621643,1245
842.739746,1293
842.857788,1279
842.97583,1308
843.093933,1247
843.211975,1271
843.330017,1277
843.44812,1251
843.566101,1253
843.684204,1229
843.802246,1264
843.920227,1269
844.038269,1286
844.156311,1259
844.274292,1296
844.392395,1282
844.510376,1260
844.628357,1269
844.74646,1302
844.864441,1269
844.982422,1292
845.100403,1298
845.218384,1253
845.336426,1245
845.454468,1305
845.572449,1253
845.69043,1252
845.808411,1267
845.926453,1266
846.044373,1214
846.162354,1246
846.280396,1246
846.398315,1238
846.516296,1272
846.634216,1264
846.752197,1284
846.870178,1268
846.988098,1239
847.106079,1273
847.22406,1278
847.34198,1253
847.4599,1278
847.577881,1256
847.695801,1255
847.813782,1267
847.931641,1303
848.049561,1277
848.167603,1256
848.285461,1305
848.403381,1271
848.521362,1255
848.639221,1266
848.75708,1301
848.875,1274
848.99292,1255
849.110901,1261
849.22876,1213
849.34668,1269
849.464539,1256
849.582458,1247
849.700317,1281
849.818176,1233
849.936096,1292
850.053955,1284
850.171875,1289
850.289673,1274
850.407593,1246
850.525452,1261
850.643311,1265
850.761169,1278
850.878967,1322
850.996887,1306
851.114746,1287
851.232544,1270
851.350403,1314
851.468262,1264
851.58606,1268
851.703979,1240
851.821777,1305
851.939636,1276
852.057434,1301
852.175232,1261
852.293091,1259
852.410889,1289
852.528687,1259
852.646545,1249
852.764343,1267
852.88208,1265
852.999939,1270
853.117676,1275
853.235535,1261
853.353271,1270
853.471069,1252
853.588928,1264
853.706604,1269
853.824402,1243
853.9422,1252
854.059998,1277
854.177734,1279
854.295532,1263
854.413269,1269
854.531006,1278
854.648804,1257
854.766541,1253
854.884277,1297
855.002014,1279
855.119751,1261
855.237549,1305
855.355225,1249
855.473022,1281
855.590698,1256
855.708435,1279
855.826172,1293
855.943848,1270
856.061646,1261
856.179321,1256
856.296997,1263
856.414795,1272
856.53241,1320
856.650085,1277
856.767822,1246
856.885559,1284
857.003174,1279
857.120911,1319
857.238586,1305
857.356201,1262
857.473938,1336
857.591614,1283
857.709351,1274
857.826965,1293
857.944641,1277
858.062317,1284
858.179993,1276
858.297668,1270
858.415283,1278
858.532959,1282
858.650574,1277
858.768188,1336
858.885803,1286
859.003479,1303
859.121094,1284
859.23877,1279
859.356384,1315
859.473999,1298
859.591675,1276
859.709229,1292
859.826843,1251
859.944458,1237
860.062012,1282
860.179626,1264
860.297302,1319
860.414856,1302
860.532471,1298
860.650024,1233
860.767639,1254
860.885193,1291
861.002808,1261
861.120361,1291
861.237976,1266
861.35553,1255
861.473022,1267
861.590698,1237
861.708191,1260
861.825745,1294
861.943298,1282
862.060852,1232
862.178406,1277
862.295959,1287
862.413513,1255
862.531006,1280
862.64856,1272
862.766113,1264
862.883667,1245
863.00116,1297
863.118713,1307
863.236206,1260
863.353699,1235
863.471252,1271
863.588745,1307
863.706177,1298
863.82373,1311
863.941162,1258
864.058716,1285
864.176208,1294
864.29364,1265
864.411194,1311
864.528687,1271
864.646118,1295
864.763611,1263
864.881042,1262
864.998535,1284
865.116028,1257
865.233459,1270
865.350891,1267
865.468384,1281
865.585754,1261
865.703308,1285
865.820679,1280
865.938171,1266
866.055542,1270
866.173035,1341
866.290466,1296
866.407837,1299
866.52533,1298
866.6427,1272
866.760071,1270
866.877563,1282
866.994934,1237
867.112305,1276
867.229736,1298
867.347107,1250
867.464539,1330
867.58197,1273
867.699341,1296
867.81665,1271
867.934082,1269
868.051453,1289
868.168823,1298
868.286194,1267
868.403564,1282
868.520935,1288
868.638306,1293
868.755676,1281
868.872986,1291
868.990295,1295
869.107727,1298
869.225037,1272
869.342346,1315
869.459717,1280
869.577026,1327
869.694336,1302
869.811707,1309
869.929016,1293
870.046326,1272
870.163635,1314
870.280945,1271
870.398254,1264
870.515564,1334
870.632812,1261
870.750183,1323
870.867432,1280
870.984741,1304
871.102051,1257
871.219299,1289
871.336609,1314
871.453918,1294
871.571106,1316
871.688416,1247
871.805664,1259
871.922852,1285
872.040222,1315
872.157471,1265
872.274719,1305
872.391968,1314
872.509155,1298
872.626465,1286
872.743652,1319
872.860962,1285
872.978149,1270
873.095337,1323
873.212646,1342
873.329834,1273
873.44696,1259
873.564209,1289
873.681396,1324
873.798645,1288
873.915894,1316
874.03302,1251
874.150208,1316
874.267456,1256
874.384583,1256
874.501831,1286
874.618958,1319
874.736145,1295
874.853333,1345
874.970459,1277
875.087646,1318
875.204834,1294
875.32196,1272
875.439148,1282
875.556274,1281
875.673401,1310
875.790527,1322
875.907715,1306
876.024841,1282
876.141968,1288
876.259094,1277
876.376282,1310
876.493347,1309
876.610474,1314
876.7276,1327
876.844727,1287
876.961853,1308
877.078918,1317
877.195984,1317
877.313171,1332
877.430237,1308
877.547302,1332
877.664368,1296
877.781433,1331
877.898499,1299
878.015625,1330
878.13269,1266
878.249695,1314
878.366821,1289
878.483887,1315
878.600952,1301
878.717957,1311
878.834961,1289
878.952087,1328
879.069092,1289
879.186157,1299
879.303162,1291
879.420227,1320
879.537231,1270
879.654236,1302
879.77124,1314
879.888306,1277
880.005249,1289
880.122314,1331
880.239319,1331
880.356323,1277
880.473328,1276
880.590271,1294
880.707275,1285
880.824341,1292
880.941284,1283
881.058228,1303
881.175232,1285
881.292236,1313
881.40918,1313
881.526123,1310
881.643066,1274
881.760071,1295
881.877014,1279
881.993958,1283
882.11084,1309
882.227783,1280
882.344727,1293
882.46167,1280
882.578613,1271
882.695618,1281
882.812439,1304
882.929382,1321
883.046326,1298
883.163208,1313
883.280151,1285
883.397034,1303
883.513916,1307
883.630798,1288
883.747742,1323
883.864563,1295
883.981506,1342
884.098389,1314
884.21521,1311
884.332153,1312
884.448975,1342
884.565796,1322
884.682678,1344
884.7995,1303
884.916443,1335
885.033264,1310
885.150085,1309
885.266968,1324
885.383789,1326
885.500671,1363
885.617493,1316
885.734314,1339
885.851196,1338
885.967896,1352
886.084717,1364
886.201599,1319
886.318359,1366
886.435181,1344
886.552002,1323
886.668762,1345
886.785645,1329
886.902344,1329
887.019165,1357
887.135925,1352
887.252747,1377
887.369446,1342
887.486267,1329
887.603027,1305
887.719788,1344
887.836548,1320
887.953247,1329
888.070068,1307
888.186829,1336
888.303528,1339
888.420288,1339
888.536987,1325
888.653687,1329
888.770447,1326
888.887146,1337
889.003967,1350
889.120667,1348
889.237305,1286
889.354065,1313
889.470703,1342
889.587463,1291
889.704163,1306
889.820862,1339
889.937561,1328
890.054199,1292
890.170837,1335
890.287598,1327
890.404236,1296
890.520874,1325
890.637634,1329
890.754211,1300
890.87085,1369
890.987549,1324
891.104187,1322
891.220886,1321
891.337463,1326
891.454102,1347
891.57074,1317
891.687378,1332
891.804077,1332
891.920654,1334
892.037231,1314
892.15387,1337
892.270447,1325
892.387085,1373
892.503723,1343
892.6203,1319
892.736877,1281
892.853516,1325
892.970032,1349
893.08667,1343
893.203186,1328
893.319763,1344
893.43634,1358
893.552917,1319
893.669556,1362
893.786011,1352
893.902588,1346
894.019165,1341
894.135681,1357
894.252197,1345
894.368835,1363
894.485291,1354
894.601868,1358
894.718384,1335
894.8349,1395
894.951355,1331
895.067932,1356
895.184448,1359
895.300964,1316
895.417419,1336
895.533936,1326
895.650452,1371
895.766907,1353
895.883423,1371
895.999878,1362
896.116333,1368
896.232849,1357
896.349304,1361
896.465759,1328
896.582214,1362
896.698669,1339
896.815125,1374
896.931641,1376
897.048035,1374
897.164551,1354
897.280884,1309
897.397339,1331
897.513794,1351
897.630249,1358
897.746582,1329
897.863098,1354
897.979431,1327
898.095886,1372
898.212341,1350
898.328674,1361
898.445129,1348
898.561462,1333
898.677795,1356
898.794312,1345
898.910645,1336
899.026978,1388
899.143433,1377
899.259766,1338
899.37616,1353
899.492493,1318
899.608765,1388
899.725159,1341
899.841553,1362
899.957947,1334
900.07428,1390
900.190552,1315
900.306946,1396
900.423157,1340
900.53949,1381
900.655884,1315
900.772156,1335
900.888489,1354
901.004822,1356
901.121033,1355
901.237366,1345
901.353699,1359
901.46991,1378
901.586304,1364
901.702515,1372
901.818787,1358
901.93512,1429
902.051331,1391
902.167603,1355
902.283875,1362
902.400085,1358
902.516418,1338
902.632629,1375
902.74884,1413
902.865112,1370
902.981384,1337
903.097595,1393
903.213867,1402
903.330017,1407
903.446289,1351
903.5625,1385
903.67865,1366
903.794922,1376
903.911072,1343
904.027344,1359
904.143494,1377
904.259705,1410
904.375916,1355
904.492065,1386
904.608215,1366
904.724426,1381
904.840576,1365
904.956726,1341
905.072876,1382
905.189087,1417
905.305176,1370
905.421387,1385
905.537537,1413
905.653687,1285
905.769775,1384
905.885925,1379
906.002014,1366
906.118164,1339
906.234314,1359
906.350403,1376
906.466492,1347
906.582642,1402
906.69873,1395
906.814758,1394
906.930908,1376
907.046936,1381
907.163086,1415
907.279175,1385
907.395264,1354
907.511353,1356
907.62738,1356
907.743408,1370
907.859497,1387
907.975525,1378
908.091553,1404
908.207703,1410
908.32373,1386
908.439758,1338
908.555786,1405
908.671814,1376
908.787842,1425
908.90387,1385
909.019775,1426
909.135864,1362
909.251892,1397
909.367859,1343
909.483826,1378
909.599854,1385
909.715881,1405
909.831848,1387
909.947815,1434
910.063782,1368
910.179749,1402
910.295776,1404
910.411743,1358
910.527649,1399
910.643616,1371
910.759583,1387
910.875488,1421
910.991455,1377
911.107361,1366
911.223267,1412
911.339294,1368
911.4552,1389
911.571106,1390
911.687073,1394
911.802979,1380
911.918823,1391
912.034729,1378
912.150635,1337
912.266602,1387
912.382446,1390
912.498352,1387
912.614197,1406
912.730103,1354
912.846008,1369
792.44574,1737
792.56488,1731
792.68396,1734
792.80304,1687
792.92218,1662
793.041199,1643
793.160339,1663
793.279419,1574
793.398499,1600
793.517578,1646
793.636658,1656
793.755737,1660
793.874817,1586
793.993896,1622
794.112976,1597
794.232056,1584
794.351074,1598
794.470215,1564
794.589233,1590
794.708313,1603
794.827393,1586
794.946411,1592
795.065552,1570
795.18457,1572
795.303589,1630
795.422668,1581
795.541687,1594
795.660767,1504
795.779846,1539
795.898865,1511
796.017883,1544
796.136963,1540
796.255981,1523
796.375061,1541
796.49408,1534
796.613037,1521
796.732117,1549
796.851135,1520
796.970154,1540
797.089233,1528
797.208191,1521
797.327271,1543
797.446228,1517
797.565186,1523
797.684265,1514
797.803223,1502
797.922241,1496
798.04126,1520
798.160278,1507
798.279297,1509
798.398315,1530
798.517273,1495
798.636292,1517
798.75531,1502
798.874268,1527
798.993286,1489
799.112244,1530
799.231323,1474
799.350281,1511
799.469238,1483
799.588257,1472
799.707153,1470
799.826111,1491
799.945129,1491
800.064087,1522
800.183044,1493
800.302063,1530
800.421021,1503
800.539978,1505
800.658936,1508
800.777893,1486
800.896912,1467
801.015747,1488
801.134705,1477
801.253723,1500
801.37262,1467
801.491638,1490
801.610535,1496
801.729492,1504
801.84845,1484
801.967407,1484
802.086243,1502
802.205261,1495
802.324158,1471
802.443115,1496
802.562073,1469
802.680969,1486
802.799927,1474
802.918762,1477
803.037659,1462
803.156677,1487
803.275574,1429
803.39447,1464
803.513428,1470
803.632263,1503
803.751221,1476
803.870117,1498
803.989014,1459
804.107971,1477
804.226746,1483
804.345642,1489
804.4646,1506
804.583496,1455
804.702393,1481
804.821228,1481
804.940125,1520
805.059021,1460
805.177917,1443
805.296814,1475
805.415649,1458
805.534546,1486
805.653442,1519
805.772278,1438
805.891113,1471
806.01001,1461
806.128906,1475
806.247742,1493
806.366577,1471
806.485413,1488
806.604309,1450
806.723145,1464
806.84198,1495
806.960876,1503
807.079712,1463
807.198486,1464
807.317383,1479
807.436218,1476
807.554993,1485
807.673889,1479
807.792725,1467
807.91156,1447
808.030396,1461
808.14917,1456
808.268005,1477
808.386841,1497
808.505676,1482
808.624451,1486
808.743286,1458
808.862122,1428
808.980896,1468
809.099731,1469
809.218506,1448
809.337341,1449
809.456116,1479
809.57489,1458
809.693726,1481
809.8125,1456
809.931274,1483
810.050049,1465
810.168884,1468
810.287659,1441
810.406372,1491
810.525269,1418
810.643982,1413
810.762756,1482
810.881531,1490
811.000305,1461
811.11908,1487
811.237854,1447
811.356567,1472
811.475403,1504
811.594116,1437
811.71283,1442
811.831604,1483
811.950378,1477
812.069153,1450
812.187927,1435
812.30658,1433
812.425415,1492
812.544128,1422
812.662781,1470
812.781616,1412
812.900269,1452
813.019043,1435
813.137756,1446
813.256531,1485
813.375244,1436
813.493896,1419
813.612671,1441
813.731384,1425
813.850037,1424
813.96875,1432
814.087524,1443
814.206238,1451
814.324951,1441
814.443604,1425
814.562256,1448
814.68103,1451
814.799683,1444
814.918335,1439
815.037109,1436
815.155762,1424
815.274475,1429
815.393188,1439
815.511841,1411
815.630554,1433
815.749146,1415
815.867859,1490
815.986572,1435
816.105164,1432
816.223877,1447
816.342529,1413
816.461182,1428
816.579895,1448
816.698486,1396
816.817139,1424
816.935791,1444
817.054504,1457
817.173096,1411
817.291748,1415
817.4104,1426
817.529053,1387
817.647644,1422
817.766235,1434
817.884949,1403
818.00354,1409
818.122192,1391
818.240845,1397
818.359436,1385
818.478088,1405
818.59668,1403
818.715271,1420
818.833923,1371
818.952515,1365
819.071106,1403
819.189758,1339
819.30835,1402
819.426941,1343
819.545532,1387
819.664124,1349
819.782715,1344
819.901306,1376
820.019897,1365
820.138489,1366
820.25708,1359
820.375671,1392
820.494202,1338
820.612732,1402
820.731384,1354
820.849915,1347
820.968506,1348
821.087097,1361
821.205627,1344
821.324158,1380
821.442749,1338
821.561279,1330
821.679871,1341
821.798401,1387
821.916931,1341
822.035461,1361
822.154053,1336
822.272583,1329
822.391174,1372
822.509583,1328
822.628174,1350
822.746704,1323
822.865234,1327
822.983765,1308
823.102295,1364
823.220825,1341
823.339294,1322
823.457825,1358
823.576355,1327
823.694824,1364
823.813354,1342
823.931885,1351
824.050354,1346
824.168884,1378
824.287354,1312
824.405823,1369
824.524353,1317
824.642822,1315
824.761353,1316
824.879822,1302
824.998291,1359
825.116699,1328
825.235291,1325
825.353699,1331
825.472168,1317
825.590637,1324
825.709106,1373
825.827576,1355
825.946045,1348
826.064453,1320
826.182983,1313
826.301392,1329
826.4198,1352
826.53833,1350
826.656738,1305
826.775208,1363
826.893677,1323
827.012024,1292
827.130493,1350
827.248962,1304
827.36731,1340
827.485779,1321
827.604248,1326
827.722595,1306
827.841064,1327
827.959412,1330
828.077942,1343
828.196289,1316
828.314636,1323
828.433105,1310
828.551514,1297
828.669861,1344
828.78833,1291
828.906677,1314
829.025085,1279
829.143433,1320
829.261841,1323
829.38031,1326
829.498657,1298
829.617004,1300
829.735413,1313
829.85376,1310
829.972107,1313
830.090515,1339
830.208862,1308
830.327209,1297
830.445557,1315
830.563904,1293
830.682312,1332
830.800659,1304
830.919006,1315
831.037354,1299
831.155701,1329
831.274048,1284
831.392395,1299
831.51062,1298
831.629028,1318
831.747314,1320
831.865662,1291
831.984009,1317
832.102356,1339
832.220642,1325
832.338928,1310
832.457275,1325
832.575623,1318
832.693909,1306
832.812134,1302
832.930481,1321
833.048828,1316
833.167114,1288
833.2854,1299
833.403687,1347
833.521973,1286
833.640259,1315
833.758545,1312
833.876831,1301
833.995056,1277
834.113281,1318
834.231628,1272
834.349915,1283
834.468201,1272
834.586426,1304
834.704651,1322
834.822998,1303
834.941162,1306
835.059448,1267
835.177673,1317
835.295959,1325
835.414246,1306
835.53241,1273
835.650635,1300
835.768921,1340
835.887146,1292
836.005371,1336
836.123596,1276
836.241821,1316
836.360046,1293
836.478271,1290
836.596497,1346
836.714722,1279
836.832886,1341
836.95105,1281
837.069336,1307
837.1875,1307
837.305725,1283
837.423889,1276
837.542053,1334
837.660339,1304
837.778503,1353
837.896667,1299
838.014832,1307
838.132996,1293
838.25116,1299
838.369385,1346
838.487488,1292
838.605713,1302
838.723877,1307
838.84198,1309
838.960205,1293
839.078308,1279
839.196472,1316
839.314636,1318
839.4328,1330
839.550964,1306
839.669067,1300
839.787231,1294
839.905396,1300
840.023499,1293
840.141602,1308
840.259766,1264
840.377869,1308
840.495972,1330
840.614136,1308
840.732239,1311
840.850342,1322
840.968445,1302
841.086548,1328
841.204651,1289
841.322754,1328
841.440918,1304
841.55896,1330
841.677002,1256
841.795166,1310
841.913208,1289
842.031311,1299
842.149353,1293
842.267456,1318
842.385498,1291
842.503601,1299
842.621643,1262
842.739746,1281
842.857788,1282
842.97583,1281
843.093933,1279
843.211975,1233
843.330017,1308
843.44812,1336
843.566101,1276
843.684204,1329
843.802246,1299
843.920227,1300
844.038269,1269
844.156311,1300
844.274292,1322
844.392395,1298
844.510376,1327
844.628357,1286
844.74646,1286
844.864441,1265
844.982422,1317
845.100403,1300
845.218384,1309
845.336426,1299
845.454468,1304
845.572449,1308
845.69043,1285
845.808411,1277
845.926453,1286
846.044373,1273
846.162354,1296
846.280396,1306
846.398315,1307
846.516296,1275
846.634216,1256
846.752197,1303
846.870178,1287
846.988098,1281
847.106079,1321
847.22406,1276
847.34198,1311
847.4599,1265
847.577881,1274
847.695801,1303
847.813782,1326
847.931641,1292
848.049561,1263
848.167603,1268
848.285461,1268
848.403381,1285
848.521362,1286
848.639221,1286
848.75708,1245
848.875,1302
848.99292,1317
849.110901,1251
849.22876,1300
849.34668,1294
849.464539,1304
849.582458,1295
849.700317,1254
849.818176,1291
849.936096,1316
850.053955,1283
850.171875,1282
850.289673,1302
850.407593,1296
850.525452,1287
850.643311,1307
850.761169,1290
850.878967,1291
850.996887,1318
851.114746,1277
851.232544,1287
851.350403,1296
851.468262,1275
851.58606,1306
851.703979,1302
851.821777,1287
851.939636,1298
852.057434,1308
852.175232,1298
852.293091,1278
852.410889,1282
852.528687,1285
852.646545,1292
852.764343,1319
852.88208,1313
852.999939,1281
853.117676,1249
853.235535,1292
853.353271,1289
853.471069,1301
853.588928,1280
853.706604,1313
853.824402,1285
853.9422,1306
854.059998,1313
854.177734,1329
854.295532,1309
854.413269,1304
854.531006,1333
854.648804,1323
854.766541,1300
854.884277,1294
855.002014,1267
855.119751,1296
855.237549,1300
855.355225,1325
855.473022,1299
855.590698,1330
855.708435,1335
855.826172,1321
855.943848,1316
856.061646,1318
856.179321,1302
856.296997,1290
856.414795,1309
856.53241,1309
856.650085,1323
856.767822,1324
856.885559,1311
857.003174,1308
857.120911,1274
857.238586,1330
857.356201,1290
857.473938,1306
857.591614,1329
857.709351,1310
857.826965,1322
857.944641,1322
858.062317,1292
858.179993,1303
858.297668,1262
858.415283,1352
858.532959,1323
858.650574,1302
858.768188,1351
858.885803,1333
859.003479,1301
859.121094,1339
859.23877,1313
859.356384,1311
859.473999,1303
859.591675,1299
859.709229,1311
859.826843,1317
859.944458,1286
860.062012,1306
860.179626,1311
860.297302,1317
860.414856,1268
860.532471,1294
860.650024,1298
860.767639,1291
860.885193,1280
861.002808,1304
861.120361,1284
861.237976,1298
861.35553,1335
861.473022,1291
861.590698,1323
861.708191,1332
861.825745,1299
861.943298,1261
862.060852,1307
862.178406,1326
862.295959,1290
862.413513,1292
862.531006,1322
862.64856,1313
862.766113,1304
862.883667,1307
863.00116,1292
863.118713,1326
863.236206,1308
863.353699,1282
863.471252,1333
863.588745,1319
863.706177,1317
863.82373,1312
863.941162,1310
864.058716,1315
864.176208,1329
864.29364,1346
864.411194,1266
864.528687,1328
864.646118,1348
864.763611,1318
864.881042,1324
864.998535,1282
865.116028,1293
865.233459,1283
865.350891,1320
865.468384,1281
865.585754,1344
865.703308,1297
865.820679,1313
865.938171,1272
866.055542,1320
866.173035,1299
866.290466,1291
866.407837,1305
866.52533,1304
866.6427,1321
866.760071,1286
866.877563,1316
866.994934,1316
867.112305,1267
867.229736,1335
867.347107,1283
867.464539,1358
867.58197,1289
867.699341,1297
867.81665,1328
867.934082,1320
868.051453,1317
868.168823,1305
868.286194,1315
868.403564,1311
868.520935,1312
868.638306,1340
868.755676,1330
868.872986,1300
868.990295,1300
869.107727,1318
869.225037,1297
869.342346,1343
869.459717,1332
869.577026,1299
869.694336,1317
869.811707,1298
869.929016,1343
870.046326,1317
870.163635,1361
870.280945,1325
870.398254,1304
870.515564,1303
870.632812,1325
870.750183,1295
870.867432,1360
870.984741,1316
871.102051,1341
871.219299,1309
871.336609,1344
871.453918,1339
871.571106,1315
871.688416,1320
871.805664,1350
871.922852,1320
872.040222,1335
872.157471,1334
872.274719,1313
872.391968,1297
872.509155,1327
872.626465,1337
872.743652,1314
872.860962,1299
872.978149,1315
873.095337,1321
873.212646,1292
873.329834,1344
873.44696,1325
873.564209,1327
873.681396,1300
873.798645,1330
873.915894,1345
874.03302,1303
874.150208,1299
874.267456,1346
874.384583,1312
874.501831,1335
874.618958,1339
874.736145,1343
874.853333,1346
874.970459,1312
875.087646,1321
875.204834,1360
875.32196,1314
875.439148,1336
875.556274,1310
875.673401,1369
875.790527,1320
875.907715,1322
876.024841,1331
876.141968,1326
876.259094,1362
876.376282,1337
876.493347,1355
876.610474,1325
876.7276,1335
876.844727,1337
876.961853,1331
877.078918,1336
877.195984,1330
877.313171,1313
877.430237,1358
877.547302,1347
877.664368,1338
877.781433,1342
877.898499,1322
878.015625,1350
878.13269,1335
878.249695,1319
878.366821,1345
878.483887,1277
878.600952,1310
878.717957,1279
878.834961,1343
878.952087,1330
879.069092,1354
879.186157,1367
879.303162,1294
879.420227,1319
879.537231,1316
879.654236,1324
879.77124,1263
879.888306,1332
880.005249,1323
880.122314,1356
880.239319,1308
880.356323,1346
880.473328,1340
880.590271,1329
880.707275,1313
880.824341,1340
880.941284,1348
881.058228,1309
881.175232,1367
881.292236,1316
881.40918,1309
881.526123,1331
881.643066,1327
881.760071,1360
881.877014,1324
881.993958,1335
882.11084,1352
882.227783,1318
882.344727,1346
882.46167,1341
882.578613,1344
882.695618,1350
882.812439,1344
882.929382,1357
883.046326,1308
883.163208,1326
883.280151,1324
883.397034,1376
883.513916,1357
883.630798,1355
883.747742,1349
883.864563,1377
883.981506,1363
884.098389,1287
884.21521,1336
884.332153,1345
884.448975,1330
884.565796,1360
884.682678,1360
884.7995,1349
884.916443,1353
885.033264,1387
885.150085,1345
885.266968,1366
885.383789,1363
885.500671,1384
885.617493,1387
885.734314,1363
885.851196,1338
885.967896,1343
886.084717,1383
886.201599,1413
886.318359,1364
886.435181,1413
886.552002,1358
886.668762,1317
886.785645,1369
886.902344,1359
887.019165,1386
887.135925,1358
887.252747,1381
887.369446,1366
887.486267,1374
887.603027,1361
887.719788,1381
887.836548,1381
887.953247,1303
888.070068,1358
888.186829,1371
888.303528,1366
888.420288,1348
888.536987,1331
888.653687,1354
888.770447,1365
888.887146,1375
889.003967,1372
889.120667,1407
889.237305,1386
889.354065,1404
889.470703,1341
889.587463,1370
889.704163,1360
889.820862,1370
889.937561,1343
890.054199,1335
890.170837,1372
890.287598,1389
890.404236,1372
890.520874,1350
890.637634,1357
890.754211,1368
890.87085,1340
890.987549,1351
891.104187,1368
891.220886,1334
891.337463,1351
891.454102,1371
891.57074,1363
891.687378,1360
891.804077,1359
891.920654,1367
892.037231,1359
892.15387,1363
892.270447,1343
892.387085,1360
892.503723,1394
892.6203,1347
892.736877,1377
892.853516,1372
892.970032,1361
893.08667,1392
893.203186,1370
893.319763,1404
893.43634,1415
893.552917,1387
893.669556,1365
893.786011,1374
893.902588,1394
894.019165,1372
894.135681,1359
894.252197,1399
894.368835,1364
894.485291,1370
894.601868,1393
894.718384,1380
894.8349,1374
894.951355,1376
895.067932,1401
895.184448,1359
895.300964,1405
895.417419,1385
895.533936,1375
895.650452,1361
895.766907,1370
895.883423,1384
895.999878,1386
896.116333,1390
896.232849,1358
896.349304,1394
896.465759,1409
896.582214,1381
896.698669,1371
896.815125,1367
896.931641,1434
897.048035,1375
897.164551,1374
897.280884,1357
897.397339,1418
897.513794,1359
897.630249,1400
897.746582,1407
897.863098,1365
897.979431,1395
898.095886,1385
898.212341,1388
898.328674,1353
898.445129,1385
898.561462,1358
898.677795,1419
898.794312,1362
898.910645,1379
899.026978,1395
899.143433,1369
899.259766,1365
899.37616,1403
899.492493,1404
899.608765,1415
899.725159,1390
899.841553,1375
899.957947,1390
900.07428,1418
900.190552,1371
900.306946,1352
900.423157,1392
900.53949,1409
900.655884,1411
900.772156,1360
900.888489,1396
901.004822,1386
901.121033,1392
901.237366,1415
901.353699,1376
901.46991,1372
901.586304,1372
901.702515,1370
901.818787,1416
901.93512,1402
902.051331,1376
902.167603,1445
902.283875,1405
902.400085,1428
902.516418,1404
902.632629,1436
902.74884,1378
902.865112,1465
902.981384,1390
903.097595,1444
903.213867,1450
903.330017,1409
903.446289,1422
903.5625,1402
903.67865,1430
903.794922,1394
903.911072,1423
904.027344,1442
904.143494,1415
904.259705,1451
904.375916,1385
904.492065,1403
904.608215,1411
904.724426,1401
904.840576,1382
904.956726,1398
905.072876,1426
905.189087,1464
905.305176,1437
905.421387,1410
905.537537,1404
905.653687,1436
905.769775,1402
905.885925,1414
906.002014,1380
906.118164,1435
906.234314,1415
906.350403,1410
906.466492,1379
906.582642,1387
906.69873,1446
906.814758,1470
906.930908,1388
907.046936,1440
907.163086,1431
907.279175,1376
907.395264,1436
907.511353,1424
907.62738,1386
907.743408,1390
907.859497,1413
907.975525,1446
908.091553,1382
908.207703,1429
908.32373,1374
908.439758,1421
908.555786,1410
908.671814,1405
908.787842,1451
908.90387,1457
909.019775,1335
909.135864,1443
909.251892,1395
909.367859,1449
909.483826,1466
909.599854,1377
909.715881,1437
909.831848,1390
909.947815,1418
910.063782,1411
910.179749,1459
910.295776,1444
910.411743,1406
910.527649,1417
910.643616,1442
910.759583,1401
910.875488,1426
910.991455,1429
911.107361,1432
911.223267,1441
911.339294,1400
911.4552,1424
911.571106,1430
911.687073,1457
911.802979,1477
911.918823,1402
912.034729,1446
912.150635,1392
912.266602,1397
912.382446,1442
912.498352,1436
912.614197,1464
912.730103,1432
912.846008,1440
792.44574,1693
792.56488,1747
792.68396,1729
792.80304,1666
792.92218,1648
793.041199,1631
793.160339,1622
793.279419,1633
793.398499,1600
793.517578,1601
793.636658,1652
793.755737,1608
793.874817,1620
793.993896,1614
794.112976,1642
794.232056,1622
794.351074,1617
794.470215,1608
794.589233,1597
794.708313,1569
794.827393,1580
794.946411,1612
795.065552,1590
795.18457,1584
795.303589,1594
795.422668,1594
795.541687,1588
795.660767,1601
795.779846,1564
795.898865,1599
796.017883,1556
796.136963,1497
796.255981,1522
796.375061,1550
796.49408,1588
796.613037,1547
796.732117,1513
796.851135,1560
796.970154,1535
797.089233,1535
797.208191,1514
797.327271,1518
797.446228,1513
797.565186,1552
797.684265,1523
797.803223,1501
797.922241,1497
798.04126,1482
798.160278,1501
798.279297,1500
798.398315,1540
798.517273,1509
798.636292,1510
798.75531,1508
798.874268,1560
798.993286,1537
799.112244,1516
799.231323,1524
799.350281,1502
799.469238,1533
799.588257,1470
799.707153,1511
799.826111,1499
799.945129,1530
800.064087,1519
800.183044,1494
800.302063,1481
800.421021,1509
800.539978,1481
800.658936,1496
800.777893,1519
800.896912,1484
801.015747,1509
801.134705,1471
801.253723,1494
801.37262,1487
801.491638,1497
801.610535,1537
801.729492,1542
801.84845,1490
801.967407,1486
802.086243,1471
802.205261,1474
802.324158,1488
802.443115,1474
802.562073,1512
802.680969,1517
802.799927,1467
802.918762,1483
803.037659,1505
803.156677,1478
803.275574,1485
803.39447,1464
803.513428,1521
803.632263,1493
803.751221,1537
803.870117,1469
803.989014,1482
804.107971,1442
804.226746,1492
804.345642,1471
804.4646,1505
804.583496,1474
804.702393,1467
804.821228,1455
804.940125,1486
805.059021,1469
805.177917,1508
805.296814,1471
805.415649,1457
805.534546,1489
805.653442,1463
805.772278,1499
805.891113,1475
806.01001,1469
806.128906,1467
806.247742,1479
806.366577,1483
806.485413,1497
806.604309,1453
806.723145,1509
806.84198,1472
806.960876,1472
807.079712,1526
807.198486,1526
807.317383,1447
807.436218,1472
807.554993,1506
807.673889,1489
807.792725,1511
807.91156,1459
808.030396,1465
808.14917,1441
808.268005,1439
808.386841,1467
808.505676,1432
808.624451,1442
808.743286,1476
808.862122,1460
808.980896,1459
809.099731,1494
809.218506,1440
809.337341,1467
809.456116,1414
809.57489,1506
809.693726,1492
809.8125,1465
809.931274,1481
810.050049,1471
810.168884,1482
810.287659,1469
810.406372,1468
810.525269,1470
810.643982,1424
810.762756,1431
810.881531,1445
811.000305,1466
811.11908,1461
811.237854,1508
811.356567,1412
811.475403,1445
811.594116,1445
811.71283,1423
811.831604,1437
811.950378,1507
812.069153,1436
812.187927,1475
812.30658,1458
812.425415,1465
812.544128,1468
812.662781,1485
812.781616,1451
812.900269,1435
813.019043,1459
813.137756,1499
813.256531,1469
813.375244,1472
813.493896,1442
813.612671,1462
813.731384,1456
813.850037,1431
813.96875,1408
814.087524,1510
814.206238,1472
814.324951,1445
814.443604,1406
814.562256,1466
814.68103,1447
814.799683,1434
814.918335,1448
815.037109,1450
815.155762,1492
815.274475,1436
815.393188,1435
815.511841,1460
815.630554,1428
815.749146,1448
815.867859,1416
815.986572,1447
816.105164,1427
816.223877,1461
816.342529,1428
816.461182,1443
816.579895,1396
816.698486,1417
816.817139,1424
816.935791,1451
817.054504,1421
817.173096,1445
817.291748,1403
817.4104,1446
817.529053,1453
817.647644,1454
817.766235,1403
817.884949,1438
818.00354,1421
818.122192,1398
818.240845,1386
818.359436,1413
818.478088,1392
818.59668,1406
818.715271,1437
818.833923,1381
818.952515,1401
819.071106,1385
819.189758,1336
819.30835,1371
819.426941,1373
819.545532,1366
819.664124,1400
819.782715,1389
819.901306,1449
820.019897,1373
820.138489,1428
820.25708,1369
820.375671,1341
820.494202,1387
820.612732,1382
820.731384,1377
820.849915,1364
820.968506,1386
821.087097,1375
821.205627,1371
821.324158,1375
821.442749,1346
821.561279,1370
821.679871,1345
821.798401,1350
821.916931,1393
822.035461,1365
822.154053,1347
822.272583,1376
822.391174,1350
822.509583,1364
822.628174,1388
822.746704,1369
822.865234,1362
822.983765,1389
823.102295,1334
823.220825,1416
823.339294,1337
823.457825,1350
823.576355,1351
823.694824,1324
823.813354,1303
823.931885,1362
824.050354,1314
824.168884,1392
824.287354,1326
824.405823,1354
824.524353,1322
824.642822,1342
824.761353,1347
824.879822,1369
824.998291,1371
825.116699,1354
825.235291,1358
825.353699,1355
825.472168,1324
825.590637,1348
825.709106,1338
825.827576,1355
825.946045,1298
826.064453,1357
826.182983,1321
826.301392,1311
826.4198,1347
826.53833,1333
826.656738,1376
826.775208,1362
826.893677,1330
827.012024,1332
827.130493,1374
827.248962,1323
827.36731,1326
827.485779,1344
827.604248,1346
827.722595,1348
827.841064,1322
827.959412,1330
828.077942,1302
828.196289,1315
828.314636,1332
828.433105,1309
828.551514,1310
828.669861,1324
828.78833,1313
828.906677,1318
829.025085,1295
829.143433,1314
829.261841,1336
829.38031,1318
829.498657,1283
829.617004,1364
829.735413,1324
829.85376,1323
829.972107,1288
830.090515,1332
830.208862,1337
830.327209,1347
830.445557,1312
830.563904,1303
830.682312,1303
830.800659,1356
830.919006,1351
831.037354,1348
831.155701,1318
831.274048,1314
831.392395,1372
831.51062,1358
831.629028,1334
831.747314,1317
831.865662,1316
831.984009,1307
832.102356,1280
832.220642,1295
832.338928,1280
832.457275,1320
832.575623,1314
832.693909,1351
832.812134,1318
832.930481,1323
833.048828,1300
833.167114,1340
833.2854,1320
833.403687,1363
833.521973,1323
833.640259,1330
833.758545,1307
833.876831,1321
833.995056,1286
834.113281,1324
834.231628,1301
834.349915,1361
834.468201,1316
834.586426,1291
834.704651,1317
834.822998,1337
834.941162,1308
835.059448,1311
835.177673,1313
835.295959,1323
835.414246,1316
835.53241,1267
835.650635,1324
835.768921,1306
835.887146,1331
836.005371,1298
836.123596,1309
836.241821,1286
836.360046,1288
836.478271,1374
836.596497,1268
836.714722,1311
836.832886,1325
836.95105,1303
837.069336,1304
837.1875,1356
837.305725,1322
837.423889,1334
837.542053,1344
837.660339,1311
837.778503,1350
837.896667,1343
838.014832,1300
838.132996,1334
838.25116,1331
838.369385,1364
838.487488,1349
838.605713,1329
838.723877,1326
838.84198,1281
838.960205,1290
839.078308,1294
839.196472,1298
839.314636,1321
839.4328,1310
839.550964,1326
839.669067,1276
839.787231,1311
839.905396,1312
840.023499,1331
840.141602,1283
840.259766,1310
840.377869,1288
840.495972,1343
840.614136,1308
840.732239,1327
840.850342,1293
840.968445,1336
841.086548,1312
841.204651,1302
841.322754,1274
841.440918,1308
841.55896,1309
841.677002,1320
841.795166,1310
841.913208,1304
842.031311,1301
842.149353,1339
842.267456,1324
842.385498,1307
842.503601,1283
842.621643,1325
842.739746,1280
842.857788,1333
842.97583,1301
843.093933,1305
843.211975,1300
843.330017,1319
843.44812,1299
843.566101,1296
843.684204,1308
843.802246,1302
843.920227,1303
844.038269,1350
844.156311,1290
844.274292,1305
844.392395,1301
844.510376,1289
844.628357,1288
844.74646,1288
844.864441,1294
844.982422,1311
845.100403,1295
845.218384,1314
845.336426,1339
845.454468,1334
845.572449,1257
845.69043,1296
845.808411,1287
845.926453,1305
846.044373,1307
846.162354,1309
846.280396,1306
846.398315,1270
846.516296,1345
846.634216,1364
846.752197,1276
846.870178,1283
846.988098,1313
847.106079,1262
847.22406,1268
847.34198,1295
847.4599,1306
847.577881,1298
847.695801,1323
847.813782,1320
847.931641,1296
848.049561,1323
848.167603,1331
848.285461,1256
848.403381,1299
848.521362,1326
848.639221,1281
848.75708,1271
848.875,1307
848.99292,1322
849.110901,1263
849.22876,1290
849.34668,1285
849.464539,1287
849.582458,1287
849.700317,1302
849.818176,1291
849.936096,1262
850.053955,1294
850.171875,1317
850.289673,1322
850.407593,1305
850.525452,1305
850.643311,1320
850.761169,1304
850.878967,1293
850.996887,1329
851.114746,1294
851.232544,1317
851.350403,1263
851.468262,1264
851.58606,1262
851.703979,1292
851.821777,1308
851.939636,1339
852.057434,1268
852.175232,1331
852.293091,1328
852.410889,1306
852.528687,1315
852.646545,1275
852.764343,1291
852.88208,1332
852.999939,1302
853.117676,1268
853.235535,1266
853.353271,1283
853.471069,1292
853.588928,1314
853.706604,1306
853.824402,1329
853.9422,1354
854.059998,1294
854.177734,1321
854.295532,1301
854.413269,1292
854.531006,1279
854.648804,1294
854.766541,1283
854.884277,1300
855.002014,1315
855.119751,1289
855.237549,1319
855.355225,1313
855.473022,1317
855.590698,1270
855.708435,1297
855.826172,1296
855.943848,1293
856.061646,1312
856.179321,1354
856.296997,1325
856.414795,1328
856.53241,1339
856.650085,1303
856.767822,1349
856.885559,1296
857.003174,1342
857.120911,1306
857.238586,1331
857.356201,1256
857.473938,1290
857.591614,1261
857.709351,1335
857.826965,1322
857.944641,1304
858.062317,1312
858.179993,1325
858.297668,1310
858.415283,1313
858.532959,1300
858.650574,1319
858.768188,1310
858.885803,1320
859.003479,1331
859.121094,1306
859.23877,1347
859.356384,1279
859.473999,1301
859.591675,1311
859.709229,1348
859.826843,1277
859.944458,1294
860.062012,1324
860.179626,1322
860.297302,1342
860.414856,1265
860.532471,1296
860.650024,1345
860.767639,1280
860.885193,1309
861.002808,1305
861.120361,1284
861.237976,1333
861.35553,1322
861.473022,1322
861.590698,1317
861.708191,1306
861.825745,1321
861.943298,1301
862.060852,1254
862.178406,1313
862.295959,1290
862.413513,1271
862.531006,1282
862.64856,1327
862.766113,1319
862.883667,1291
863.00116,1311
863.118713,1284
863.236206,1303
863.353699,1284
863.471252,1305
863.588745,1314
863.706177,1289
863.82373,1302
863.941162,1325
864.058716,1336
864.176208,1320
864.29364,1305
864.411194,1335
864.528687,1328
864.646118,1336
864.763611,1343
864.881042,1310
864.998535,1328
865.116028,1331
865.233459,1324
865.350891,1328
865.468384,1356
865.585754,1372
865.703308,1309
865.820679,1325
865.938171,1258
866.055542,1300
866.173035,1298
866.290466,1305
866.407837,1316
866.52533,1273
866.6427,1334
866.760071,1296
866.877563,1351
866.994934,1328
867.112305,1300
867.229736,1329
867.347107,1314
867.464539,1316
867.58197,1359
867.699341,1290
867.81665,1323
867.934082,1363
868.051453,1341
868.168823,1332
868.286194,1312
868.403564,1294
868.520935,1318
868.638306,1313
868.755676,1340
868.872986,1281
868.990295,1330
869.107727,1334
869.225037,1330
869.342346,1327
869.459717,1322
869.577026,1342
869.694336,1268
869.811707,1345
869.929016,1296
870.046326,1352
870.163635,1331
870.280945,1338
870.398254,1384
870.515564,1350
870.632812,1339
870.750183,1339
870.867432,1319
870.984741,1333
871.102051,1357
871.219299,1325
871.336609,1367
871.453918,1349
871.571106,1347
871.688416,1351
871.805664,1313
871.922852,1327
872.040222,1312
872.157471,1312
872.274719,1345
872.391968,1294
872.509155,1316
872.626465,1353
872.743652,1312
872.860962,1358
872.978149,1350
873.095337,1310
873.212646,1328
873.329834,1305
873.44696,1354
873.564209,1352
873.681396,1345
873.798645,1310
873.915894,1309
874.03302,1348
874.150208,1333
874.267456,1308
874.384583,1325
874.501831,1360
874.618958,1297
874.736145,1348
874.853333,1363
874.970459,1344
875.087646,1363
875.204834,1354
875.32196,1310
875.439148,1307
875.556274,1316
875.673401,1315
875.790527,1345
875.907715,1332
876.024841,1329
876.141968,1369
876.259094,1332
876.376282,1355
876.493347,1368
876.610474,1322
876.7276,1376
876.844727,1369
876.961853,1334
877.078918,1333
877.195984,1293
877.313171,1349
877.430237,1303
877.547302,1334
877.664368,1360
877.781433,1327
877.898499,1320
878.015625,1325
878.13269,1301
878.249695,1373
878.366821,1352
878.483887,1332
878.600952,1358
878.717957,1368
878.834961,1365
878.952087,1370
879.069092,1357
879.186157,1353
879.303162,1294
879.420227,1349
879.537231,1332
879.654236,1312
879.77124,1357
879.888306,1343
880.005249,1340
880.122314,1336
880.239319,1348
880.356323,1376
880.473328,1345
880.590271,1353
880.707275,1340
880.824341,1324
880.941284,1350
881.058228,1352
881.175232,1336
881.292236,1318
881.40918,1343
881.526123,1327
881.643066,1297
881.760071,1372
881.877014,1341
881.993958,1351
882.11084,1389
882.227783,1328
882.344727,1335
882.46167,1339
882.578613,1348
882.695618,1344
882.812439,1338
882.929382,1320
883.046326,1348
883.163208,1328
883.280151,1339
883.397034,1348
883.513916,1337
883.630798,1345
883.747742,1348
883.864563,1333
883.981506,1347
884.098389,1335
884.21521,1371
884.332153,1363
884.448975,1355
884.565796,1332
884.682678,1355
884.7995,1385
884.916443,1331
885.033264,1340
885.150085,1388
885.266968,1392
885.383789,1351
885.500671,1370
885.617493,1420
885.734314,1344
885.851196,1433
885.967896,1350
886.084717,1406
886.201599,1384
886.318359,1379
886.435181,1369
886.552002,1414
886.668762,1403
886.785645,1371
886.902344,1373
887.019165,1401
887.135925,1348
887.252747,1393
887.369446,1361
887.486267,1355
887.603027,1382
887.719788,1361
887.836548,1414
887.953247,1332
888.070068,1383
888.186829,1365
888.303528,1362
888.420288,1404
888.536987,1361
888.653687,1360
888.770447,1359
888.887146,1362
889.003967,1397
889.120667,1385
889.237305,1366
889.354065,1397
889.470703,1369
889.587463,1371
889.704163,1382
889.820862,1362
889.937561,1332
890.054199,1370
890.170837,1339
890.287598,1378
890.404236,1358
890.520874,1409
890.637634,1419
890.754211,1404
890.87085,1339
890.987549,1385
891.104187,1367
891.220886,1388
891.337463,1390
891.454102,1366
891.57074,1370
891.687378,1364
891.804077,1391
891.920654,1359
892.037231,1423
892.15387,1356
892.270447,1345
892.387085,1380
892.503723,1345
892.6203,1382
892.736877,1349
892.853516,1373
892.970032,1352
893.08667,1368
893.203186,1391
893.319763,1404
893.43634,1386
893.552917,1414
893.669556,1382
893.786011,1359
893.902588,1365
894.019165,1385
894.135681,1383
894.252197,1389
894.368835,1382
894.485291,1361
894.601868,1367
894.718384,1418
894.8349,1408
894.951355,1431
895.067932,1375
895.184448,1373
895.300964,1430
895.417419,1397
895.533936,1391
895.650452,1371
895.766907,1363
895.883423,1363
895.999878,1400
896.116333,1363
896.232849,1385
896.349304,1374
896.465759,1324
896.582214,1384
896.698669,1438
896.815125,1443
896.931641,1394
897.048035,1413
897.164551,1415
897.280884,1418
897.397339,1367
897.513794,1370
897.630249,1404
897.746582,1401
897.863098,1398
897.979431,1386
898.095886,1405
898.212341,1366
898.328674,1391
898.445129,1406
898.561462,1412
898.677795,1378
898.794312,1396
898.910645,1399
899.026978,1418
899.143433,1418
899.259766,1356
899.37616,1400
899.492493,1402
899.608765,1373
899.725159,1414
899.841553,1390
899.957947,1375
900.07428,1384
900.190552,1388
900.306946,1399
900.423157,1386
900.53949,1394
900.655884,1377
900.772156,1345
900.888489,1404
901.004822,1412
901.121033,1405
901.237366,1401
901.353699,1419
901.46991,1413
901.586304,1415
901.702515,1383
901.818787,1428
901.93512,1413
902.051331,1399
902.167603,1418
902.283875,1403
902.400085,1425
902.516418,1397
902.632629,1437
902.74884,1396
902.865112,1462
902.981384,1409
903.097595,1397
903.213867,1412
903.330017,1446
903.446289,1441
903.5625,1406
903.67865,1396
903.794922,1433
903.911072,1439
904.027344,1412
904.143494,1413
904.259705,1437
904.375916,1455
904.492065,1394
904.608215,1373
904.724426,1427
904.840576,1395
904.956726,1445
905.072876,1425
905.189087,1412
905.305176,1412
905.421387,1426
905.537537,1411
905.653687,1400
905.769775,1437
905.885925,1435
906.002014,1401
906.118164,1375
906.234314,1400
906.350403,1393
906.466492,1430
906.582642,1390
906.69873,1445
906.814758,1404
906.930908,1373
907.046936,1447
907.163086,1392
907.279175,1422
907.395264,1458
907.511353,1435
907.62738,1454
907.743408,1425
907.859497,1443
907.975525,1392
908.091553,1420
908.207703,1449
908.32373,1427
908.439758,1435
908.555786,1397
908.671814,1461
908.787842,1425
908.90387,1394
909.019775,1394
909.135864,1420
909.251892,1446
909.367859,1430
909.483826,1438
909.599854,1453
909.715881,1440
909.831848,1421
909.947815,1428
910.063782,1422
910.179749,1468
910.295776,1423
910.411743,1421
910.527649,1438
910.643616,1444
910.759583,1453
910.875488,1474
910.991455,1454
911.107361,1428
911.223267,1485
911.339294,1417
911.4552,1447
911.571106,1443
911.687073,1433
911.802979,1462
911.918823,1448
912.034729,1456
912.150635,1443
912.266602,1437
912.382446,1425
912.498352,1447
912.614197,1400
912.730103,1470
912.846008,1432
