792.44574,2325
792.56488,2315
792.68396,2206
792.80304,2201
792.92218,2194
793.041199,2143
793.160339,2153
793.279419,2140
793.398499,2056
793.517578,2083
793.636658,2044
793.755737,2112
793.874817,2116
793.993896,2129
794.112976,2073
794.232056,2045
794.351074,2001
794.470215,2055
794.589233,2094
794.708313,2000
794.827393,1992
794.946411,2010
795.065552,2001
795.18457,2001
795.303589,1986
795.422668,1972
795.541687,1947
795.660767,1905
795.779846,1941
795.898865,1933
796.017883,1978
796.136963,1900
796.255981,1973
796.375061,1945
796.49408,1922
796.613037,1963
796.732117,1896
796.851135,1932
796.970154,1950
797.089233,1911
797.208191,1906
797.327271,1830
797.446228,1870
797.565186,1928
797.684265,1924
797.803223,1889
797.922241,1900
798.04126,1866
798.160278,1869
798.279297,1895
798.398315,1908
798.517273,1860
798.636292,1832
798.75531,1876
798.874268,1887
798.993286,1875
799.112244,1864
799.231323,1887
799.350281,1865
799.469238,1907
799.588257,1854
799.707153,1868
799.826111,1874
799.945129,1911
800.064087,1896
800.183044,1879
800.302063,1908
800.421021,1921
800.539978,1897
800.658936,1912
800.777893,1921
800.896912,1865
801.015747,1860
801.134705,1880
801.253723,1905
801.37262,1915
801.491638,1863
801.610535,1896
801.729492,1895
801.84845,1904
801.967407,1881
802.086243,1924
802.205261,1945
802.324158,1955
802.443115,1906
802.562073,1914
802.680969,1932
802.799927,1967
802.918762,1925
803.037659,1884
803.156677,1946
803.275574,1946
803.39447,1973
803.513428,1899
803.632263,1933
803.751221,1913
803.870117,1959
803.989014,1926
804.107971,1963
804.226746,1973
804.345642,1983
804.4646,1971
804.583496,1952
804.702393,1961
804.821228,1974
804.940125,1960
805.059021,1972
805.177917,2011
805.296814,1984
805.415649,1972
805.534546,1962
805.653442,2020
805.772278,1955
805.891113,1968
806.01001,1973
806.128906,2001
806.247742,2029
806.366577,1986
806.485413,2008
806.604309,2041
806.723145,1967
806.84198,2051
806.960876,1940
807.079712,1982
807.198486,1992
807.317383,2032
807.436218,2023
807.554993,2025
807.673889,1976
807.792725,2063
807.91156,2046
808.030396,1985
808.14917,2002
808.268005,2003
808.386841,2049
808.505676,2081
808.624451,2034
808.743286,2016
808.862122,2029
808.980896,2046
809.099731,2055
809.218506,2051
809.337341,2065
809.456116,2033
809.57489,2078
809.693726,2059
809.8125,2089
809.931274,2062
810.050049,2067
810.168884,2080
810.287659,2101
810.406372,2058
810.525269,2045
810.643982,2076
810.762756,2051
810.881531,2081
811.000305,2094
811.11908,2089
811.237854,2044
811.356567,2071
811.475403,2051
811.594116,2057
811.71283,2084
811.831604,2027
811.950378,2062
812.069153,2083
812.187927,2104
812.30658,2051
812.425415,2118
812.544128,2067
812.662781,2108
812.781616,2108
812.900269,2076
813.019043,2043
813.137756,2075
813.256531,2099
813.375244,2071
813.493896,2054
813.612671,2102
813.731384,2020
813.850037,2075
813.96875,2087
814.087524,2033
814.206238,2091
814.324951,2110
814.443604,2028
814.562256,2064
814.68103,2122
814.799683,2039
814.918335,2058
815.037109,2006
815.155762,1996
815.274475,1990
815.393188,2056
815.511841,2009
815.630554,2005
815.749146,2007
815.867859,2030
815.986572,1969
816.105164,1952
816.223877,2007
816.342529,1968
816.461182,2017
816.579895,2004
816.698486,1997
816.817139,2008
816.935791,2054
817.054504,2009
817.173096,2009
817.291748,1992
817.4104,1941
817.529053,1899
817.647644,1900
817.766235,1866
817.884949,1889
818.00354,1798
818.122192,1800
818.240845,1758
818.359436,1730
818.478088,1710
818.59668,1686
818.715271,1639
818.833923,1645
818.952515,1588
819.071106,1562
819.189758,1605
819.30835,1563
819.426941,1568
819.545532,1538
819.664124,1513
819.782715,1532
819.901306,1530
820.019897,1529
820.138489,1473
820.25708,1499
820.375671,1506
820.494202,1486
820.612732,1448
820.731384,1485
820.849915,1457
820.968506,1480
821.087097,1438
821.205627,1456
821.324158,1470
821.442749,1422
821.561279,1488
821.679871,1419
821.798401,1461
821.916931,1446
822.035461,1482
822.154053,1457
822.272583,1445
822.391174,1409
822.509583,1426
822.628174,1474
822.746704,1418
822.865234,1426
822.983765,1428
823.102295,1415
823.220825,1434
823.339294,1397
823.457825,1471
823.576355,1394
823.694824,1463
823.813354,1491
823.931885,1433
824.050354,1445
824.168884,1473
824.287354,1421
824.405823,1444
824.524353,1471
824.642822,1444
824.761353,1463
824.879822,1449
824.998291,1429
825.116699,1478
825.235291,1414
825.353699,1419
825.472168,1435
825.590637,1438
825.709106,1386
825.827576,1420
825.946045,1408
826.064453,1394
826.182983,1394
826.301392,1360
826.4198,1400
826.53833,1386
826.656738,1394
826.775208,1368
826.893677,1384
827.012024,1360
827.130493,1417
827.248962,1358
827.36731,1355
827.485779,1331
827.604248,1367
827.722595,1333
827.841064,1361
827.959412,1343
828.077942,1313
828.196289,1405
828.314636,1322
828.433105,1378
828.551514,1331
828.669861,1342
828.78833,1320
828.906677,1314
829.025085,1328
829.143433,1354
829.261841,1347
829.38031,1352
829.498657,1293
829.617004,1358
829.735413,1310
829.85376,1324
829.972107,1318
830.090515,1302
830.208862,1321
830.327209,1291
830.445557,1331
830.563904,1323
830.682312,1306
830.800659,1365
830.919006,1332
831.037354,1400
831.155701,1343
831.274048,1341
831.392395,1327
831.51062,1325
831.629028,1325
831.747314,1348
831.865662,1302
831.984009,1352
832.102356,1322
832.220642,1338
832.338928,1302
832.457275,1350
832.575623,1294
832.693909,1312
832.812134,1346
832.930481,1355
833.048828,1351
833.167114,1349
833.2854,1353
833.403687,1300
833.521973,1339
833.640259,1307
833.758545,1351
833.876831,1357
833.995056,1376
834.113281,1359
834.231628,1318
834.349915,1344
834.468201,1300
834.586426,1326
834.704651,1352
834.822998,1360
834.941162,1314
835.059448,1338
835.177673,1321
835.295959,1298
835.414246,1357
835.53241,1377
835.650635,1321
835.768921,1332
835.887146,1342
836.005371,1338
836.123596,1366
836.241821,1346
836.360046,1377
836.478271,1340
836.596497,1376
836.714722,1385
836.832886,1374
836.95105,1345
837.069336,1381
837.1875,1398
837.305725,1410
837.423889,1387
837.542053,1435
837.660339,1392
837.778503,1419
837.896667,1423
838.014832,1407
838.132996,1434
838.25116,1389
838.369385,1415
838.487488,1452
838.605713,1389
838.723877,1414
838.84198,1400
838.960205,1398
839.078308,1416
839.196472,1415
839.314636,1409
839.4328,1439
839.550964,1410
839.669067,1408
839.787231,1346
839.905396,1359
840.023499,1405
840.141602,1339
840.259766,1369
840.377869,1407
840.495972,1369
840.614136,1375
840.732239,1372
840.850342,1327
840.968445,1360
841.086548,1359
841.204651,1355
841.322754,1379
841.440918,1323
841.55896,1382
841.677002,1345
841.795166,1346
841.913208,1336
842.031311,1364
842.149353,1333
842.267456,1329
842.385498,1331
842.503601,1291
842.621643,1347
842.739746,1342
842.857788,1317
842.97583,1326
843.093933,1300
843.211975,1329
843.330017,1378
843.44812,1307
843.566101,1315
843.684204,1331
843.802246,1256
843.920227,1326
844.038269,1327
844.156311,1345
844.274292,1315
844.392395,1292
844.510376,1315
844.628357,1286
844.74646,1321
844.864441,1295
844.982422,1275
845.100403,1301
845.218384,1279
845.336426,1283
845.454468,1334
845.572449,1290
845.69043,1323
845.808411,1306
845.926453,1320
846.044373,1335
846.162354,1268
846.280396,1300
846.398315,1294
846.516296,1342
846.634216,1284
846.752197,1298
846.870178,1294
846.988098,1279
847.106079,1305
847.22406,1260
847.34198,1292
847.4599,1301
847.577881,1322
847.695801,1285
847.813782,1280
847.931641,1294
848.049561,1286
848.167603,1291
848.285461,1293
848.403381,1295
848.521362,1293
848.639221,1294
848.75708,1297
848.875,1308
848.99292,1237
849.110901,1306
849.22876,1281
849.34668,1339
849.464539,1291
849.582458,1283
849.700317,1260
849.818176,1287
849.936096,1273
850.053955,1312
850.171875,1250
850.289673,1303
850.407593,1277
850.525452,1312
850.643311,1268
850.761169,1285
850.878967,1313
850.996887,1304
851.114746,1309
851.232544,1283
851.350403,1299
851.468262,1291
851.58606,1301
851.703979,1282
851.821777,1297
851.939636,1319
852.057434,1282
852.175232,1329
852.293091,1334
852.410889,1285
852.528687,1320
852.646545,1328
852.764343,1317
852.88208,1311
852.999939,1317
853.117676,1351
853.235535,1307
853.353271,1337
853.471069,1341
853.588928,1289
853.706604,1324
853.824402,1308
853.9422,1355
854.059998,1343
854.177734,1314
854.295532,1301
854.413269,1325
854.531006,1327
854.648804,1315
854.766541,1333
854.884277,1314
855.002014,1317
855.119751,1335
855.237549,1331
855.355225,1334
855.473022,1339
855.590698,1325
855.708435,1349
855.826172,1337
855.943848,1359
856.061646,1320
856.179321,1337
856.296997,1305
856.414795,1374
856.53241,1324
856.650085,1377
856.767822,1294
856.885559,1341
857.003174,1345
857.120911,1335
857.238586,1308
857.356201,1388
857.473938,1330
857.591614,1363
857.709351,1342
857.826965,1342
857.944641,1324
858.062317,1378
858.179993,1296
858.297668,1320
858.415283,1336
858.532959,1347
858.650574,1365
858.768188,1369
858.885803,1343
859.003479,1330
859.121094,1335
859.23877,1356
859.356384,1326
859.473999,1342
859.591675,1306
859.709229,1363
859.826843,1353
859.944458,1317
860.062012,1322
860.179626,1324
860.297302,1349
860.414856,1294
860.532471,1341
860.650024,1268
860.767639,1324
860.885193,1343
861.002808,1331
861.120361,1311
861.237976,1323
861.35553,1334
861.473022,1342
861.590698,1327
861.708191,1298
861.825745,1307
861.943298,1328
862.060852,1296
862.178406,1311
862.295959,1360
862.413513,1341
862.531006,1290
862.64856,1357
862.766113,1325
862.883667,1293
863.00116,1310
863.118713,1314
863.236206,1320
863.353699,1315
863.471252,1312
863.588745,1326
863.706177,1318
863.82373,1332
863.941162,1335
864.058716,1329
864.176208,1346
864.29364,1348
864.411194,1339
864.528687,1326
864.646118,1371
864.763611,1321
864.881042,1356
864.998535,1338
865.116028,1339
865.233459,1315
865.350891,1298
865.468384,1381
865.585754,1301
865.703308,1327
865.820679,1363
865.938171,1347
866.055542,1343
866.173035,1326
866.290466,1305
866.407837,1304
866.52533,1324
866.6427,1344
866.760071,1320
866.877563,1304
866.994934,1355
867.112305,1336
867.229736,1358
867.347107,1312
867.464539,1319
867.58197,1331
867.699341,1323
867.81665,1299
867.934082,1305
868.051453,1330
868.168823,1324
868.286194,1334
868.403564,1363
868.520935,1336
868.638306,1339
868.755676,1331
868.872986,1308
868.990295,1363
869.107727,1330
869.225037,1405
869.342346,1364
869.459717,1373
869.577026,1348
869.694336,1320
869.811707,1406
869.929016,1329
870.046326,1385
870.163635,1345
870.280945,1356
870.398254,1349
870.515564,1361
870.632812,1338
870.750183,1384
870.867432,1358
870.984741,1340
871.102051,1354
871.219299,1347
871.336609,1363
871.453918,1350
871.571106,1327
871.688416,1360
871.805664,1332
871.922852,1311
872.040222,1339
872.157471,1372
872.274719,1352
872.391968,1350
872.509155,1308
872.626465,1358
872.743652,1319
872.860962,1390
872.978149,1381
873.095337,1335
873.212646,1318
873.329834,1375
873.44696,1354
873.564209,1303
873.681396,1362
873.798645,1357
873.915894,1352
874.03302,1324
874.150208,1387
874.267456,1328
874.384583,1381
874.501831,1359
874.618958,1345
874.736145,1380
874.853333,1332
874.970459,1328
875.087646,1323
875.204834,1357
875.32196,1315
875.439148,1372
875.556274,1337
875.673401,1334
875.790527,1345
875.907715,1333
876.024841,1338
876.141968,1348
876.259094,1365
876.376282,1334
876.493347,1356
876.610474,1370
876.7276,1342
876.844727,1324
876.961853,1343
877.078918,1350
877.195984,1335
877.313171,1311
877.430237,1359
877.547302,1332
877.664368,1359
877.781433,1355
877.898499,1373
878.015625,1380
878.13269,1344
878.249695,1344
878.366821,1361
878.483887,1346
878.600952,1335
878.717957,1339
878.834961,1357
878.952087,1316
879.069092,1390
879.186157,1366
879.303162,1335
879.420227,1337
879.537231,1356
879.654236,1368
879.77124,1334
879.888306,1341
880.005249,1353
880.122314,1334
880.239319,1326
880.356323,1334
880.473328,1339
880.590271,1313
880.707275,1379
880.824341,1350
880.941284,1357
881.058228,1314
881.175232,1340
881.292236,1354
881.40918,1329
881.526123,1332
881.643066,1341
881.760071,1376
881.877014,1353
881.993958,1328
882.11084,1349
882.227783,1411
882.344727,1322
882.46167,1375
882.578613,1337
882.695618,1382
882.812439,1363
882.929382,1364
883.046326,1348
883.163208,1340
883.280151,1357
883.397034,1388
883.513916,1342
883.630798,1352
883.747742,1359
883.864563,1359
883.981506,1337
884.098389,1344
884.21521,1364
884.332153,1349
884.448975,1322
884.565796,1341
884.682678,1394
884.7995,1379
884.916443,1363
885.033264,1398
885.150085,1372
885.266968,1377
885.383789,1393
885.500671,1398
885.617493,1410
885.734314,1404
885.851196,1401
885.967896,1396
886.084717,1387
886.201599,1411
886.318359,1369
886.435181,1426
886.552002,1402
886.668762,1406
886.785645,1413
886.902344,1428
887.019165,1379
887.135925,1383
887.252747,1368
887.369446,1388
887.486267,1380
887.603027,1390
887.719788,1421
887.836548,1372
887.953247,1394
888.070068,1392
888.186829,1377
888.303528,1407
888.420288,1350
888.536987,1359
888.653687,1389
888.770447,1352
888.887146,1359
889.003967,1360
889.120667,1385
889.237305,1400
889.354065,1333
889.470703,1390
889.587463,1373
889.704163,1412
889.820862,1352
889.937561,1377
890.054199,1345
890.170837,1395
890.287598,1403
890.404236,1368
890.520874,1397
890.637634,1371
890.754211,1364
890.87085,1391
890.987549,1375
891.104187,1376
891.220886,1370
891.337463,1373
891.454102,1382
891.57074,1395
891.687378,1336
891.804077,1410
891.920654,1422
892.037231,1408
892.15387,1420
892.270447,1403
892.387085,1400
892.503723,1369
892.6203,1418
892.736877,1373
892.853516,1355
892.970032,1395
893.08667,1384
893.203186,1458
893.319763,1395
893.43634,1401
893.552917,1364
893.669556,1415
893.786011,1385
893.902588,1368
894.019165,1376
894.135681,1407
894.252197,1400
894.368835,1438
894.485291,1358
894.601868,1387
894.718384,1407
894.8349,1400
894.951355,1403
895.067932,1428
895.184448,1418
895.300964,1414
895.417419,1413
895.533936,1408
895.650452,1416
895.766907,1408
895.883423,1383
895.999878,1417
896.116333,1393
896.232849,1374
896.349304,1414
896.465759,1409
896.582214,1388
896.698669,1391
896.815125,1451
896.931641,1412
897.048035,1379
897.164551,1362
897.280884,1409
897.397339,1401
897.513794,1382
897.630249,1419
897.746582,1424
897.863098,1399
897.979431,1418
898.095886,1391
898.212341,1408
898.328674,1428
898.445129,1415
898.561462,1427
898.677795,1400
898.794312,1405
898.910645,1372
899.026978,1439
899.143433,1410
899.259766,1390
899.37616,1430
899.492493,1379
899.608765,1397
899.725159,1410
899.841553,1426
899.957947,1422
900.07428,1408
900.190552,1384
900.306946,1427
900.423157,1407
900.53949,1423
900.655884,1408
900.772156,1444
900.888489,1432
901.004822,1399
901.121033,1413
901.237366,1363
901.353699,1410
901.46991,1448
901.586304,1440
901.702515,1412
901.818787,1454
901.93512,1441
902.051331,1421
902.167603,1408
902.283875,1439
902.400085,1414
902.516418,1427
902.632629,1478
902.74884,1460
902.865112,1433
902.981384,1465
903.097595,1473
903.213867,1470
903.330017,1460
903.446289,1437
903.5625,1486
903.67865,1432
903.794922,1486
903.911072,1474
904.027344,1430
904.143494,1421
904.259705,1426
904.375916,1465
904.492065,1430
904.608215,1446
904.724426,1429
904.840576,1480
904.956726,1417
905.072876,1456
905.189087,1405
905.305176,1464
905.421387,1456
905.537537,1402
905.653687,1453
905.769775,1415
905.885925,1466
906.002014,1461
906.118164,1422
906.234314,1427
906.350403,1433
906.466492,1446
906.582642,1462
906.69873,1443
906.814758,1417
906.930908,1437
907.046936,1408
907.163086,1417
907.279175,1430
907.395264,1409
907.511353,1455
907.62738,1440
907.743408,1448
907.859497,1461
907.975525,1442
908.091553,1422
908.207703,1449
908.32373,1443
908.439758,1416
908.555786,1439
908.671814,1409
908.787842,1457
908.90387,1412
909.019775,1442
909.135864,1470
909.251892,1428
909.367859,1455
909.483826,1467
909.599854,1465
909.715881,1438
909.831848,1463
909.947815,1418
910.063782,1449
910.179749,1437
910.295776,1403
910.411743,1422
910.527649,1455
910.643616,1416
910.759583,1417
910.875488,1411
910.991455,1481
911.107361,1476
911.223267,1450
911.339294,1464
911.4552,1508
911.571106,1437
911.687073,1435
911.802979,1443
911.918823,1442
912.034729,1461
912.150635,1396
912.266602,1432
912.382446,1461
912.498352,1417
912.614197,1477
912.730103,1449
912.846008,1449
792.44574,2327
792.56488,2277
792.68396,2266
792.80304,2285
792.92218,2243
793.041199,2235
793.160339,2180
793.279419,2198
793.398499,2189
793.517578,2125
793.636658,2142
793.755737,2148
793.874817,2114
793.993896,2094
794.112976,2111
794.232056,2105
794.351074,2111
794.470215,2081
794.589233,2042
794.708313,2010
794.827393,1994
794.946411,2009
795.065552,2018
795.18457,2013
795.303589,2021
795.422668,2011
795.541687,2027
795.660767,1986
795.779846,1984
795.898865,1994
796.017883,2043
796.136963,1940
796.255981,1984
796.375061,1958
796.49408,1957
796.613037,2010
796.732117,2052
796.851135,1964
796.970154,1978
797.089233,1912
797.208191,1922
797.327271,1984
797.446228,1938
797.565186,1988
797.684265,1954
797.803223,1926
797.922241,1923
798.04126,1932
798.160278,1952
798.279297,1935
798.398315,1905
798.517273,1945
798.636292,1893
798.75531,1930
798.874268,1917
798.993286,1930
799.112244,1860
799.231323,1892
799.350281,1901
799.469238,1927
799.588257,1969
799.707153,1868
799.826111,1949
799.945129,1944
800.064087,1888
800.183044,1935
800.302063,1902
800.421021,1914
800.539978,1875
800.658936,1919
800.777893,1890
800.896912,1917
801.015747,1954
801.134705,1874
801.253723,1945
801.37262,1950
801.491638,1924
801.610535,1945
801.729492,1988
801.84845,1862
801.967407,1956
802.086243,1923
802.205261,1919
802.324158,1965
802.443115,1950
802.562073,1920
802.680969,1955
802.799927,1964
802.918762,1972
803.037659,1943
803.156677,1964
803.275574,1974
803.39447,1938
803.513428,1974
803.632263,1964
803.751221,1944
803.870117,1968
803.989014,2052
804.107971,1972
804.226746,1959
804.345642,1967
804.4646,2009
804.583496,2006
804.702393,1967
804.821228,2037
804.940125,1962
805.059021,2000
805.177917,2050
805.296814,2022
805.415649,2042
805.534546,1994
805.653442,2019
805.772278,2040
805.891113,2051
806.01001,2032
806.128906,2066
806.247742,2072
806.366577,2021
806.485413,2030
806.604309,2055
806.723145,2012
806.84198,2021
806.960876,1975
807.079712,2025
807.198486,2055
807.317383,2082
807.436218,2030
807.554993,2058
807.673889,2105
807.792725,2063
807.91156,2067
808.030396,2055
808.14917,2018
808.268005,2034
808.386841,2038
808.505676,2065
808.624451,2049
808.743286,2058
808.862122,2042
808.980896,2024
809.099731,2069
809.218506,2081
809.337341,2094
809.456116,2087
809.57489,2101
809.693726,2123
809.8125,2088
809.931274,2135
810.050049,2168
810.168884,2070
810.287659,2085
810.406372,2024
810.525269,2062
810.643982,2107
810.762756,2120
810.881531,2106
811.000305,2088
811.11908,2112
811.237854,2101
811.356567,2078
811.475403,2100
811.594116,2083
811.71283,2180
811.831604,2102
811.950378,2123
812.069153,2138
812.187927,2153
812.30658,2130
812.425415,2132
812.544128,2102
812.662781,2047
812.781616,2109
812.900269,2131
813.019043,2100
813.137756,2135
813.256531,2129
813.375244,2089
813.493896,2111
813.612671,2094
813.731384,2076
813.850037,2107
813.96875,2142
814.087524,2153
814.206238,2094
814.324951,2106
814.443604,2079
814.562256,2105
814.68103,4550
814.799683,2030
814.918335,2065
815.037109,2053
815.155762,2046
815.274475,2050
815.393188,2010
815.511841,2024
815.630554,2082
815.749146,2014
815.867859,2044
815.986572,2030
816.105164,1983
816.223877,2023
816.342529,1940
816.461182,2011
816.579895,2068
816.698486,2094
816.817139,2038
816.935791,2058
817.054504,2026
817.173096,2034
817.291748,2015
817.4104,2005
817.529053,2007
817.647644,1985
817.766235,1898
817.884949,1884
818.00354,1840
818.122192,1749
818.240845,1793
818.359436,1730
818.478088,1751
818.59668,1719
818.715271,1733
818.833923,1656
818.952515,1644
819.071106,1572
819.189758,1614
819.30835,1565
819.426941,1557
819.545532,2195
819.664124,3077
819.782715,4665
819.901306,1519
820.019897,1567
820.138489,1541
820.25708,1523
820.375671,1508
820.494202,1522
820.612732,1572
820.731384,1553
820.849915,1493
820.968506,1484
821.087097,1514
821.205627,1473
821.324158,1479
821.442749,1518
821.561279,1482
821.679871,1495
821.798401,1465
821.916931,1460
822.035461,1472
822.154053,1490
822.272583,1480
822.391174,1442
822.509583,1437
822.628174,1452
822.746704,1463
822.865234,1457
822.983765,1487
823.102295,1481
823.220825,1447
823.339294,1460
823.457825,1469
823.576355,1456
823.694824,1447
823.813354,1458
823.931885,1425
824.050354,1506
824.168884,1458
824.287354,1461
824.405823,1523
824.524353,1498
824.642822,1484
824.761353,1504
824.879822,1488
824.998291,1475
825.116699,1487
825.235291,1487
825.353699,1478
825.472168,1426
825.590637,1477
825.709106,1466
825.827576,1429
825.946045,1465
826.064453,1400
826.182983,1444
826.301392,1403
826.4198,1411
826.53833,1431
826.656738,1425
826.775208,1419
826.893677,1419
827.012024,1406
827.130493,1425
827.248962,1340
827.36731,1395
827.485779,1349
827.604248,1385
827.722595,1397
827.841064,1372
827.959412,1384
828.077942,1341
828.196289,1375
828.314636,1400
828.433105,1346
828.551514,1392
828.669861,1336
828.78833,1325
828.906677,1348
829.025085,1379
829.143433,1337
829.261841,1352
829.38031,1363
829.498657,1387
829.617004,1334
829.735413,1355
829.85376,1333
829.972107,1382
830.090515,1364
830.208862,1341
830.327209,1325
830.445557,1351
830.563904,1358
830.682312,1334
830.800659,1356
830.919006,1386
831.037354,1379
831.155701,1360
831.274048,1358
831.392395,1341
831.51062,1359
831.629028,1351
831.747314,1347
831.865662,1374
831.984009,1359
832.102356,1356
832.220642,1357
832.338928,1363
832.457275,1361
832.575623,1334
832.693909,1343
832.812134,1337
832.930481,1337
833.048828,1355
833.167114,1321
833.2854,1357
833.403687,1351
833.521973,1368
833.640259,1360
833.758545,1346
833.876831,1360
833.995056,1356
834.113281,1401
834.231628,1347
834.349915,1342
834.468201,1363
834.586426,1356
834.704651,1305
834.822998,1322
834.941162,1385
835.059448,1343
835.177673,1411
835.295959,1343
835.414246,1371
835.53241,1370
835.650635,1376
835.768921,1376
835.887146,1397
836.005371,1392
836.123596,1381
836.241821,1405
836.360046,1357
836.478271,1390
836.596497,1385
836.714722,1384
836.832886,1419
836.95105,1427
837.069336,1438
837.1875,1396
837.305725,1475
837.423889,1411
837.542053,1433
837.660339,1421
837.778503,1419
837.896667,1411
838.014832,1449
838.132996,1389
838.25116,1423
838.369385,1422
838.487488,1416
838.605713,1405
838.723877,1443
838.84198,1428
838.960205,1445
839.078308,1427
839.196472,1400
839.314636,1432
839.4328,1422
839.550964,1459
839.669067,1421
839.787231,1418
839.905396,1447
840.023499,1432
840.141602,1379
840.259766,1418
840.377869,1337
840.495972,1379
840.614136,1395
840.732239,1403
840.850342,1399
840.968445,1382
841.086548,1365
841.204651,1353
841.322754,1373
841.440918,1340
841.55896,1407
841.677002,1355
841.795166,1357
841.913208,1387
842.031311,1372
842.149353,1362
842.267456,1352
842.385498,1352
842.503601,1326
842.621643,1351
842.739746,1349
842.857788,1373
842.97583,1313
843.093933,1324
843.211975,1377
843.330017,1351
843.44812,1368
843.566101,1331
843.684204,1359
843.802246,1327
843.920227,1353
844.038269,1359
844.156311,1286
844.274292,1344
844.392395,1324
844.510376,1317
844.628357,1344
844.74646,1311
844.864441,1318
844.982422,1351
845.100403,1313
845.218384,1309
845.336426,1326
845.454468,1326
845.572449,1342
845.69043,1333
845.808411,1305
845.926453,1314
846.044373,1319
846.162354,1311
846.280396,1335
846.398315,1343
846.516296,1321
846.634216,1312
846.752197,1275
846.870178,1310
846.988098,1300
847.106079,1319
847.22406,1318
847.34198,1280
847.4599,1357
847.577881,1324
847.695801,1326
847.813782,1305
847.931641,1338
848.049561,1309
848.167603,1322
848.285461,1345
848.403381,1320
848.521362,1330
848.639221,1334
848.75708,1325
848.875,1340
848.99292,1311
849.110901,1325
849.22876,1312
849.34668,1331
849.464539,1295
849.582458,1338
849.700317,1301
849.818176,1277
849.936096,1364
850.053955,1284
850.171875,1325
850.289673,1343
850.407593,1296
850.525452,1321
850.643311,1303
850.761169,1368
850.878967,1295
850.996887,1343
851.114746,1311
851.232544,1319
851.350403,1305
851.468262,1336
851.58606,1289
851.703979,1327
851.821777,1354
851.939636,1335
852.057434,1307
852.175232,1361
852.293091,1328
852.410889,1367
852.528687,1313
852.646545,1359
852.764343,1368
852.88208,1350
852.999939,1343
853.117676,1338
853.235535,1334
853.353271,1387
853.471069,1359
853.588928,1385
853.706604,1359
853.824402,1349
853.9422,1367
854.059998,1353
854.177734,1329
854.295532,1304
854.413269,1385
854.531006,1366
854.648804,1340
854.766541,1316
854.884277,1332
855.002014,1359
855.119751,1420
855.237549,1363
855.355225,1377
855.473022,1334
855.590698,1332
855.708435,1361
855.826172,1328
855.943848,1328
856.061646,1365
856.179321,1367
856.296997,1347
856.414795,1334
856.53241,1369
856.650085,1407
856.767822,1379
856.885559,1369
857.003174,1303
857.120911,1397
857.238586,1380
857.356201,1385
857.473938,1353
857.591614,1370
857.709351,1363
857.826965,1368
857.944641,1383
858.062317,1400
858.179993,1342
858.297668,1371
858.415283,1315
858.532959,1358
858.650574,1386
858.768188,1395
858.885803,1318
859.003479,1390
859.121094,1333
859.23877,1343
859.356384,1350
859.473999,1366
859.591675,1359
859.709229,1350
859.826843,1383
859.944458,1330
860.062012,1339
860.179626,1373
860.297302,1354
860.414856,1345
860.532471,1328
860.650024,1376
860.767639,1314
860.885193,1333
861.002808,1318
861.120361,1326
861.237976,1349
861.35553,1330
861.473022,1324
861.590698,1333
861.708191,1340
861.825745,1350
861.943298,1349
862.060852,1349
862.178406,1314
862.295959,1354
862.413513,1333
862.531006,1345
862.64856,1385
862.766113,1295
862.883667,1351
863.00116,1339
863.118713,1353
863.236206,1297
863.353699,1321
863.471252,1362
863.588745,1347
863.706177,1386
863.82373,1362
863.941162,1374
864.058716,1347
864.176208,1380
864.29364,1386
864.411194,1366
864.528687,1324
864.646118,1340
864.763611,1375
864.881042,1338
864.998535,1352
865.116028,1338
865.233459,1358
865.350891,1362
865.468384,1348
865.585754,1333
865.703308,1359
865.820679,1340
865.938171,1345
866.055542,1358
866.173035,1347
866.290466,1365
866.407837,1339
866.52533,1372
866.6427,1373
866.760071,1366
866.877563,1348
866.994934,1392
867.112305,1356
867.229736,1356
867.347107,1361
867.464539,1372
867.58197,1368
867.699341,1369
867.81665,1375
867.934082,1355
868.051453,1343
868.168823,1396
868.286194,1384
868.403564,1379
868.520935,1347
868.638306,1364
868.755676,1346
868.872986,1335
868.990295,1354
869.107727,1346
869.225037,1395
869.342346,1367
869.459717,1358
869.577026,1400
869.694336,1360
869.811707,1329
869.929016,1360
870.046326,1436
870.163635,1384
870.280945,1369
870.398254,1397
870.515564,1381
870.632812,1383
870.750183,1398
870.867432,1337
870.984741,1352
871.102051,1361
871.219299,1330
871.336609,1348
871.453918,1421
871.571106,1377
871.688416,1402
871.805664,1357
871.922852,1374
872.040222,1378
872.157471,1418
872.274719,1385
872.391968,1393
872.509155,1383
872.626465,1328
872.743652,1391
872.860962,1357
872.978149,1392
873.095337,1375
873.212646,1395
873.329834,1351
873.44696,1357
873.564209,1367
873.681396,1392
873.798645,1385
873.915894,1407
874.03302,1402
874.150208,1389
874.267456,1362
874.384583,1359
874.501831,1365
874.618958,1388
874.736145,1387
874.853333,1385
874.970459,1399
875.087646,1386
875.204834,1357
875.32196,1383
875.439148,1387
875.556274,1398
875.673401,1404
875.790527,1399
875.907715,1369
876.024841,1322
876.141968,1366
876.259094,1380
876.376282,1367
876.493347,1382
876.610474,1373
876.7276,1353
876.844727,1375
876.961853,1363
877.078918,1379
877.195984,1364
877.313171,1407
877.430237,1358
877.547302,1414
877.664368,1388
877.781433,1340
877.898499,1371
878.015625,1376
878.13269,1373
878.249695,1411
878.366821,1397
878.483887,1365
878.600952,1373
878.717957,1335
878.834961,1384
878.952087,1386
879.069092,1376
879.186157,1376
879.303162,1338
879.420227,1392
879.537231,1370
879.654236,1339
879.77124,1383
879.888306,1390
880.005249,1403
880.122314,1401
880.239319,1393
880.356323,1359
880.473328,1328
880.590271,1371
880.707275,1357
880.824341,1359
880.941284,1343
881.058228,1341
881.175232,1372
881.292236,1358
881.40918,1360
881.526123,1394
881.643066,1366
881.760071,1339
881.877014,1406
881.993958,1362
882.11084,1330
882.227783,1363
882.344727,1394
882.46167,1358
882.578613,1363
882.695618,1386
882.812439,1379
882.929382,1331
883.046326,1384
883.163208,1387
883.280151,1373
883.397034,1380
883.513916,1379
883.630798,1406
883.747742,1389
883.864563,1434
883.981506,1344
884.098389,1362
884.21521,1444
884.332153,1392
884.448975,1375
884.565796,1422
884.682678,1416
884.7995,1420
884.916443,1412
885.033264,1402
885.150085,1439
885.266968,1429
885.383789,1433
885.500671,1473
885.617493,1404
885.734314,1449
885.851196,1407
885.967896,1416
886.084717,1404
886.201599,1457
886.318359,1397
886.435181,1413
886.552002,1496
886.668762,1448
886.785645,1439
886.902344,1468
887.019165,1368
887.135925,1450
887.252747,1384
887.369446,1400
887.486267,1423
887.603027,1466
887.719788,1390
887.836548,1400
887.953247,1414
888.070068,1418
888.186829,1414
888.303528,1406
888.420288,1423
888.536987,1402
888.653687,1427
888.770447,1396
888.887146,1396
889.003967,1390
889.120667,1447
889.237305,1421
889.354065,1402
889.470703,1396
889.587463,1351
889.704163,1425
889.820862,1380
889.937561,1402
890.054199,1409
890.170837,1432
890.287598,1378
890.404236,1424
890.520874,1413
890.637634,1396
890.754211,1434
890.87085,1395
890.987549,1378
891.104187,1455
891.220886,1430
891.337463,1412
891.454102,1407
891.57074,1396
891.687378,1393
891.804077,1446
891.920654,1471
892.037231,1442
892.15387,1399
892.270447,1388
892.387085,1476
892.503723,1391
892.6203,1388
892.736877,1401
892.853516,1377
892.970032,1412
893.08667,1413
893.203186,1400
893.319763,1387
893.43634,1434
893.552917,1482
893.669556,1378
893.786011,1405
893.902588,1397
894.019165,1434
894.135681,1425
894.252197,1407
894.368835,1421
894.485291,1393
894.601868,1457
894.718384,1464
894.8349,1467
894.951355,1408
895.067932,1421
895.184448,1412
895.300964,1475
895.417419,1423
895.533936,1459
895.650452,1435
895.766907,1425
895.883423,1436
895.999878,1426
896.116333,1424
896.232849,1454
896.349304,1443
896.465759,1460
896.582214,1489
896.698669,1400
896.815125,1432
896.931641,1473
897.048035,1423
897.164551,1451
897.280884,1418
897.397339,1456
897.513794,1458
897.630249,1425
897.746582,1453
897.863098,1423
897.979431,1491
898.095886,1458
898.212341,1451
898.328674,1466
898.445129,1399
898.561462,1511
898.677795,1406
898.794312,1455
898.910645,1440
899.026978,1425
899.143433,1448
899.259766,1415
899.37616,1467
899.492493,1431
899.608765,1426
899.725159,1465
899.841553,1456
899.957947,1446
900.07428,1436
900.190552,1462
900.306946,1463
900.423157,1445
900.53949,1455
900.655884,1486
900.772156,1431
900.888489,1462
901.004822,1391
901.121033,1485
901.237366,1441
901.353699,1474
901.46991,1436
901.586304,1451
901.702515,1513
901.818787,1430
901.93512,1452
902.051331,1489
902.167603,1480
902.283875,1423
902.400085,1473
902.516418,1494
902.632629,1470
902.74884,1518
902.865112,1479
902.981384,1491
903.097595,1459
903.213867,1513
903.330017,1476
903.446289,1499
903.5625,1464
903.67865,1478
903.794922,1441
903.911072,1469
904.027344,1451
904.143494,1460
904.259705,1443
904.375916,1463
904.492065,1446
904.608215,1500
904.724426,1485
904.840576,1500
904.956726,1418
905.072876,1487
905.189087,1468
905.305176,1472
905.421387,1539
905.537537,1511
905.653687,1437
905.769775,1481
905.885925,1474
906.002014,1482
906.118164,1465
906.234314,1464
906.350403,1474
906.466492,1480
906.582642,1463
906.69873,1499
906.814758,1484
906.930908,1471
907.046936,1462
907.163086,1458
907.279175,1475
907.395264,1473
907.511353,1443
907.62738,1460
907.743408,1457
907.859497,1453
907.975525,1490
908.091553,1489
908.207703,1483
908.32373,1484
908.439758,1474
908.555786,1477
908.671814,1456
908.787842,1496
908.90387,1449
909.019775,1515
909.135864,1447
909.251892,1487
909.367859,1458
909.483826,1486
909.599854,1498
909.715881,1451
909.831848,1487
909.947815,1463
910.063782,1472
910.179749,1468
910.295776,1471
910.411743,1500
910.527649,1455
910.643616,1510
910.759583,1490
910.875488,1461
910.991455,1489
911.107361,1535
911.223267,1476
911.339294,1486
911.4552,1473
911.571106,1472
911.687073,1501
911.802979,1446
911.918823,1478
912.034729,1507
912.150635,1495
912.266602,1490
912.382446,1489
912.498352,1452
912.614197,1494
912.730103,1472
912.846008,1498
792.44574,2372
792.56488,2311
792.68396,2335
792.80304,2215
792.92218,2273
793.041199,2199
793.160339,2187
793.279419,2185
793.398499,2201
793.517578,2181
793.636658,2148
793.755737,2152
793.874817,2131
793.993896,2127
794.112976,2082
794.232056,2067
794.351074,2087
794.470215,2103
794.589233,2047
794.708313,2065
794.827393,2041
794.946411,2054
795.065552,2074
795.18457,2002
795.303589,2061
795.422668,2042
795.541687,2019
795.660767,2009
795.779846,2004
795.898865,1963
796.017883,2002
796.136963,1993
796.255981,2004
796.375061,1989
796.49408,1970
796.613037,2019
796.732117,1978
796.851135,1939
796.970154,1964
797.089233,1904
797.208191,1925
797.327271,1919
797.446228,1942
797.565186,1909
797.684265,1972
797.803223,1927
797.922241,1969
798.04126,1935
798.160278,1960
798.279297,1961
798.398315,1886
798.517273,1946
798.636292,1960
798.75531,1928
798.874268,1932
798.993286,1908
799.112244,1926
799.231323,1939
799.350281,1914
799.469238,1942
799.588257,1983
799.707153,1922
799.826111,1944
799.945129,1902
800.064087,1946
800.183044,1953
800.302063,1857
800.421021,1970
800.539978,1927
800.658936,1903
800.777893,1943
800.896912,1945
801.015747,1933
801.134705,1949
801.253723,1965
801.37262,1947
801.491638,1981
801.610535,1949
801.729492,1943
801.84845,1976
801.967407,1923
802.086243,1964
802.205261,1966
802.324158,1947
802.443115,1955
802.562073,1988
802.680969,2056
802.799927,1939
802.918762,1965
803.037659,1923
803.156677,1981
803.275574,2008
803.39447,1980
803.513428,1994
803.632263,2012
803.751221,1938
803.870117,2004
803.989014,1963
804.107971,2002
804.226746,2015
804.345642,1995
804.4646,1968
804.583496,1973
804.702393,1993
804.821228,1990
804.940125,2008
805.059021,2050
805.177917,2046
805.296814,2006
805.415649,2054
805.534546,2053
805.653442,2021
805.772278,2069
805.891113,2057
806.01001,2054
806.128906,2040
806.247742,2052
806.366577,2042
806.485413,2046
806.604309,2096
806.723145,2023
806.84198,2017
806.960876,2066
807.079712,2040
807.198486,2066
807.317383,2019
807.436218,2073
807.554993,2052
807.673889,2059
807.792725,2023
807.91156,2080
808.030396,2074
808.14917,2060
808.268005,2063
808.386841,2092
808.505676,2113
808.624451,2077
808.743286,2063
808.862122,2087
808.980896,2091
809.099731,2038
809.218506,2088
809.337341,2054
809.456116,2122
809.57489,2065
809.693726,2138
809.8125,2156
809.931274,2111
810.050049,2109
810.168884,2119
810.287659,2132
810.406372,2128
810.525269,2127
810.643982,2138
810.762756,2130
810.881531,2140
811.000305,2085
811.11908,2130
811.237854,2108
811.356567,2081
811.475403,2127
811.594116,2099
811.71283,2118
811.831604,2113
811.950378,2142
812.069153,2144
812.187927,2133
812.30658,2131
812.425415,2134
812.544128,2121
812.662781,2136
812.781616,2121
812.900269,2163
813.019043,2158
813.137756,2136
813.256531,2162
813.375244,2122
813.493896,2104
813.612671,2120
813.731384,2112
813.850037,2116
813.96875,2117
814.087524,2141
814.206238,2085
814.324951,2166
814.443604,2075
814.562256,2096
814.68103,2129
814.799683,2076
814.918335,2087
815.037109,2092
815.155762,2074
815.274475,2094
815.393188,2025
815.511841,2077
815.630554,2068
815.749146,2014
815.867859,2010
815.986572,2016
816.105164,1983
816.223877,2032
816.342529,2021
816.461182,2006
816.579895,1988
816.698486,1994
816.817139,2040
816.935791,2087
817.054504,2033
817.173096,2067
817.291748,2022
817.4104,2035
817.529053,1975
817.647644,1882
817.766235,1905
817.884949,1897
818.00354,1872
818.122192,1875
818.240845,1750
818.359436,1728
818.478088,1779
818.59668,1708
818.715271,1713
818.833923,1682
818.952515,1635
819.071106,1661
819.189758,1651
819.30835,1611
819.426941,1654
819.545532,1595
819.664124,1611
819.782715,1563
819.901306,1560
820.019897,1511
820.138489,1551
820.25708,1519
820.375671,1528
820.494202,1532
820.612732,1544
820.731384,1537
820.849915,1463
820.968506,1552
821.087097,1520
821.205627,1488
821.324158,1513
821.442749,1498
821.561279,1469
821.679871,1478
821.798401,1534
821.916931,1513
822.035461,1478
822.154053,1467
822.272583,1465
822.391174,1467
822.509583,1519
822.628174,1491
822.746704,1432
822.865234,1503
822.983765,1463
823.102295,1461
823.220825,1493
823.339294,1451
823.457825,1466
823.576355,1440
823.694824,1510
823.813354,1443
823.931885,1484
824.050354,1514
824.168884,1478
824.287354,1492
824.405823,1497
824.524353,1524
824.642822,1521
824.761353,1453
824.879822,1516
824.998291,1471
825.116699,1455
825.235291,1481
825.353699,1523
825.472168,1438
825.590637,1463
825.709106,1456
825.827576,1417
825.946045,1464
826.064453,1398
826.182983,1443
826.301392,1448
826.4198,1405
826.53833,1406
826.656738,1422
826.775208,1427
826.893677,1421
827.012024,1400
827.130493,1459
827.248962,1423
827.36731,1380
827.485779,1416
827.604248,1371
827.722595,1397
827.841064,1358
827.959412,1390
828.077942,1403
828.196289,1421
828.314636,1412
828.433105,1403
828.551514,1399
828.669861,1355
828.78833,1355
828.906677,1387
829.025085,1350
829.143433,1383
829.261841,1394
829.38031,1354
829.498657,1380
829.617004,1379
829.735413,1401
829.85376,1349
829.972107,1388
830.090515,1380
830.208862,1360
830.327209,1324
830.445557,1378
830.563904,1337
830.682312,1351
830.800659,1407
830.919006,1370
831.037354,1386
831.155701,1347
831.274048,1381
831.392395,1368
831.51062,1417
831.629028,1343
831.747314,1370
831.865662,1391
831.984009,1400
832.102356,1381
832.220642,1377
832.338928,1355
832.457275,1366
832.575623,1396
832.693909,1341
832.812134,1378
832.930481,1383
833.048828,1332
833.167114,1356
833.2854,1341
833.403687,1390
833.521973,1309
833.640259,1331
833.758545,1378
833.876831,1375
833.995056,1345
834.113281,1399
834.231628,1411
834.349915,1355
834.468201,1364
834.586426,1355
834.704651,1368
834.822998,1390
834.941162,1390
835.059448,1364
835.177673,1397
835.295959,1369
835.414246,1378
835.53241,1372
835.650635,1382
835.768921,1369
835.887146,1416
836.005371,1369
836.123596,1380
836.241821,1398
836.360046,1396
836.478271,1429
836.596497,1458
836.714722,1430
836.832886,1434
836.95105,1435
837.069336,1453
837.1875,1438
837.305725,1420
837.423889,1408
837.542053,1413
837.660339,1436
837.778503,1460
837.896667,1460
838.014832,1433
838.132996,1419
838.25116,1446
838.369385,1422
838.487488,1420
838.605713,1448
838.723877,1434
838.84198,1454
838.960205,1438
839.078308,1430
839.196472,1421
839.314636,1429
839.4328,1461
839.550964,1384
839.669067,1393
839.787231,1426
839.905396,1376
840.023499,1425
840.141602,1413
840.259766,1386
840.377869,1382
840.495972,1422
840.614136,1444
840.732239,1407
840.850342,1412
840.968445,1365
841.086548,1387
841.204651,1353
841.322754,1394
841.440918,1398
841.55896,1418
841.677002,1401
841.795166,1394
841.913208,1376
842.031311,1393
842.149353,1401
842.267456,1342
842.385498,1395
842.503601,1354
842.621643,1353
842.739746,1313
842.857788,1296
842.97583,1387
843.093933,1328
843.211975,1357
843.330017,1348
843.44812,1371
843.566101,1312
843.684204,1340
843.802246,1364
843.920227,1367
844.038269,1364
844.156311,1367
844.274292,1348
844.392395,1360
844.510376,1355
844.628357,1341
844.74646,1366
844.864441,1334
844.982422,1329
845.100403,1370
845.218384,1343
845.336426,1346
845.454468,1333
845.572449,1325
845.69043,1361
845.808411,1328
845.926453,1319
846.044373,1293
846.162354,1324
846.280396,1366
846.398315,1334
846.516296,1342
846.634216,1331
846.752197,1355
846.870178,1332
846.988098,1347
847.106079,1332
847.22406,1349
847.34198,1366
847.4599,1387
847.577881,1357
847.695801,1355
847.813782,1339
847.931641,1313
848.049561,1338
848.167603,1376
848.285461,1324
848.403381,1316
848.521362,1327
848.639221,1322
848.75708,1324
848.875,1318
848.99292,1339
849.110901,1306
849.22876,1353
849.34668,1304
849.464539,1319
849.582458,1333
849.700317,1330
849.818176,1353
849.936096,1333
850.053955,1312
850.171875,1333
850.289673,1364
850.407593,1305
850.525452,1335
850.643311,1317
850.761169,1323
850.878967,1345
850.996887,1391
851.114746,1332
851.232544,1354
851.350403,1341
851.468262,1320
851.58606,1342
851.703979,1331
851.821777,1349
851.939636,1325
852.057434,1277
852.175232,1338
852.293091,1346
852.410889,1419
852.528687,1392
852.646545,1342
852.764343,1319
852.88208,1346
852.999939,1344
853.117676,1381
853.235535,1375
853.353271,1336
853.471069,1404
853.588928,1359
853.706604,1313
853.824402,1372
853.9422,1331
854.059998,1363
854.177734,1355
854.295532,1352
854.413269,1328
854.531006,1366
854.648804,1377
854.766541,1360
854.884277,1356
855.002014,1393
855.119751,1406
855.237549,1359
855.355225,1351
855.473022,1377
855.590698,1393
855.708435,1366
855.826172,1373
855.943848,1360
856.061646,1380
856.179321,1331
856.296997,1370
856.414795,1390
856.53241,1352
856.650085,1390
856.767822,1348
856.885559,1413
857.003174,1382
857.120911,1418
857.238586,1339
857.356201,1365
857.473938,1380
857.591614,1395
857.709351,1374
857.826965,1351
857.944641,1364
858.062317,1406
858.179993,1402
858.297668,1402
858.415283,1418
858.532959,1357
858.650574,1386
858.768188,1376
858.885803,1382
859.003479,1358
859.121094,1363
859.23877,1368
859.356384,1406
859.473999,1362
859.591675,1353
859.709229,1363
859.826843,1367
859.944458,1380
860.062012,1346
860.179626,1361
860.297302,1365
860.414856,1349
860.532471,1345
860.650024,1361
860.767639,1329
860.885193,1357
861.002808,1345
861.120361,1393
861.237976,1367
861.35553,1322
861.473022,1399
861.590698,1361
861.708191,1371
861.825745,1388
861.943298,1386
862.060852,1371
862.178406,1337
862.295959,1349
862.413513,1330
862.531006,1321
862.64856,1353
862.766113,1322
862.883667,1326
863.00116,1322
863.118713,1319
863.236206,1379
863.353699,1365
863.471252,1374
863.588745,1351
863.706177,1356
863.82373,1374
863.941162,1401
864.058716,1361
864.176208,1381
864.29364,1339
864.411194,1354
864.528687,1299
864.646118,1380
864.763611,1364
864.881042,1348
864.998535,1401
865.116028,1377
865.233459,1376
865.350891,1349
865.468384,1353
865.585754,1391
865.703308,1328
865.820679,1362
865.938171,1370
866.055542,1369
866.173035,1338
866.290466,1370
866.407837,1365
866.52533,1368
866.6427,1366
866.760071,1347
866.877563,1364
866.994934,1368
867.112305,1369
867.229736,1376
867.347107,1369
867.464539,1384
867.58197,1348
867.699341,1401
867.81665,1427
867.934082,1368
868.051453,1372
868.168823,1403
868.286194,1392
868.403564,1414
868.520935,1336
868.638306,1405
868.755676,1354
868.872986,1397
868.990295,1376
869.107727,1395
869.225037,1407
869.342346,1395
869.459717,1395
869.577026,1365
869.694336,1385
869.811707,1434
869.929016,1354
870.046326,1416
870.163635,1364
870.280945,1387
870.398254,1396
870.515564,1406
870.632812,1433
870.750183,1395
870.867432,1378
870.984741,1362
871.102051,1404
871.219299,1396
871.336609,1371
871.453918,1383
871.571106,1392
871.688416,1401
871.805664,1407
871.922852,1410
872.040222,1333
872.157471,1381
872.274719,1372
872.391968,1418
872.509155,1386
872.626465,1373
872.743652,1390
872.860962,1396
872.978149,1430
873.095337,1391
873.212646,1412
873.329834,1372
873.44696,1411
873.564209,1384
873.681396,1394
873.798645,1378
873.915894,1385
874.03302,1382
874.150208,1404
874.267456,1378
874.384583,1420
874.501831,1420
874.618958,1384
874.736145,1411
874.853333,1350
874.970459,1369
875.087646,1418
875.204834,1388
875.32196,1372
875.439148,1403
875.556274,1393
875.673401,1376
875.790527,1388
875.907715,1386
876.024841,1351
876.141968,1388
876.259094,1362
876.376282,1389
876.493347,1405
876.610474,1358
876.7276,1348
876.844727,1389
876.961853,1391
877.078918,1376
877.195984,1389
877.313171,1395
877.430237,1380
877.547302,1389
877.664368,1392
877.781433,1365
877.898499,1369
878.015625,1370
878.13269,1397
878.249695,1452
878.366821,1355
878.483887,1418
878.600952,1378
878.717957,1389
878.834961,1387
878.952087,1422
879.069092,1387
879.186157,1391
879.303162,1369
879.420227,1413
879.537231,1400
879.654236,1383
879.77124,1403
879.888306,1392
880.005249,1406
880.122314,1364
880.239319,1411
880.356323,1366
880.473328,1405
880.590271,1387
880.707275,1380
880.824341,1433
880.941284,1359
881.058228,1407
881.175232,1399
881.292236,1357
881.40918,1394
881.526123,1385
881.643066,1377
881.760071,1409
881.877014,1389
881.993958,1375
882.11084,1379
882.227783,1379
882.344727,1404
882.46167,1407
882.578613,1392
882.695618,1387
882.812439,1388
882.929382,1419
883.046326,1396
883.163208,1453
883.280151,1393
883.397034,1383
883.513916,1432
883.630798,1409
883.747742,1411
883.864563,1422
883.981506,1438
884.098389,1370
884.21521,1379
884.332153,1448
884.448975,1412
884.565796,1401
884.682678,1376
884.7995,1429
884.916443,1450
885.033264,1391
885.150085,1432
885.266968,1448
885.383789,1423
885.500671,1447
885.617493,1412
885.734314,1456
885.851196,1453
885.967896,1464
886.084717,1443
886.201599,1423
886.318359,1451
886.435181,1478
886.552002,1469
886.668762,1455
886.785645,1440
886.902344,1422
887.019165,1450
887.135925,1443
887.252747,1424
887.369446,1447
887.486267,1468
887.603027,1417
887.719788,1425
887.836548,1436
887.953247,1400
888.070068,1463
888.186829,1429
888.303528,1393
888.420288,1440
888.536987,1386
888.653687,1423
888.770447,1404
888.887146,1375
889.003967,1408
889.120667,1446
889.237305,1441
889.354065,1469
889.470703,1433
889.587463,1408
889.704163,1450
889.820862,1388
889.937561,1442
890.054199,1393
890.170837,1404
890.287598,1461
890.404236,1432
890.520874,1420
890.637634,1418
890.754211,1407
890.87085,1445
890.987549,1421
891.104187,1446
891.220886,1416
891.337463,1424
891.454102,1407
891.57074,1435
891.687378,1408
891.804077,1441
891.920654,1445
892.037231,1455
892.15387,1469
892.270447,1461
892.387085,1384
892.503723,1408
892.6203,1475
892.736877,1483
892.853516,1414
892.970032,1443
893.08667,1431
893.203186,1457
893.319763,1443
893.43634,1434
893.552917,1463
893.669556,1448
893.786011,1440
893.902588,1421
894.019165,1426
894.135681,1438
894.252197,1452
894.368835,1476
894.485291,1433
894.601868,1484
894.718384,1462
894.8349,1427
894.951355,1463
895.067932,1450
895.184448,1424
895.300964,1456
895.417419,1472
895.533936,1418
895.650452,1450
895.766907,1460
895.883423,1480
895.999878,1491
896.116333,1443
896.232849,1441
896.349304,1452
896.465759,1450
896.582214,1459
896.698669,1409
896.815125,1470
896.931641,1452
897.048035,1450
897.164551,1418
897.280884,1443
897.397339,1465
897.513794,1460
897.630249,1429
897.746582,1451
897.863098,1408
897.979431,1442
898.095886,1498
898.212341,1462
898.328674,1455
898.445129,1478
898.561462,1489
898.677795,1466
898.794312,1440
898.910645,1512
899.026978,1441
899.143433,1449
899.259766,1426
899.37616,1454
899.492493,1453
899.608765,1454
899.725159,1443
899.841553,1460
899.957947,1469
900.07428,1476
900.190552,1441
900.306946,1421
900.423157,1477
900.53949,1441
900.655884,1468
900.772156,1534
900.888489,1475
901.004822,1480
901.121033,1459
901.237366,1440
901.353699,1458
901.46991,1465
901.586304,1467
901.702515,1475
901.818787,1491
901.93512,1468
902.051331,1450
902.167603,1509
902.283875,1473
902.400085,1459
902.516418,1473
902.632629,1497
902.74884,1473
902.865112,1522
902.981384,1509
903.097595,1525
903.213867,1482
903.330017,1497
903.446289,1518
903.5625,1489
903.67865,1486
903.794922,1532
903.911072,1467
904.027344,1486
904.143494,1495
904.259705,1476
904.375916,1476
904.492065,1484
904.608215,1499
904.724426,1460
904.840576,1494
904.956726,1456
905.072876,1481
905.189087,1480
905.305176,1453
905.421387,1517
905.537537,1504
905.653687,1564
905.769775,1490
905.885925,1447
906.002014,1462
906.118164,1531
906.234314,1464
906.350403,1524
906.466492,1503
906.582642,1474
906.69873,1438
906.814758,1504
906.930908,1474
907.046936,1480
907.163086,1483
907.279175,1502
907.395264,1481
907.511353,1477
907.62738,1457
907.743408,1461
907.859497,1481
907.975525,1465
908.091553,1499
908.207703,1558
908.32373,1514
908.439758,1495
908.555786,1474
908.671814,1482
908.787842,1420
908.90387,1494
909.019775,1488
909.135864,1509
909.251892,1499
909.367859,1490
909.483826,1516
909.599854,1522
909.715881,1505
909.831848,1512
909.947815,1502
910.063782,1510
910.179749,1496
910.295776,1519
910.411743,1546
910.527649,1484
910.643616,1499
910.759583,1497
910.875488,1485
910.991455,1487
911.107361,1473
911.223267,1482
911.339294,1508
911.4552,1502
911.571106,1521
911.687073,1501
911.802979,1485
911.918823,1458
912.034729,1496
912.150635,1495
912.266602,1519
912.382446,1478
912.498352,1458
912.614197,1497
912.730103,1483
912.846008,1480
