792.44574,1760
792.56488,1782
792.68396,1806
792.80304,1771
792.92218,1731
793.041199,1649
793.160339,1692
793.279419,1682
793.398499,1718
793.517578,1706
793.636658,1693
793.755737,1667
793.874817,1666
793.993896,1684
794.112976,1677
794.232056,1633
794.351074,1641
794.470215,1653
794.589233,1664
794.708313,1610
794.827393,1582
794.946411,1645
795.065552,1635
795.18457,1621
795.303589,1608
795.422668,1589
795.541687,1632
795.660767,1647
795.779846,1581
795.898865,1521
796.017883,1559
796.136963,1557
796.255981,1579
796.375061,1598
796.49408,1625
796.613037,1601
796.732117,1597
796.851135,1590
796.970154,1578
797.089233,1602
797.208191,1580
797.327271,1555
797.446228,1546
797.565186,1569
797.684265,1515
797.803223,1563
797.922241,1549
798.04126,1553
798.160278,1549
798.279297,1511
798.398315,1529
798.517273,1561
798.636292,1540
798.75531,1601
798.874268,1573
798.993286,1570
799.112244,1537
799.231323,1544
799.350281,1524
799.469238,1548
799.588257,1514
799.707153,1501
799.826111,1541
799.945129,1524
800.064087,1551
800.183044,1556
800.302063,1537
800.421021,1522
800.539978,1546
800.658936,1582
800.777893,1561
800.896912,1525
801.015747,1535
801.134705,1521
801.253723,1521
801.37262,1536
801.491638,1548
801.610535,1519
801.729492,1535
801.84845,1568
801.967407,1526
802.086243,1555
802.205261,1535
802.324158,1547
802.443115,1516
802.562073,1549
802.680969,1529
802.799927,1499
802.918762,1559
803.037659,1544
803.156677,1485
803.275574,1560
803.39447,1530
803.513428,1522
803.632263,1528
803.751221,1507
803.870117,1499
803.989014,1523
804.107971,1555
804.226746,1523
804.345642,1523
804.4646,1529
804.583496,1548
804.702393,1578
804.821228,1537
804.940125,1518
805.059021,1533
805.177917,1512
805.296814,1554
805.415649,1594
805.534546,1538
805.653442,1570
805.772278,1543
805.891113,1598
806.01001,1542
806.128906,1548
806.247742,1527
806.366577,1536
806.485413,1578
806.604309,1573
806.723145,1525
806.84198,1570
806.960876,1518
807.079712,1543
807.198486,1547
807.317383,1544
807.436218,1522
807.554993,1554
807.673889,1576
807.792725,1567
807.91156,1553
808.030396,1536
808.14917,1540
808.268005,1529
808.386841,1532
808.505676,1527
808.624451,1545
808.743286,1535
808.862122,1544
808.980896,1558
809.099731,1560
809.218506,1538
809.337341,1560
809.456116,1549
809.57489,1591
809.693726,1559
809.8125,1557
809.931274,1581
810.050049,1534
810.168884,1556
810.287659,1542
810.406372,1565
810.525269,1558
810.643982,1573
810.762756,1542
810.881531,1559
811.000305,1512
811.11908,1520
811.237854,1561
811.356567,1611
811.475403,1573
811.594116,1535
811.71283,1591
811.831604,1524
811.950378,1583
812.069153,1542
812.187927,1552
812.30658,1569
812.425415,1558
812.544128,1567
812.662781,1553
812.781616,1527
812.900269,1555
813.019043,1553
813.137756,1521
813.256531,1550
813.375244,1501
813.493896,1526
813.612671,1546
813.731384,1582
813.850037,1565
813.96875,1568
814.087524,1494
814.206238,1521
814.324951,1485
814.443604,1566
814.562256,1569
814.68103,1525
814.799683,1502
814.918335,1540
815.037109,1512
815.155762,1557
815.274475,1575
815.393188,1530
815.511841,1538
815.630554,1513
815.749146,1479
815.867859,1516
815.986572,1492
816.105164,1528
816.223877,1506
816.342529,1494
816.461182,1575
816.579895,1546
816.698486,1548
816.817139,1504
816.935791,1512
817.054504,1549
817.173096,1532
817.291748,1522
817.4104,1532
817.529053,1490
817.647644,1462
817.766235,1497
817.884949,1442
818.00354,1448
818.122192,1453
818.240845,1418
818.359436,1394
818.478088,1448
818.59668,1440
818.715271,1453
818.833923,1432
818.952515,1403
819.071106,1344
819.189758,1398
819.30835,1385
819.426941,1378
819.545532,1362
819.664124,1389
819.782715,1419
819.901306,1353
820.019897,1369
820.138489,1366
820.25708,1387
820.375671,1367
820.494202,1394
820.612732,1382
820.731384,1411
820.849915,1371
820.968506,1382
821.087097,1375
821.205627,1365
821.324158,1379
821.442749,1342
821.561279,1378
821.679871,1343
821.798401,1350
821.916931,1342
822.035461,1355
822.154053,1324
822.272583,1345
822.391174,1336
822.509583,1369
822.628174,1350
822.746704,1347
822.865234,1349
822.983765,1340
823.102295,1317
823.220825,1314
823.339294,1362
823.457825,1344
823.576355,1344
823.694824,1359
823.813354,1329
823.931885,1345
824.050354,1346
824.168884,1309
824.287354,1334
824.405823,1332
824.524353,1382
824.642822,1371
824.761353,1320
824.879822,1321
824.998291,1351
825.116699,1330
825.235291,1343
825.353699,1350
825.472168,1324
825.590637,1333
825.709106,1292
825.827576,1291
825.946045,1284
826.064453,1348
826.182983,1299
826.301392,1291
826.4198,1330
826.53833,1351
826.656738,1303
826.775208,1333
826.893677,1305
827.012024,1306
827.130493,1302
827.248962,1336
827.36731,1343
827.485779,1316
827.604248,1317
827.722595,1314
827.841064,1308
827.959412,1332
828.077942,1286
828.196289,1329
828.314636,1288
828.433105,1288
828.551514,1328
828.669861,1296
828.78833,1335
828.906677,1268
829.025085,1309
829.143433,1298
829.261841,1301
829.38031,1321
829.498657,1287
829.617004,1303
829.735413,1262
829.85376,1290
829.972107,1246
830.090515,1318
830.208862,1275
830.327209,1297
830.445557,1266
830.563904,1302
830.682312,1265
830.800659,1298
830.919006,1295
831.037354,1311
831.155701,1295
831.274048,1292
831.392395,1295
831.51062,1301
831.629028,1298
831.747314,1319
831.865662,1299
831.984009,1306
832.102356,1296
832.220642,1282
832.338928,1332
832.457275,1263
832.575623,1352
832.693909,1298
832.812134,1278
832.930481,1348
833.048828,1324
833.167114,1283
833.2854,1258
833.403687,1329
833.521973,1272
833.640259,1284
833.758545,1282
833.876831,1299
833.995056,1325
834.113281,1289
834.231628,1261
834.349915,1309
834.468201,1276
834.586426,1301
834.704651,1294
834.822998,1289
834.941162,1279
835.059448,1277
835.177673,1279
835.295959,1303
835.414246,1298
835.53241,1269
835.650635,1261
835.768921,1314
835.887146,1308
836.005371,1309
836.123596,1322
836.241821,1299
836.360046,1323
836.478271,1314
836.596497,1275
836.714722,1310
836.832886,1334
836.95105,1293
837.069336,1298
837.1875,1291
837.305725,1308
837.423889,1285
837.542053,1305
837.660339,1308
837.778503,1289
837.896667,1351
838.014832,1330
838.132996,1316
838.25116,1310
838.369385,1318
838.487488,1296
838.605713,1293
838.723877,1295
838.84198,1266
838.960205,1309
839.078308,1312
839.196472,1290
839.314636,1312
839.4328,1277
839.550964,1321
839.669067,1288
839.787231,1310
839.905396,1320
840.023499,1315
840.141602,1299
840.259766,1319
840.377869,1299
840.495972,1306
840.614136,1290
840.732239,1290
840.850342,1304
840.968445,1311
841.086548,1237
841.204651,1319
841.322754,1293
841.440918,1308
841.55896,1314
841.677002,1274
841.795166,1300
841.913208,1287
842.031311,1339
842.149353,1271
842.267456,1291
842.385498,1234
842.503601,1295
842.621643,1297
842.739746,1255
842.857788,1301
842.97583,1284
843.093933,1268
843.211975,1296
843.330017,1333
843.44812,1333
843.566101,1304
843.684204,1295
843.802246,1284
843.920227,1287
844.038269,1318
844.156311,1326
844.274292,1247
844.392395,1284
844.510376,1280
844.628357,1288
844.74646,1273
844.864441,1251
844.982422,1305
845.100403,1261
845.218384,1278
845.336426,1283
845.454468,1309
845.572449,1272
845.69043,1259
845.808411,1283
845.926453,1302
846.044373,1299
846.162354,1274
846.280396,1321
846.398315,1283
846.516296,1249
846.634216,1280
846.752197,1279
846.870178,1279
846.988098,1270
847.106079,1282
847.22406,1231
847.34198,1314
847.4599,1293
847.577881,1279
847.695801,1306
847.813782,1300
847.931641,1272
848.049561,1279
848.167603,1264
848.285461,1305
848.403381,1268
848.521362,1300
848.639221,1276
848.75708,1283
848.875,1281
848.99292,1243
849.110901,1274
849.22876,1289
849.34668,1288
849.464539,1308
849.582458,1319
849.700317,1252
849.818176,1311
849.936096,1294
850.053955,1298
850.171875,1305
850.289673,1293
850.407593,1309
850.525452,1292
850.643311,1317
850.761169,1283
850.878967,1278
850.996887,1310
851.114746,1286
851.232544,1331
851.350403,1292
851.468262,1283
851.58606,1284
851.703979,1306
851.821777,1313
851.939636,1302
852.057434,1328
852.175232,1256
852.293091,1288
852.410889,1267
852.528687,1332
852.646545,1286
852.764343,1350
852.88208,1329
852.999939,1268
853.117676,1347
853.235535,1267
853.353271,1276
853.471069,1278
853.588928,1274
853.706604,1317
853.824402,1287
853.9422,1285
854.059998,1310
854.177734,1310
854.295532,1262
854.413269,1290
854.531006,1257
854.648804,1292
854.766541,1279
854.884277,1311
855.002014,1298
855.119751,1270
855.237549,1341
855.355225,1294
855.473022,1297
855.590698,1287
855.708435,1293
855.826172,1337
855.943848,1316
856.061646,1332
856.179321,1291
856.296997,1307
856.414795,1302
856.53241,1302
856.650085,1273
856.767822,1266
856.885559,1281
857.003174,1335
857.120911,1300
857.238586,1299
857.356201,1375
857.473938,1283
857.591614,1309
857.709351,1337
857.826965,1282
857.944641,1301
858.062317,1296
858.179993,1278
858.297668,1328
858.415283,1286
858.532959,1309
858.650574,1284
858.768188,1349
858.885803,1324
859.003479,1308
859.121094,1299
859.23877,1309
859.356384,1363
859.473999,1272
859.591675,1303
859.709229,1290
859.826843,1290
859.944458,1264
860.062012,1299
860.179626,1312
860.297302,1302
860.414856,1300
860.532471,1303
860.650024,1312
860.767639,1274
860.885193,1314
861.002808,1314
861.120361,1270
861.237976,1298
861.35553,1280
861.473022,1318
861.590698,1289
861.708191,1261
861.825745,1258
861.943298,1300
862.060852,1318
862.178406,1319
862.295959,1293
862.413513,1310
862.531006,1314
862.64856,1311
862.766113,1300
862.883667,1306
863.00116,1297
863.118713,1300
863.236206,1277
863.353699,1304
863.471252,1318
863.588745,1309
863.706177,1259
863.82373,1282
863.941162,1286
864.058716,1312
864.176208,1330
864.29364,1279
864.411194,1323
864.528687,1292
864.646118,1261
864.763611,1301
864.881042,1277
864.998535,1346
865.116028,1329
865.233459,1279
865.350891,1283
865.468384,1303
865.585754,1309
865.703308,1305
865.820679,1340
865.938171,1315
866.055542,1318
866.173035,1303
866.290466,1322
866.407837,1328
866.52533,1341
866.6427,1316
866.760071,1328
866.877563,1296
866.994934,1324
867.112305,1279
867.229736,1292
867.347107,1311
867.464539,1303
867.58197,1309
867.699341,1348
867.81665,1282
867.934082,1300
868.051453,1326
868.168823,1317
868.286194,1301
868.403564,1326
868.520935,1359
868.638306,1316
868.755676,1307
868.872986,1320
868.990295,1298
869.107727,1351
869.225037,1280
869.342346,1354
869.459717,1358
869.577026,1334
869.694336,1327
869.811707,1352
869.929016,1333
870.046326,1306
870.163635,1323
870.280945,1366
870.398254,1295
870.515564,1317
870.632812,1340
870.750183,1309
870.867432,1316
870.984741,1363
871.102051,1314
871.219299,1349
871.336609,1334
871.453918,1324
871.571106,1373
871.688416,1274
871.805664,1308
871.922852,1312
872.040222,1359
872.157471,1306
872.274719,1344
872.391968,1311
872.509155,1336
872.626465,1303
872.743652,1354
872.860962,1356
872.978149,1321
873.095337,1354
873.212646,1325
873.329834,1322
873.44696,1345
873.564209,1319
873.681396,1332
873.798645,1326
873.915894,1297
874.03302,1308
874.150208,1293
874.267456,1306
874.384583,1336
874.501831,1359
874.618958,1319
874.736145,1323
874.853333,1315
874.970459,1362
875.087646,1339
875.204834,1311
875.32196,1334
875.439148,1293
875.556274,1331
875.673401,1309
875.790527,1331
875.907715,1307
876.024841,1313
876.141968,1347
876.259094,1325
876.376282,1346
876.493347,1352
876.610474,1343
876.7276,1351
876.844727,1327
876.961853,1303
877.078918,1357
877.195984,1311
877.313171,1352
877.430237,1330
877.547302,1310
877.664368,1307
877.781433,1339
877.898499,1310
878.015625,1357
878.13269,1308
878.249695,1363
878.366821,1304
878.483887,1357
878.600952,1315
878.717957,1307
878.834961,1352
878.952087,1323
879.069092,1343
879.186157,1341
879.303162,1324
879.420227,1352
879.537231,1340
879.654236,1316
879.77124,1339
879.888306,1320
880.005249,1315
880.122314,1292
880.239319,1389
880.356323,1333
880.473328,1371
880.590271,1328
880.707275,1338
880.824341,1386
880.941284,1367
881.058228,1339
881.175232,1350
881.292236,1338
881.40918,1296
881.526123,1334
881.643066,1359
881.760071,1345
881.877014,1293
881.993958,1326
882.11084,1335
882.227783,1289
882.344727,1324
882.46167,1342
882.578613,1330
882.695618,1368
882.812439,1345
882.929382,1316
883.046326,1391
883.163208,1341
883.280151,1341
883.397034,1310
883.513916,1340
883.630798,1365
883.747742,1358
883.864563,1383
883.981506,1327
884.098389,1362
884.21521,1359
884.332153,1395
884.448975,1339
884.565796,1351
884.682678,1369
884.7995,1379
884.916443,1366
885.033264,1388
885.150085,1354
885.266968,1301
885.383789,1345
885.500671,1344
885.617493,1361
885.734314,1371
885.851196,1356
885.967896,1400
886.084717,1352
886.201599,1367
886.318359,1374
886.435181,1352
886.552002,1382
886.668762,1418
886.785645,1372
886.902344,1320
887.019165,1387
887.135925,1332
887.252747,1372
887.369446,1369
887.486267,1364
887.603027,1346
887.719788,1371
887.836548,1379
887.953247,1338
888.070068,1394
888.186829,1357
888.303528,1343
888.420288,1399
888.536987,1367
888.653687,1359
888.770447,1377
888.887146,1355
889.003967,1377
889.120667,1333
889.237305,1347
889.354065,1357
889.470703,1335
889.587463,1367
889.704163,1394
889.820862,1362
889.937561,1381
890.054199,1353
890.170837,1394
890.287598,1374
890.404236,1366
890.520874,1330
890.637634,1369
890.754211,1364
890.87085,1378
890.987549,1414
891.104187,1361
891.220886,1358
891.337463,1352
891.454102,1397
891.57074,1363
891.687378,1367
891.804077,1391
891.920654,1382
892.037231,1359
892.15387,1359
892.270447,1363
892.387085,1378
892.503723,1417
892.6203,1381
892.736877,1361
892.853516,1426
892.970032,1381
893.08667,1358
893.203186,1405
893.319763,1326
893.43634,1427
893.552917,1331
893.669556,1387
893.786011,1388
893.902588,1326
894.019165,1422
894.135681,1368
894.252197,1365
894.368835,1406
894.485291,1368
894.601868,1356
894.718384,1432
894.8349,1388
894.951355,1370
895.067932,1401
895.184448,1332
895.300964,1417
895.417419,1408
895.533936,1410
895.650452,1422
895.766907,1392
895.883423,1403
895.999878,1370
896.116333,1397
896.232849,1404
896.349304,1410
896.465759,1439
896.582214,1409
896.698669,1411
896.815125,1380
896.931641,1414
897.048035,1360
897.164551,1393
897.280884,1390
897.397339,1354
897.513794,1420
897.630249,1385
897.746582,1376
897.863098,1386
897.979431,1375
898.095886,1376
898.212341,1343
898.328674,1387
898.445129,1415
898.561462,1372
898.677795,1446
898.794312,1400
898.910645,1420
899.026978,1376
899.143433,1423
899.259766,1425
899.37616,1379
899.492493,1367
899.608765,1456
899.725159,1402
899.841553,1397
899.957947,1420
900.07428,1412
900.190552,1397
900.306946,1390
900.423157,1422
900.53949,1379
900.655884,1405
900.772156,1445
900.888489,1391
901.004822,1410
901.121033,1397
901.237366,1459
901.353699,1415
901.46991,1363
901.586304,1385
901.702515,1385
901.818787,1417
901.93512,1404
902.051331,1398
902.167603,1430
902.283875,1440
902.400085,1399
902.516418,1418
902.632629,1443
902.74884,1403
902.865112,1406
902.981384,1439
903.097595,1428
903.213867,1388
903.330017,1401
903.446289,1439
903.5625,1422
903.67865,1389
903.794922,1449
903.911072,1430
904.027344,1428
904.143494,1425
904.259705,1436
904.375916,1447
904.492065,1403
904.608215,1381
904.724426,1417
904.840576,1422
904.956726,1457
905.072876,1429
905.189087,1422
905.305176,1395
905.421387,1439
905.537537,1450
905.653687,1388
905.769775,1410
905.885925,1457
906.002014,1423
906.118164,1430
906.234314,1407
906.350403,1451
906.466492,1414
906.582642,1420
906.69873,1431
906.814758,1460
906.930908,1429
907.046936,1453
907.163086,1438
907.279175,1447
907.395264,1409
907.511353,1440
907.62738,1412
907.743408,1465
907.859497,1413
907.975525,1407
908.091553,1440
908.207703,1467
908.32373,1410
908.439758,1430
908.555786,1457
908.671814,1431
908.787842,1436
908.90387,1439
909.019775,1458
909.135864,1392
909.251892,1461
909.367859,1451
909.483826,1440
909.599854,1450
909.715881,1436
909.831848,1373
909.947815,1476
910.063782,1465
910.179749,1453
910.295776,1434
910.411743,1419
910.527649,1426
910.643616,1393
910.759583,1449
910.875488,1412
910.991455,1389
911.107361,1421
911.223267,1414
911.339294,1476
911.4552,1468
911.571106,1480
911.687073,1429
911.802979,1420
911.918823,1461
912.034729,1480
912.150635,1429
912.266602,1418
912.382446,1437
912.498352,1428
912.614197,1446
912.730103,1445
912.846008,1431
792.44574,1820
792.56488,1806
792.68396,1739
792.80304,1783
792.92218,1722
793.041199,1726
793.160339,1736
793.279419,1755
793.398499,1721
793.517578,1694
793.636658,1681
793.755737,1695
793.874817,1735
793.993896,1740
794.112976,1659
794.232056,1645
794.351074,1641
794.470215,1638
794.589233,1650
794.708313,1660
794.827393,1586
794.946411,1659
795.065552,1635
795.18457,1589
795.303589,1624
795.422668,1643
795.541687,1607
795.660767,1646
795.779846,1623
795.898865,1576
796.017883,1602
796.136963,1633
796.255981,1627
796.375061,1623
796.49408,1627
796.613037,1594
796.732117,1602
796.851135,1570
796.970154,1590
797.089233,1596
797.208191,1584
797.327271,1583
797.446228,1555
797.565186,1644
797.684265,1588
797.803223,1548
797.922241,1559
798.04126,1598
798.160278,1552
798.279297,1556
798.398315,1634
798.517273,1574
798.636292,1603
798.75531,1555
798.874268,1595
798.993286,1556
799.112244,1607
799.231323,1548
799.350281,1547
799.469238,1544
799.588257,1541
799.707153,1588
799.826111,1546
799.945129,1620
800.064087,1573
800.183044,1562
800.302063,1541
800.421021,1561
800.539978,1529
800.658936,1509
800.777893,1593
800.896912,1559
801.015747,1527
801.134705,1538
801.253723,1534
801.37262,1557
801.491638,1589
801.610535,1565
801.729492,1605
801.84845,1526
801.967407,1572
802.086243,1518
802.205261,1556
802.324158,1586
802.443115,1558
802.562073,1543
802.680969,1569
802.799927,1577
802.918762,1535
803.037659,1584
803.156677,1609
803.275574,1565
803.39447,1571
803.513428,1579
803.632263,1574
803.751221,1576
803.870117,1574
803.989014,1532
804.107971,1588
804.226746,1572
804.345642,1570
804.4646,1564
804.583496,1600
804.702393,1544
804.821228,1556
804.940125,1538
805.059021,1586
805.177917,1640
805.296814,1590
805.415649,1574
805.534546,1596
805.653442,1548
805.772278,1535
805.891113,1540
806.01001,1580
806.128906,1564
806.247742,1565
806.366577,1543
806.485413,1589
806.604309,1578
806.723145,1604
806.84198,1521
806.960876,1528
807.079712,1572
807.198486,1583
807.317383,1538
807.436218,1547
807.554993,1596
807.673889,1594
807.792725,1578
807.91156,1541
808.030396,1548
808.14917,1533
808.268005,1556
808.386841,1571
808.505676,1549
808.624451,1597
808.743286,1520
808.862122,1554
808.980896,1540
809.099731,1596
809.218506,1565
809.337341,1567
809.456116,1570
809.57489,1529
809.693726,1601
809.8125,1627
809.931274,1595
810.050049,1592
810.168884,1546
810.287659,1615
810.406372,1614
810.525269,1610
810.643982,1595
810.762756,1574
810.881531,1573
811.000305,1578
811.11908,1598
811.237854,1565
811.356567,1562
811.475403,1567
811.594116,1565
811.71283,1542
811.831604,1605
811.950378,1589
812.069153,1603
812.187927,1595
812.30658,1580
812.425415,1581
812.544128,1578
812.662781,1604
812.781616,1579
812.900269,1566
813.019043,1574
813.137756,1613
813.256531,1587
813.375244,1554
813.493896,1597
813.612671,1556
813.731384,1563
813.850037,1606
813.96875,1530
814.087524,1551
814.206238,1588
814.324951,1547
814.443604,1552
814.562256,1559
814.68103,1559
814.799683,1578
814.918335,1540
815.037109,1535
815.155762,1565
815.274475,1553
815.393188,1516
815.511841,1546
815.630554,1554
815.749146,1521
815.867859,1527
815.986572,1527
816.105164,1565
816.223877,1526
816.342529,1521
816.461182,1504
816.579895,1484
816.698486,1548
816.817139,1562
816.935791,1565
817.054504,1539
817.173096,1553
817.291748,1527
817.4104,1554
817.529053,1471
817.647644,1503
817.766235,1506
817.884949,1529
818.00354,1516
818.122192,1454
818.240845,1444
818.359436,1421
818.478088,1492
818.59668,1426
818.715271,1457
818.833923,1445
818.952515,1405
819.071106,1424
819.189758,1447
819.30835,1412
819.426941,1379
819.545532,1435
819.664124,1415
819.782715,1417
819.901306,1398
820.019897,1443
820.138489,1423
820.25708,1453
820.375671,1375
820.494202,1391
820.612732,1379
820.731384,1400
820.849915,1395
820.968506,1418
821.087097,1363
821.205627,1409
821.324158,1398
821.442749,1412
821.561279,1385
821.679871,1378
821.798401,1384
821.916931,1397
822.035461,1353
822.154053,1330
822.272583,1370
822.391174,1372
822.509583,1346
822.628174,1379
822.746704,1415
822.865234,1392
822.983765,1416
823.102295,1368
823.220825,1388
823.339294,1377
823.457825,1392
823.576355,1372
823.694824,1369
823.813354,1399
823.931885,1367
824.050354,1381
824.168884,1393
824.287354,1348
824.405823,1383
824.524353,1413
824.642822,1371
824.761353,1353
824.879822,1390
824.998291,1407
825.116699,1339
825.235291,1372
825.353699,1374
825.472168,1371
825.590637,1382
825.709106,1344
825.827576,1357
825.946045,1320
826.064453,1362
826.182983,1324
826.301392,1320
826.4198,1330
826.53833,1359
826.656738,1328
826.775208,1308
826.893677,1335
827.012024,1308
827.130493,1320
827.248962,1327
827.36731,1334
827.485779,1335
827.604248,1342
827.722595,1329
827.841064,1323
827.959412,1340
828.077942,1321
828.196289,1322
828.314636,1353
828.433105,1292
828.551514,1293
828.669861,1321
828.78833,1329
828.906677,1339
829.025085,1330
829.143433,1319
829.261841,1283
829.38031,1274
829.498657,1326
829.617004,1340
829.735413,1339
829.85376,1295
829.972107,1316
830.090515,1292
830.208862,1336
830.327209,1343
830.445557,1323
830.563904,1348
830.682312,1340
830.800659,1284
830.919006,1326
831.037354,1285
831.155701,1315
831.274048,1315
831.392395,1305
831.51062,1295
831.629028,1302
831.747314,1308
831.865662,1309
831.984009,1305
832.102356,1311
832.220642,1326
832.338928,1274
832.457275,1331
832.575623,1321
832.693909,1305
832.812134,1339
832.930481,1315
833.048828,1276
833.167114,1324
833.2854,1258
833.403687,1344
833.521973,1333
833.640259,1310
833.758545,1334
833.876831,1314
833.995056,1303
834.113281,1330
834.231628,1289
834.349915,1294
834.468201,1325
834.586426,1338
834.704651,1310
834.822998,1310
834.941162,1308
835.059448,1308
835.177673,1318
835.295959,1304
835.414246,1289
835.53241,1292
835.650635,1312
835.768921,1310
835.887146,1339
836.005371,1326
836.123596,1336
836.241821,1307
836.360046,1348
836.478271,1306
836.596497,1341
836.714722,1312
836.832886,1313
836.95105,1328
837.069336,1347
837.1875,1331
837.305725,1327
837.423889,1313
837.542053,1351
837.660339,1325
837.778503,1323
837.896667,1354
838.014832,1355
838.132996,1319
838.25116,1322
838.369385,1325
838.487488,1325
838.605713,1335
838.723877,1306
838.84198,1320
838.960205,1337
839.078308,1326
839.196472,1329
839.314636,1317
839.4328,1277
839.550964,1332
839.669067,1291
839.787231,1359
839.905396,1322
840.023499,1314
840.141602,1307
840.259766,1315
840.377869,1285
840.495972,1266
840.614136,1298
840.732239,1314
840.850342,1345
840.968445,1348
841.086548,1352
841.204651,1323
841.322754,1316
841.440918,1304
841.55896,1321
841.677002,1309
841.795166,1335
841.913208,1291
842.031311,1356
842.149353,1275
842.267456,1285
842.385498,1318
842.503601,1321
842.621643,1313
842.739746,1246
842.857788,1290
842.97583,1326
843.093933,1354
843.211975,1322
843.330017,1357
843.44812,1308
843.566101,1300
843.684204,1331
843.802246,1300
843.920227,1271
844.038269,1337
844.156311,1321
844.274292,1315
844.392395,1292
844.510376,1296
844.628357,1345
844.74646,1297
844.864441,1331
844.982422,1282
845.100403,1308
845.218384,1337
845.336426,1270
845.454468,1303
845.572449,1330
845.69043,1323
845.808411,1268
845.926453,1267
846.044373,1292
846.162354,1309
846.280396,1339
846.398315,1296
846.516296,1310
846.634216,1340
846.752197,1317
846.870178,1294
846.988098,1298
847.106079,1282
847.22406,1288
847.34198,1280
847.4599,1272
847.577881,1317
847.695801,1302
847.813782,1349
847.931641,1298
848.049561,1281
848.167603,1294
848.285461,1285
848.403381,1343
848.521362,1310
848.639221,1297
848.75708,1278
848.875,1315
848.99292,1324
849.110901,1341
849.22876,1330
849.34668,1289
849.464539,1341
849.582458,1310
849.700317,1307
849.818176,1351
849.936096,1294
850.053955,1316
850.171875,1314
850.289673,1301
850.407593,1308
850.525452,1308
850.643311,1363
850.761169,1314
850.878967,1348
850.996887,1334
851.114746,1308
851.232544,1303
851.350403,1293
851.468262,1371
851.58606,1305
851.703979,1306
851.821777,1303
851.939636,1279
852.057434,1335
852.175232,1330
852.293091,1288
852.410889,1335
852.528687,1280
852.646545,1330
852.764343,1315
852.88208,1372
852.999939,1320
853.117676,1311
853.235535,1329
853.353271,1275
853.471069,1343
853.588928,1335
853.706604,1343
853.824402,1272
853.9422,1360
854.059998,1306
854.177734,1334
854.295532,1297
854.413269,1305
854.531006,1303
854.648804,1319
854.766541,1333
854.884277,1366
855.002014,1356
855.119751,1328
855.237549,1295
855.355225,1341
855.473022,1328
855.590698,1334
855.708435,1314
855.826172,1334
855.943848,1319
856.061646,1337
856.179321,1295
856.296997,1318
856.414795,1328
856.53241,1304
856.650085,1352
856.767822,1296
856.885559,1338
857.003174,1312
857.120911,1346
857.238586,1322
857.356201,1294
857.473938,1306
857.591614,1296
857.709351,1365
857.826965,1330
857.944641,1316
858.062317,1329
858.179993,1306
858.297668,1350
858.415283,1306
858.532959,1303
858.650574,1330
858.768188,1326
858.885803,1330
859.003479,1321
859.121094,1303
859.23877,1370
859.356384,1326
859.473999,1310
859.591675,1309
859.709229,1276
859.826843,1311
859.944458,1357
860.062012,1331
860.179626,1309
860.297302,1345
860.414856,1327
860.532471,1322
860.650024,1350
860.767639,1329
860.885193,1331
861.002808,1266
861.120361,1339
861.237976,1328
861.35553,1318
861.473022,1289
861.590698,1309
861.708191,1332
861.825745,1307
861.943298,1331
862.060852,1329
862.178406,1315
862.295959,1270
862.413513,1325
862.531006,1321
862.64856,1316
862.766113,1298
862.883667,1332
863.00116,1292
863.118713,1325
863.236206,1349
863.353699,1328
863.471252,1321
863.588745,1328
863.706177,1316
863.82373,1321
863.941162,1298
864.058716,1332
864.176208,1328
864.29364,1341
864.411194,1331
864.528687,1353
864.646118,1337
864.763611,1342
864.881042,1311
864.998535,1318
865.116028,1354
865.233459,1354
865.350891,1319
865.468384,1344
865.585754,1320
865.703308,1323
865.820679,1311
865.938171,1370
866.055542,1321
866.173035,1309
866.290466,1346
866.407837,1300
866.52533,1351
866.6427,1353
866.760071,1354
866.877563,1343
866.994934,1323
867.112305,1331
867.229736,1338
867.347107,1344
867.464539,1339
867.58197,1366
867.699341,1356
867.81665,1349
867.934082,1334
868.051453,1327
868.168823,1313
868.286194,1338
868.403564,1332
868.520935,1294
868.638306,1318
868.755676,1319
868.872986,1309
868.990295,1347
869.107727,1363
869.225037,1320
869.342346,1326
869.459717,1334
869.577026,1325
869.694336,1336
869.811707,1365
869.929016,1323
870.046326,1385
870.163635,1359
870.280945,1350
870.398254,1341
870.515564,1347
870.632812,1349
870.750183,1339
870.867432,1326
870.984741,1367
871.102051,1359
871.219299,1334
871.336609,1335
871.453918,1338
871.571106,1372
871.688416,1366
871.805664,1362
871.922852,1355
872.040222,1348
872.157471,1340
872.274719,1352
872.391968,1399
872.509155,1375
872.626465,1326
872.743652,1351
872.860962,1372
872.978149,1367
873.095337,1347
873.212646,1330
873.329834,1368
873.44696,1353
873.564209,1345
873.681396,1391
873.798645,1366
873.915894,1372
874.03302,1362
874.150208,1375
874.267456,1332
874.384583,1319
874.501831,1366
874.618958,1342
874.736145,1373
874.853333,1342
874.970459,1351
875.087646,1330
875.204834,1339
875.32196,1365
875.439148,1351
875.556274,1324
875.673401,1355
875.790527,1381
875.907715,1328
876.024841,1342
876.141968,1347
876.259094,1349
876.376282,1384
876.493347,1352
876.610474,1383
876.7276,1340
876.844727,1368
876.961853,1368
877.078918,1356
877.195984,1333
877.313171,1385
877.430237,1356
877.547302,1398
877.664368,1318
877.781433,1364
877.898499,1355
878.015625,1364
878.13269,1394
878.249695,1356
878.366821,1317
878.483887,1371
878.600952,1339
878.717957,1365
878.834961,1330
878.952087,1369
879.069092,1384
879.186157,1392
879.303162,1379
879.420227,1386
879.537231,1397
879.654236,1314
879.77124,1328
879.888306,1331
880.005249,1360
880.122314,1340
880.239319,1330
880.356323,1379
880.473328,1355
880.590271,1406
880.707275,1341
880.824341,1380
880.941284,1350
881.058228,1382
881.175232,1356
881.292236,1350
881.40918,1353
881.526123,1336
881.643066,1363
881.760071,1385
881.877014,1399
881.993958,1373
882.11084,1355
882.227783,1403
882.344727,1368
882.46167,1390
882.578613,1377
882.695618,1349
882.812439,1379
882.929382,1363
883.046326,1361
883.163208,1383
883.280151,1352
883.397034,1386
883.513916,1372
883.630798,1362
883.747742,1398
883.864563,1384
883.981506,1390
884.098389,1369
884.21521,1403
884.332153,1397
884.448975,1374
884.565796,1368
884.682678,1404
884.7995,1393
884.916443,1369
885.033264,1378
885.150085,1415
885.266968,1383
885.383789,1358
885.500671,1420
885.617493,1379
885.734314,1413
885.851196,1426
885.967896,1417
886.084717,1401
886.201599,1388
886.318359,1408
886.435181,1385
886.552002,1435
886.668762,1413
886.785645,1402
886.902344,1403
887.019165,1372
887.135925,1414
887.252747,1415
887.369446,1377
887.486267,1417
887.603027,1400
887.719788,1378
887.836548,1398
887.953247,1371
888.070068,1391
888.186829,1408
888.303528,1440
888.420288,1375
888.536987,1373
888.653687,1409
888.770447,1398
888.887146,1398
889.003967,1375
889.120667,1408
889.237305,1376
889.354065,1380
889.470703,1418
889.587463,1397
889.704163,1421
889.820862,1353
889.937561,1380
890.054199,1428
890.170837,1369
890.287598,1366
890.404236,1395
890.520874,1358
890.637634,1410
890.754211,1392
890.87085,1406
890.987549,1413
891.104187,1433
891.220886,1415
891.337463,1397
891.454102,1405
891.57074,1428
891.687378,1377
891.804077,1419
891.920654,1379
892.037231,1454
892.15387,1354
892.270447,1379
892.387085,1389
892.503723,1434
892.6203,1391
892.736877,1388
892.853516,1451
892.970032,1440
893.08667,1396
893.203186,1404
893.319763,1437
893.43634,1383
893.552917,1417
893.669556,1425
893.786011,1407
893.902588,1447
894.019165,1373
894.135681,1419
894.252197,1408
894.368835,1423
894.485291,1408
894.601868,1427
894.718384,1412
894.8349,1408
894.951355,1407
895.067932,1450
895.184448,1418
895.300964,1409
895.417419,1383
895.533936,1386
895.650452,1421
895.766907,1421
895.883423,1414
895.999878,1419
896.116333,1431
896.232849,1424
896.349304,1420
896.465759,1391
896.582214,1424
896.698669,1449
896.815125,1365
896.931641,1423
897.048035,1417
897.164551,1453
897.280884,1369
897.397339,1414
897.513794,1407
897.630249,1425
897.746582,1434
897.863098,1402
897.979431,1457
898.095886,1425
898.212341,1445
898.328674,1459
898.445129,1441
898.561462,1412
898.677795,1465
898.794312,1476
898.910645,1406
899.026978,1451
899.143433,1448
899.259766,1426
899.37616,1454
899.492493,1419
899.608765,1442
899.725159,1396
899.841553,1469
899.957947,1444
900.07428,1437
900.190552,1448
900.306946,1443
900.423157,1430
900.53949,1445
900.655884,1424
900.772156,1457
900.888489,1441
901.004822,1414
901.121033,1407
901.237366,1445
901.353699,1432
901.46991,1422
901.586304,1431
901.702515,1442
901.818787,1421
901.93512,1429
902.051331,1484
902.167603,1495
902.283875,1427
902.400085,1424
902.516418,1480
902.632629,1443
902.74884,1424
902.865112,1448
902.981384,1426
903.097595,1456
903.213867,1449
903.330017,1468
903.446289,1504
903.5625,1473
903.67865,1446
903.794922,1416
903.911072,1455
904.027344,1428
904.143494,1458
904.259705,1473
904.375916,1436
904.492065,1426
904.608215,1496
904.724426,1461
904.840576,1436
904.956726,1447
905.072876,1436
905.189087,1459
905.305176,1450
905.421387,1478
905.537537,1466
905.653687,1432
905.769775,1428
905.885925,1460
906.002014,1455
906.118164,1454
906.234314,1470
906.350403,1446
906.466492,1481
906.582642,1443
906.69873,1461
906.814758,1453
906.930908,1477
907.046936,1409
907.163086,1437
907.279175,1468
907.395264,1455
907.511353,1430
907.62738,1489
907.743408,1418
907.859497,1451
907.975525,1454
908.091553,1438
908.207703,1456
908.32373,1458
908.439758,1429
908.555786,1466
908.671814,1450
908.787842,1466
908.90387,1486
909.019775,1479
909.135864,1455
909.251892,1478
909.367859,1443
909.483826,1449
909.599854,1478
909.715881,1457
909.831848,1481
909.947815,1461
910.063782,1420
910.179749,1481
910.295776,1460
910.411743,1430
910.527649,1488
910.643616,1526
910.759583,1466
910.875488,1486
910.991455,1448
911.107361,1506
911.223267,1471
911.339294,1500
911.4552,1460
911.571106,1464
911.687073,1479
911.802979,1471
911.918823,1468
912.034729,1495
912.150635,1523
912.266602,1465
912.382446,1429
912.498352,1483
912.614197,1437
912.730103,1443
912.846008,1472
792.44574,1788
792.56488,1798
792.68396,1783
792.80304,1824
792.92218,1732
793.041199,1705
793.160339,1719
793.279419,1744
793.398499,1712
793.517578,1679
793.636658,1681
793.755737,1600
793.874817,1691
793.993896,1704
794.112976,1700
794.232056,1684
794.351074,1644
794.470215,1643
794.589233,1638
794.708313,1632
794.827393,1651
794.946411,1675
795.065552,1660
795.18457,1616
795.303589,1633
795.422668,1653
795.541687,1633
795.660767,1634
795.779846,1619
795.898865,1655
796.017883,1627
796.136963,1580
796.255981,1639
796.375061,1562
796.49408,1587
796.613037,1616
796.732117,1622
796.851135,1596
796.970154,1602
797.089233,1617
797.208191,1581
797.327271,1610
797.446228,1518
797.565186,1616
797.684265,1577
797.803223,1588
797.922241,1602
798.04126,1528
798.160278,1612
798.279297,1561
798.398315,1622
798.517273,1573
798.636292,1580
798.75531,1571
798.874268,1575
798.993286,1553
799.112244,1570
799.231323,1602
799.350281,1606
799.469238,1576
799.588257,1566
799.707153,1577
799.826111,1601
799.945129,1564
800.064087,1538
800.183044,1549
800.302063,1594
800.421021,1586
800.539978,1559
800.658936,1609
800.777893,1595
800.896912,1584
801.015747,1543
801.134705,1612
801.253723,1583
801.37262,1523
801.491638,1542
801.610535,1569
801.729492,1589
801.84845,1575
801.967407,1593
802.086243,1549
802.205261,1520
802.324158,1567
802.443115,1607
802.562073,1544
802.680969,1560
802.799927,1566
802.918762,1560
803.037659,1579
803.156677,1617
803.275574,1595
803.39447,1559
803.513428,1678
803.632263,1586
803.751221,1560
803.870117,1563
803.989014,1579
804.107971,1576
804.226746,1567
804.345642,1585
804.4646,1542
804.583496,1603
804.702393,1599
804.821228,1618
804.940125,1606
805.059021,1565
805.177917,1570
805.296814,1629
805.415649,1576
805.534546,1539
805.653442,1576
805.772278,1587
805.891113,1564
806.01001,1609
806.128906,1562
806.247742,1572
806.366577,1532
806.485413,1565
806.604309,1592
806.723145,1597
806.84198,1559
806.960876,1531
807.079712,1546
807.198486,1542
807.317383,1626
807.436218,1576
807.554993,1503
807.673889,1565
807.792725,1584
807.91156,1580
808.030396,1568
808.14917,1568
808.268005,1573
808.386841,1589
808.505676,1593
808.624451,1586
808.743286,1556
808.862122,1602
808.980896,1593
809.099731,1607
809.218506,1542
809.337341,1565
809.456116,1589
809.57489,1608
809.693726,1586
809.8125,1557
809.931274,1584
810.050049,1613
810.168884,1612
810.287659,1601
810.406372,1606
810.525269,1591
810.643982,1538
810.762756,1621
810.881531,1595
811.000305,1594
811.11908,1589
811.237854,1570
811.356567,1578
811.475403,1565
811.594116,1590
811.71283,1574
811.831604,1581
811.950378,1557
812.069153,1606
812.187927,1596
812.30658,1574
812.425415,1554
812.544128,1598
812.662781,1576
812.781616,1589
812.900269,1528
813.019043,1549
813.137756,1594
813.256531,1544
813.375244,1511
813.493896,1618
813.612671,1573
813.731384,1599
813.850037,1575
813.96875,1549
814.087524,1573
814.206238,1584
814.324951,1540
814.443604,1574
814.562256,1588
814.68103,1555
814.799683,1532
814.918335,1528
815.037109,1527
815.155762,1500
815.274475,1560
815.393188,1597
815.511841,1531
815.630554,1590
815.749146,1532
815.867859,1514
815.986572,1556
816.105164,1550
816.223877,1522
816.342529,1538
816.461182,1506
816.579895,1523
816.698486,1497
816.817139,1528
816.935791,1570
817.054504,1551
817.173096,1575
817.291748,1535
817.4104,1526
817.529053,1520
817.647644,1521
817.766235,1520
817.884949,1521
818.00354,1500
818.122192,1469
818.240845,1485
818.359436,1422
818.478088,1508
818.59668,1453
818.715271,1416
818.833923,1453
818.952515,1468
819.071106,1420
819.189758,1400
819.30835,1419
819.426941,1366
819.545532,1433
819.664124,1400
819.782715,1422
819.901306,1423
820.019897,1396
820.138489,1433
820.25708,1413
820.375671,1443
820.494202,1385
820.612732,1400
820.731384,1421
820.849915,1421
820.968506,1388
821.087097,1388
821.205627,1402
821.324158,1394
821.442749,1390
821.561279,1368
821.679871,1379
821.798401,1382
821.916931,1370
822.035461,1404
822.154053,1365
822.272583,1365
822.391174,1382
822.509583,1388
822.628174,1376
822.746704,1392
822.865234,1350
822.983765,1347
823.102295,1353
823.220825,1351
823.339294,1360
823.457825,1372
823.576355,1361
823.694824,1371
823.813354,1387
823.931885,1354
824.050354,1378
824.168884,1356
824.287354,1351
824.405823,1391
824.524353,1390
824.642822,1374
824.761353,1384
824.879822,1328
824.998291,1363
825.116699,1378
825.235291,1365
825.353699,1354
825.472168,1372
825.590637,1361
825.709106,1384
825.827576,1351
825.946045,1344
826.064453,1359
826.182983,1360
826.301392,1360
826.4198,1362
826.53833,1345
826.656738,1362
826.775208,1364
826.893677,1371
827.012024,1354
827.130493,1351
827.248962,1319
827.36731,1364
827.485779,1365
827.604248,1310
827.722595,1359
827.841064,1326
827.959412,1340
828.077942,1315
828.196289,1336
828.314636,1363
828.433105,1351
828.551514,1367
828.669861,1368
828.78833,1350
828.906677,1334
829.025085,1344
829.143433,1322
829.261841,1316
829.38031,1309
829.498657,1321
829.617004,1344
829.735413,1327
829.85376,1309
829.972107,1283
830.090515,1366
830.208862,1316
830.327209,1329
830.445557,1312
830.563904,1346
830.682312,1353
830.800659,1299
830.919006,1381
831.037354,1323
831.155701,1304
831.274048,1313
831.392395,1302
831.51062,1340
831.629028,1330
831.747314,1312
831.865662,1297
831.984009,1367
832.102356,1330
832.220642,1334
832.338928,1302
832.457275,1357
832.575623,1327
832.693909,1311
832.812134,1338
832.930481,1350
833.048828,1358
833.167114,1341
833.2854,1309
833.403687,1347
833.521973,1301
833.640259,1330
833.758545,1281
833.876831,1346
833.995056,1363
834.113281,1308
834.231628,1309
834.349915,1304
834.468201,1361
834.586426,1277
834.704651,1301
834.822998,1320
834.941162,1379
835.059448,1287
835.177673,1368
835.295959,1313
835.414246,1321
835.53241,1277
835.650635,1355
835.768921,1292
835.887146,1330
836.005371,1339
836.123596,1300
836.241821,1334
836.360046,1331
836.478271,1309
836.596497,1335
836.714722,1329
836.832886,1350
836.95105,1383
837.069336,1361
837.1875,1320
837.305725,1340
837.423889,1338
837.542053,1333
837.660339,1331
837.778503,1347
837.896667,1333
838.014832,1345
838.132996,1367
838.25116,1312
838.369385,1333
838.487488,1326
838.605713,1358
838.723877,1355
838.84198,1341
838.960205,1340
839.078308,1304
839.196472,1368
839.314636,1313
839.4328,1330
839.550964,1309
839.669067,1332
839.787231,1321
839.905396,1335
840.023499,1273
840.141602,1334
840.259766,1324
840.377869,1380
840.495972,1311
840.614136,1287
840.732239,1314
840.850342,1337
840.968445,1305
841.086548,1335
841.204651,1359
841.322754,1309
841.440918,1351
841.55896,1353
841.677002,1296
841.795166,1320
841.913208,1317
842.031311,1318
842.149353,1301
842.267456,1349
842.385498,1346
842.503601,1347
842.621643,1345
842.739746,1326
842.857788,1312
842.97583,1353
843.093933,1293
843.211975,1312
843.330017,1298
843.44812,1312
843.566101,1331
843.684204,1303
843.802246,1307
843.920227,1379
844.038269,1313
844.156311,1292
844.274292,1282
844.392395,1299
844.510376,1343
844.628357,1295
844.74646,1309
844.864441,1308
844.982422,1313
845.100403,1309
845.218384,1328
845.336426,1330
845.454468,1296
845.572449,1314
845.69043,1291
845.808411,1314
845.926453,1331
846.044373,1303
846.162354,1322
846.280396,1291
846.398315,1288
846.516296,1285
846.634216,1345
846.752197,1307
846.870178,1299
846.988098,1310
847.106079,1300
847.22406,1306
847.34198,1300
847.4599,1331
847.577881,1338
847.695801,1281
847.813782,1350
847.931641,1336
848.049561,1352
848.167603,1301
848.285461,1330
848.403381,1340
848.521362,1347
848.639221,1308
848.75708,1288
848.875,1289
848.99292,1349
849.110901,1308
849.22876,1321
849.34668,1310
849.464539,1349
849.582458,1296
849.700317,1314
849.818176,1311
849.936096,1339
850.053955,1308
850.171875,1300
850.289673,1308
850.407593,1331
850.525452,1342
850.643311,1308
850.761169,1320
850.878967,1325
850.996887,1352
851.114746,1363
851.232544,1326
851.350403,1331
851.468262,1335
851.58606,1310
851.703979,1313
851.821777,1318
851.939636,1317
852.057434,1282
852.175232,1337
852.293091,1351
852.410889,1331
852.528687,1312
852.646545,1345
852.764343,1340
852.88208,1304
852.999939,1347
853.117676,1362
853.235535,1287
853.353271,1317
853.471069,1298
853.588928,1342
853.706604,1348
853.824402,1300
853.9422,1318
854.059998,1326
854.177734,1303
854.295532,1343
854.413269,1333
854.531006,1347
854.648804,1344
854.766541,1338
854.884277,1319
855.002014,1328
855.119751,1316
855.237549,1346
855.355225,1349
855.473022,1327
855.590698,1331
855.708435,1343
855.826172,1352
855.943848,1366
856.061646,1341
856.179321,1317
856.296997,1347
856.414795,1325
856.53241,1306
856.650085,1363
856.767822,1336
856.885559,1354
857.003174,1278
857.120911,1337
857.238586,1364
857.356201,1320
857.473938,1344
857.591614,1348
857.709351,1353
857.826965,1345
857.944641,1347
858.062317,1333
858.179993,1335
858.297668,1351
858.415283,1351
858.532959,1297
858.650574,1328
858.768188,1343
858.885803,1298
859.003479,1380
859.121094,1335
859.23877,1370
859.356384,1314
859.473999,1359
859.591675,1324
859.709229,1378
859.826843,1332
859.944458,1323
860.062012,1324
860.179626,1344
860.297302,1330
860.414856,1342
860.532471,1375
860.650024,1348
860.767639,1327
860.885193,1359
861.002808,1340
861.120361,1334
861.237976,1371
861.35553,1349
861.473022,1345
861.590698,1331
861.708191,1329
861.825745,1344
861.943298,1336
862.060852,1348
862.178406,1339
862.295959,1330
862.413513,1318
862.531006,1313
862.64856,1318
862.766113,1351
862.883667,1341
863.00116,1355
863.118713,1321
863.236206,1336
863.353699,1350
863.471252,1343
863.588745,1358
863.706177,1337
863.82373,1345
863.941162,1306
864.058716,1343
864.176208,1372
864.29364,1355
864.411194,1331
864.528687,1338
864.646118,1354
864.763611,1362
864.881042,1324
864.998535,1339
865.116028,1342
865.233459,1304
865.350891,1335
865.468384,1385
865.585754,1388
865.703308,1348
865.820679,1337
865.938171,1342
866.055542,1326
866.173035,1329
866.290466,1323
866.407837,1340
866.52533,1302
866.6427,1392
866.760071,1351
866.877563,1315
866.994934,1374
867.112305,1345
867.229736,1372
867.347107,1368
867.464539,1354
867.58197,1335
867.699341,1348
867.81665,1356
867.934082,1313
868.051453,1367
868.168823,1370
868.286194,1377
868.403564,1359
868.520935,1365
868.638306,1330
868.755676,1308
868.872986,1374
868.990295,1346
869.107727,1364
869.225037,1345
869.342346,1348
869.459717,1322
869.577026,1362
869.694336,1377
869.811707,1351
869.929016,1363
870.046326,1395
870.163635,1375
870.280945,1377
870.398254,1334
870.515564,1354
870.632812,1372
870.750183,1367
870.867432,1335
870.984741,1342
871.102051,1339
871.219299,1332
871.336609,1386
871.453918,1375
871.571106,1358
871.688416,1372
871.805664,1367
871.922852,1351
872.040222,1378
872.157471,1374
872.274719,1365
872.391968,1352
872.509155,1330
872.626465,1380
872.743652,1331
872.860962,1367
872.978149,1300
873.095337,1356
873.212646,1345
873.329834,1348
873.44696,1348
873.564209,1347
873.681396,1384
873.798645,1355
873.915894,1363
874.03302,1389
874.150208,1359
874.267456,1352
874.384583,1346
874.501831,1364
874.618958,1325
874.736145,1370
874.853333,1322
874.970459,1398
875.087646,1356
875.204834,1361
875.32196,1340
875.439148,1364
875.556274,1385
875.673401,1353
875.790527,1342
875.907715,1338
876.024841,1373
876.141968,1351
876.259094,1339
876.376282,1379
876.493347,1387
876.610474,1367
876.7276,1381
876.844727,1391
876.961853,1399
877.078918,1365
877.195984,1388
877.313171,1373
877.430237,1390
877.547302,1346
877.664368,1361
877.781433,1439
877.898499,1342
878.015625,1387
878.13269,1340
878.249695,1394
878.366821,1360
878.483887,1422
878.600952,1354
878.717957,1369
878.834961,1394
878.952087,1390
879.069092,1373
879.186157,1395
879.303162,1354
879.420227,1370
879.537231,1404
879.654236,1355
879.77124,1365
879.888306,1379
880.005249,1384
880.122314,1370
880.239319,1389
880.356323,1418
880.473328,1398
880.590271,1386
880.707275,1372
880.824341,1355
880.941284,1391
881.058228,1401
881.175232,1396
881.292236,1390
881.40918,1430
881.526123,1339
881.643066,1352
881.760071,1372
881.877014,1418
881.993958,1396
882.11084,1407
882.227783,1399
882.344727,1367
882.46167,1365
882.578613,1393
882.695618,1403
882.812439,1368
882.929382,1408
883.046326,1395
883.163208,1398
883.280151,1388
883.397034,1405
883.513916,1412
883.630798,1387
883.747742,1409
883.864563,1406
883.981506,1422
884.098389,1438
884.21521,1369
884.332153,1393
884.448975,1382
884.565796,1377
884.682678,1376
884.7995,1397
884.916443,1418
885.033264,1403
885.150085,1390
885.266968,1409
885.383789,1396
885.500671,1390
885.617493,1431
885.734314,1390
885.851196,1378
885.967896,1459
886.084717,1437
886.201599,1446
886.318359,1439
886.435181,1375
886.552002,1436
886.668762,1393
886.785645,1414
886.902344,1394
887.019165,1389
887.135925,1390
887.252747,1404
887.369446,1444
887.486267,1391
887.603027,1415
887.719788,1379
887.836548,1408
887.953247,1407
888.070068,1341
888.186829,1385
888.303528,1392
888.420288,1421
888.536987,1387
888.653687,1403
888.770447,1443
888.887146,1415
889.003967,1464
889.120667,1416
889.237305,1419
889.354065,1389
889.470703,1407
889.587463,1349
889.704163,1429
889.820862,1391
889.937561,1415
890.054199,1405
890.170837,1444
890.287598,1410
890.404236,1408
890.520874,1440
890.637634,1444
890.754211,1458
890.87085,1391
890.987549,1405
891.104187,1421
891.220886,1447
891.337463,1424
891.454102,1423
891.57074,1445
891.687378,1419
891.804077,1411
891.920654,1380
892.037231,1413
892.15387,1405
892.270447,1412
892.387085,1448
892.503723,1398
892.6203,1442
892.736877,1420
892.853516,1386
892.970032,1434
893.08667,1406
893.203186,1437
893.319763,1424
893.43634,1423
893.552917,1403
893.669556,1407
893.786011,1428
893.902588,1469
894.019165,1441
894.135681,1438
894.252197,1431
894.368835,1479
894.485291,1426
894.601868,1460
894.718384,1424
894.8349,1435
894.951355,1452
895.067932,1371
895.184448,1405
895.300964,1443
895.417419,1450
895.533936,1443
895.650452,1405
895.766907,1466
895.883423,1442
895.999878,1409
896.116333,1465
896.232849,1452
896.349304,1467
896.465759,1405
896.582214,1450
896.698669,1460
896.815125,1403
896.931641,1419
897.048035,1413
897.164551,1441
897.280884,1445
897.397339,1413
897.513794,1431
897.630249,1412
897.746582,1408
897.863098,1440
897.979431,1400
898.095886,1432
898.212341,1422
898.328674,1508
898.445129,1475
898.561462,1399
898.677795,1436
898.794312,1420
898.910645,1414
899.026978,1412
899.143433,1391
899.259766,1487
899.37616,1394
899.492493,1436
899.608765,1435
899.725159,1456
899.841553,1439
899.957947,1467
900.07428,1440
900.190552,1467
900.306946,1460
900.423157,1464
900.53949,1449
900.655884,1473
900.772156,1472
900.888489,1420
901.004822,1443
901.121033,1432
901.237366,1488
901.353699,1423
901.46991,1448
901.586304,1445
901.702515,1483
901.818787,1405
901.93512,1416
902.051331,1449
902.167603,1438
902.283875,1458
902.400085,1433
902.516418,1462
902.632629,1461
902.74884,1433
902.865112,1457
902.981384,1450
903.097595,1452
903.213867,1455
903.330017,1456
903.446289,1471
903.5625,1453
903.67865,1478
903.794922,1496
903.911072,1465
904.027344,1497
904.143494,1488
904.259705,1422
904.375916,1443
904.492065,1462
904.608215,1461
904.724426,1508
904.840576,1480
904.956726,1464
905.072876,1436
905.189087,1457
905.305176,1470
905.421387,1477
905.537537,1475
905.653687,1465
905.769775,1487
905.885925,1494
906.002014,1481
906.118164,1489
906.234314,1460
906.350403,1504
906.466492,1472
906.582642,1455
906.69873,1484
906.814758,1517
906.930908,1472
907.046936,1468
907.163086,1448
907.279175,1476
907.395264,1511
907.511353,1480
907.62738,1494
907.743408,1504
907.859497,1496
907.975525,1478
908.091553,1479
908.207703,1482
908.32373,1476
908.439758,1497
908.555786,1441
908.671814,1473
908.787842,1450
908.90387,1464
909.019775,1500
909.135864,1519
909.251892,1482
909.367859,1495
909.483826,1480
909.599854,1475
909.715881,1501
909.831848,1507
909.947815,1519
910.063782,1507
910.179749,1480
910.295776,1493
910.411743,1496
910.527649,1466
910.643616,1513
910.759583,1461
910.875488,1505
910.991455,1494
911.107361,1472
911.223267,1450
911.339294,1504
911.4552,1534
911.571106,1499
911.687073,1485
911.802979,1507
911.918823,1505
912.034729,1468
912.150635,1442
912.266602,1476
912.382446,1458
912.498352,1483
912.614197,1441
912.730103,1481
912.846008,1479
