792.44574,2100
792.56488,2081
792.68396,2081
792.80304,2045
792.92218,2082
793.041199,2043
793.160339,2013
793.279419,2036
793.398499,2028
793.517578,1996
793.636658,2009
793.755737,2004
793.874817,2004
793.993896,2069
794.112976,1988
794.232056,1935
794.351074,1935
794.470215,2000
794.589233,1961
794.708313,1982
794.827393,1994
794.946411,1982
795.065552,1939
795.18457,1914
795.303589,1938
795.422668,1941
795.541687,1983
795.660767,1920
795.779846,1930
795.898865,1904
796.017883,1966
796.136963,1928
796.255981,1942
796.375061,1909
796.49408,1913
796.613037,1949
796.732117,1941
796.851135,1926
796.970154,1861
797.089233,1962
797.208191,1914
797.327271,1898
797.446228,1926
797.565186,1924
797.684265,1933
797.803223,1880
797.922241,1897
798.04126,1901
798.160278,1864
798.279297,1914
798.398315,1868
798.517273,1924
798.636292,1912
798.75531,1846
798.874268,1884
798.993286,1957
799.112244,1876
799.231323,1887
799.350281,1930
799.469238,1937
799.588257,1894
799.707153,1854
799.826111,1864
799.945129,1889
800.064087,1876
800.183044,1892
800.302063,1925
800.421021,1944
800.539978,1913
800.658936,1951
800.777893,1872
800.896912,1861
801.015747,1923
801.134705,1900
801.253723,1920
801.37262,1950
801.491638,1919
801.610535,1927
801.729492,1940
801.84845,1941
801.967407,1909
802.086243,1970
802.205261,1935
802.324158,1931
802.443115,1925
802.562073,1941
802.680969,1973
802.799927,1994
802.918762,1988
803.037659,1960
803.156677,1991
803.275574,1996
803.39447,1977
803.513428,1917
803.632263,2023
803.751221,1952
803.870117,1995
803.989014,2012
804.107971,2022
804.226746,2024
804.345642,1985
804.4646,2004
804.583496,1995
804.702393,2049
804.821228,2018
804.940125,1992
805.059021,2015
805.177917,2036
805.296814,1990
805.415649,2029
805.534546,2056
805.653442,2021
805.772278,2078
805.891113,2047
806.01001,2119
806.128906,2055
806.247742,2080
806.366577,2065
806.485413,2012
806.604309,2113
806.723145,2125
806.84198,1991
806.960876,2067
807.079712,2059
807.198486,2074
807.317383,2086
807.436218,2024
807.554993,2043
807.673889,2114
807.792725,2103
807.91156,2121
808.030396,2171
808.14917,2139
808.268005,2116
808.386841,2173
808.505676,2166
808.624451,2136
808.743286,2158
808.862122,2098
808.980896,2177
809.099731,2139
809.218506,2152
809.337341,2141
809.456116,2174
809.57489,2142
809.693726,2153
809.8125,2151
809.931274,2147
810.050049,2127
810.168884,2201
810.287659,2189
810.406372,2230
810.525269,2182
810.643982,2138
810.762756,2153
810.881531,2121
811.000305,2163
811.11908,2201
811.237854,2143
811.356567,2168
811.475403,2211
811.594116,2177
811.71283,2153
811.831604,2186
811.950378,2190
812.069153,2125
812.187927,2204
812.30658,2269
812.425415,2131
812.544128,2167
812.662781,2221
812.781616,2165
812.900269,2197
813.019043,2190
813.137756,2167
813.256531,2184
813.375244,2204
813.493896,2161
813.612671,2166
813.731384,2218
813.850037,2176
813.96875,2163
814.087524,2178
814.206238,2130
814.324951,2132
814.443604,2170
814.562256,2171
814.68103,2134
814.799683,2189
814.918335,2131
815.037109,2124
815.155762,2161
815.274475,2109
815.393188,2103
815.511841,2110
815.630554,2120
815.749146,2059
815.867859,2083
815.986572,2074
816.105164,2109
816.223877,2084
816.342529,2063
816.461182,2132
816.579895,2157
816.698486,2034
816.817139,2126
816.935791,2122
817.054504,2131
817.173096,2142
817.291748,2092
817.4104,2080
817.529053,2039
817.647644,1995
817.766235,1999
817.884949,1962
818.00354,1851
818.122192,1870
818.240845,1811
818.359436,1799
818.478088,1787
818.59668,1720
818.715271,1711
818.833923,1689
818.952515,1646
819.071106,1639
819.189758,1643
819.30835,1646
819.426941,1579
819.545532,1584
819.664124,1580
819.782715,1593
819.901306,1540
820.019897,1542
820.138489,1510
820.25708,1547
820.375671,1544
820.494202,1541
820.612732,1542
820.731384,1500
820.849915,1491
820.968506,1519
821.087097,1491
821.205627,1447
821.324158,1467
821.442749,1502
821.561279,1473
821.679871,1433
821.798401,1491
821.916931,1450
822.035461,1456
822.154053,1481
822.272583,1401
822.391174,1458
822.509583,1453
822.628174,1449
822.746704,1495
822.865234,1429
822.983765,1486
823.102295,1455
823.220825,1450
823.339294,1461
823.457825,1439
823.576355,1457
823.694824,1494
823.813354,1447
823.931885,1473
824.050354,1478
824.168884,1469
824.287354,1490
824.405823,1491
824.524353,1514
824.642822,1484
824.761353,1493
824.879822,1468
824.998291,1498
825.116699,1468
825.235291,1471
825.353699,1521
825.472168,1449
825.590637,1476
825.709106,1461
825.827576,1422
825.946045,1403
826.064453,1440
826.182983,1387
826.301392,1401
826.4198,1414
826.53833,1403
826.656738,1386
826.775208,1369
826.893677,1410
827.012024,1376
827.130493,1371
827.248962,1365
827.36731,1372
827.485779,1358
827.604248,1369
827.722595,1381
827.841064,1365
827.959412,1378
828.077942,1364
828.196289,1359
828.314636,1337
828.433105,1332
828.551514,1356
828.669861,1295
828.78833,1332
828.906677,1347
829.025085,1335
829.143433,1319
829.261841,1354
829.38031,1353
829.498657,1382
829.617004,1360
829.735413,1354
829.85376,1341
829.972107,1327
830.090515,1383
830.208862,1315
830.327209,1300
830.445557,1391
830.563904,1340
830.682312,1359
830.800659,1339
830.919006,1347
831.037354,1328
831.155701,1345
831.274048,1352
831.392395,1330
831.51062,1337
831.629028,1398
831.747314,1304
831.865662,1332
831.984009,1339
832.102356,1353
832.220642,1341
832.338928,1372
832.457275,1347
832.575623,1335
832.693909,1297
832.812134,1362
832.930481,1324
833.048828,1330
833.167114,1323
833.2854,1336
833.403687,1351
833.521973,1341
833.640259,1368
833.758545,1347
833.876831,1353
833.995056,1348
834.113281,1329
834.231628,1372
834.349915,1360
834.468201,1328
834.586426,1352
834.704651,1340
834.822998,1343
834.941162,1324
835.059448,1335
835.177673,1343
835.295959,1353
835.414246,1366
835.53241,1302
835.650635,1383
835.768921,1320
835.887146,1334
836.005371,1378
836.123596,1378
836.241821,1346
836.360046,1373
836.478271,1380
836.596497,1431
836.714722,1440
836.832886,1384
836.95105,1416
837.069336,1465
837.1875,1400
837.305725,1459
837.423889,1425
837.542053,1413
837.660339,1450
837.778503,1453
837.896667,1411
838.014832,1413
838.132996,1471
838.25116,1427
838.369385,1407
838.487488,1448
838.605713,1419
838.723877,1433
838.84198,1491
838.960205,1396
839.078308,1405
839.196472,1405
839.314636,1434
839.4328,1439
839.550964,1442
839.669067,1400
839.787231,1420
839.905396,1437
840.023499,1401
840.141602,1418
840.259766,1411
840.377869,1376
840.495972,1427
840.614136,1396
840.732239,1381
840.850342,1401
840.968445,1367
841.086548,1376
841.204651,1351
841.322754,1377
841.440918,1368
841.55896,1400
841.677002,1354
841.795166,1387
841.913208,1355
842.031311,1347
842.149353,1337
842.267456,1375
842.385498,1345
842.503601,1357
842.621643,1337
842.739746,1311
842.857788,1312
842.97583,1292
843.093933,1327
843.211975,1346
843.330017,1363
843.44812,1326
843.566101,1306
843.684204,1292
843.802246,1324
843.920227,1347
844.038269,1295
844.156311,1348
844.274292,1338
844.392395,1319
844.510376,1313
844.628357,1315
844.74646,1334
844.864441,1307
844.982422,1297
845.100403,1351
845.218384,1317
845.336426,1283
845.454468,1331
845.572449,1299
845.69043,1342
845.808411,1323
845.926453,1341
846.044373,1309
846.162354,1310
846.280396,1276
846.398315,1330
846.516296,1325
846.634216,1261
846.752197,1303
846.870178,1344
846.988098,1283
847.106079,1349
847.22406,1328
847.34198,1253
847.4599,1313
847.577881,1305
847.695801,1352
847.813782,1310
847.931641,1335
848.049561,1312
848.167603,1299
848.285461,1316
848.403381,1324
848.521362,1333
848.639221,1300
848.75708,1269
848.875,1295
848.99292,1314
849.110901,1305
849.22876,1313
849.34668,1304
849.464539,1303
849.582458,1272
849.700317,1280
849.818176,1320
849.936096,1294
850.053955,1283
850.171875,1315
850.289673,1299
850.407593,1323
850.525452,1297
850.643311,1314
850.761169,1365
850.878967,1308
850.996887,1323
851.114746,1346
851.232544,1291
851.350403,1334
851.468262,1304
851.58606,1328
851.703979,1353
851.821777,1334
851.939636,1348
852.057434,1326
852.175232,1324
852.293091,1386
852.410889,1335
852.528687,1339
852.646545,1341
852.764343,1333
852.88208,1355
852.999939,1315
853.117676,1330
853.235535,1350
853.353271,1309
853.471069,1312
853.588928,1305
853.706604,1342
853.824402,1340
853.9422,1353
854.059998,1301
854.177734,1311
854.295532,1356
854.413269,1360
854.531006,1378
854.648804,1337
854.766541,1360
854.884277,1352
855.002014,1372
855.119751,1337
855.237549,1372
855.355225,1324
855.473022,1386
855.590698,1367
855.708435,1366
855.826172,1344
855.943848,1376
856.061646,1398
856.179321,1358
856.296997,1355
856.414795,1357
856.53241,1379
856.650085,1402
856.767822,1338
856.885559,1384
857.003174,1395
857.120911,1389
857.238586,1357
857.356201,1399
857.473938,1360
857.591614,1363
857.709351,1366
857.826965,1367
857.944641,1362
858.062317,1360
858.179993,1375
858.297668,1367
858.415283,1365
858.532959,1389
858.650574,1388
858.768188,1397
858.885803,1366
859.003479,1341
859.121094,1335
859.23877,1374
859.356384,1334
859.473999,1347
859.591675,1321
859.709229,1367
859.826843,1381
859.944458,1351
860.062012,1365
860.179626,1371
860.297302,1409
860.414856,1356
860.532471,1368
860.650024,1375
860.767639,1386
860.885193,1364
861.002808,1354
861.120361,1378
861.237976,1338
861.35553,1359
861.473022,1294
861.590698,1363
861.708191,1362
861.825745,1385
861.943298,1369
862.060852,1375
862.178406,1373
862.295959,1414
862.413513,1356
862.531006,1356
862.64856,1390
862.766113,1354
862.883667,1363
863.00116,1360
863.118713,1353
863.236206,1333
863.353699,1392
863.471252,1334
863.588745,1347
863.706177,1395
863.82373,1357
863.941162,1408
864.058716,1398
864.176208,1367
864.29364,1358
864.411194,1366
864.528687,1355
864.646118,1376
864.763611,1372
864.881042,1412
864.998535,1377
865.116028,1346
865.233459,1426
865.350891,1382
865.468384,1363
865.585754,1382
865.703308,1367
865.820679,1390
865.938171,1366
866.055542,1369
866.173035,1380
866.290466,1349
866.407837,1421
866.52533,1360
866.6427,1383
866.760071,1408
866.877563,1377
866.994934,1385
867.112305,1385
867.229736,1416
867.347107,1412
867.464539,1369
867.58197,1429
867.699341,1396
867.81665,1363
867.934082,1414
868.051453,1409
868.168823,1403
868.286194,1368
868.403564,1345
868.520935,1392
868.638306,1420
868.755676,1435
868.872986,1381
868.990295,1416
869.107727,1417
869.225037,1374
869.342346,1384
869.459717,1406
869.577026,1362
869.694336,1407
869.811707,1386
869.929016,1370
870.046326,1406
870.163635,1366
870.280945,1424
870.398254,1374
870.515564,1364
870.632812,1382
870.750183,1422
870.867432,1390
870.984741,1398
871.102051,1402
871.219299,1378
871.336609,1378
871.453918,1373
871.571106,1400
871.688416,1359
871.805664,1403
871.922852,1398
872.040222,1352
872.157471,1385
872.274719,1334
872.391968,1377
872.509155,1387
872.626465,1386
872.743652,1412
872.860962,1368
872.978149,1392
873.095337,1387
873.212646,1439
873.329834,1364
873.44696,1392
873.564209,1387
873.681396,1354
873.798645,1380
873.915894,1410
874.03302,1372
874.150208,1415
874.267456,1392
874.384583,1368
874.501831,1376
874.618958,1396
874.736145,1391
874.853333,1367
874.970459,1373
875.087646,1381
875.204834,1384
875.32196,1383
875.439148,1394
875.556274,1427
875.673401,1398
875.790527,1424
875.907715,1390
876.024841,1381
876.141968,1440
876.259094,1415
876.376282,1382
876.493347,1398
876.610474,1381
876.7276,1415
876.844727,1365
876.961853,1364
877.078918,1424
877.195984,1432
877.313171,1385
877.430237,1424
877.547302,1397
877.664368,1405
877.781433,1393
877.898499,1396
878.015625,1379
878.13269,1379
878.249695,1393
878.366821,1431
878.483887,1397
878.600952,1433
878.717957,1377
878.834961,1412
878.952087,1432
879.069092,1393
879.186157,1397
879.303162,1423
879.420227,1434
879.537231,1406
879.654236,1410
879.77124,1413
879.888306,1447
880.005249,1415
880.122314,1394
880.239319,1423
880.356323,1438
880.473328,1385
880.590271,1371
880.707275,1400
880.824341,1413
880.941284,1397
881.058228,1417
881.175232,1410
881.292236,1423
881.40918,1400
881.526123,1406
881.643066,1396
881.760071,1416
881.877014,1384
881.993958,1412
882.11084,1402
882.227783,1381
882.344727,1453
882.46167,1460
882.578613,1378
882.695618,1428
882.812439,1356
882.929382,1423
883.046326,1448
883.163208,1430
883.280151,1470
883.397034,1397
883.513916,1416
883.630798,1467
883.747742,1388
883.864563,1407
883.981506,1413
884.098389,1443
884.21521,1423
884.332153,1414
884.448975,1384
884.565796,1398
884.682678,1417
884.7995,1417
884.916443,1415
885.033264,1420
885.150085,1466
885.266968,1433
885.383789,1475
885.500671,1436
885.617493,1447
885.734314,1382
885.851196,1436
885.967896,1459
886.084717,1447
886.201599,1441
886.318359,1415
886.435181,1415
886.552002,1436
886.668762,1418
886.785645,1450
886.902344,1449
887.019165,1462
887.135925,1452
887.252747,1447
887.369446,1451
887.486267,1409
887.603027,1465
887.719788,1451
887.836548,1425
887.953247,1454
888.070068,1476
888.186829,1450
888.303528,1463
888.420288,1433
888.536987,1455
888.653687,1436
888.770447,1449
888.887146,1453
889.003967,1474
889.120667,1477
889.237305,1441
889.354065,1480
889.470703,1452
889.587463,1429
889.704163,1478
889.820862,1481
889.937561,1464
890.054199,1478
890.170837,1446
890.287598,1415
890.404236,1457
890.520874,1426
890.637634,1444
890.754211,1466
890.87085,1454
890.987549,1470
891.104187,1439
891.220886,1478
891.337463,1443
891.454102,1450
891.57074,1448
891.687378,1469
891.804077,1475
891.920654,1468
892.037231,1481
892.15387,1458
892.270447,1430
892.387085,1449
892.503723,1488
892.6203,1484
892.736877,1442
892.853516,1480
892.970032,1494
893.08667,1481
893.203186,1481
893.319763,1424
893.43634,1477
893.552917,1518
893.669556,1486
893.786011,1473
893.902588,1481
894.019165,1461
894.135681,1462
894.252197,1464
894.368835,1475
894.485291,1498
894.601868,1443
894.718384,1530
894.8349,1443
894.951355,1541
895.067932,1483
895.184448,1458
895.300964,1521
895.417419,1543
895.533936,1485
895.650452,1525
895.766907,1474
895.883423,1491
895.999878,1492
896.116333,1437
896.232849,1473
896.349304,1474
896.465759,1500
896.582214,1506
896.698669,1481
896.815125,1459
896.931641,1494
897.048035,1508
897.164551,1497
897.280884,1497
897.397339,1510
897.513794,1504
897.630249,1485
897.746582,1501
897.863098,1496
897.979431,1469
898.095886,1509
898.212341,1515
898.328674,1499
898.445129,1507
898.561462,1443
898.677795,1515
898.794312,1490
898.910645,1439
899.026978,1487
899.143433,1469
899.259766,1458
899.37616,1484
899.492493,1504
899.608765,1523
899.725159,1496
899.841553,1480
899.957947,1502
900.07428,1518
900.190552,1502
900.306946,1488
900.423157,1486
900.53949,1492
900.655884,1499
900.772156,1523
900.888489,1479
901.004822,1543
901.121033,1541
901.237366,1481
901.353699,1566
901.46991,1479
901.586304,1554
901.702515,1490
901.818787,1522
901.93512,1542
902.051331,1512
902.167603,1500
902.283875,1499
902.400085,1491
902.516418,1498
902.632629,1492
902.74884,1505
902.865112,1509
902.981384,1510
903.097595,1500
903.213867,1521
903.330017,1491
903.446289,1540
903.5625,1514
903.67865,1517
903.794922,1523
903.911072,1535
904.027344,1500
904.143494,1569
904.259705,1523
904.375916,1479
904.492065,1518
904.608215,1546
904.724426,1528
904.840576,1528
904.956726,1485
905.072876,1543
905.189087,1501
905.305176,1552
905.421387,1554
905.537537,1526
905.653687,1519
905.769775,1546
905.885925,1541
906.002014,1531
906.118164,1522
906.234314,1508
906.350403,1535
906.466492,1502
906.582642,1519
906.69873,1537
906.814758,1582
906.930908,1503
907.046936,1548
907.163086,1507
907.279175,1551
907.395264,1538
907.511353,1510
907.62738,1533
907.743408,1558
907.859497,1489
907.975525,1539
908.091553,1574
908.207703,1556
908.32373,1544
908.439758,1534
908.555786,1551
908.671814,1509
908.787842,1542
908.90387,1519
909.019775,1507
909.135864,1523
909.251892,1556
909.367859,1541
909.483826,1509
909.599854,1512
909.715881,1577
909.831848,1524
909.947815,1592
910.063782,1548
910.179749,1542
910.295776,1516
910.411743,1535
910.527649,1523
910.643616,1582
910.759583,1542
910.875488,1573
910.991455,1568
911.107361,1525
911.223267,1560
911.339294,1529
911.4552,1572
911.571106,1528
911.687073,1571
911.802979,1545
911.918823,1506
912.034729,1564
912.150635,1573
912.266602,1526
912.382446,1490
912.498352,1511
912.614197,1547
912.730103,1522
912.846008,1516
792.44574,2174
792.56488,2160
792.68396,2175
792.80304,2123
792.92218,2116
793.041199,2071
793.160339,2107
793.279419,2086
793.398499,2052
793.517578,2053
793.636658,2050
793.755737,2094
793.874817,2074
793.993896,2064
794.112976,2029
794.232056,2010
794.351074,2021
794.470215,1993
794.589233,1933
794.708313,2051
794.827393,1994
794.946411,1982
795.065552,1997
795.18457,1972
795.303589,1957
795.422668,2011
795.541687,1954
795.660767,1996
795.779846,2008
795.898865,1998
796.017883,2007
796.136963,1996
796.255981,1912
796.375061,1902
796.49408,1961
796.613037,1991
796.732117,1950
796.851135,1972
796.970154,1910
797.089233,1965
797.208191,1988
797.327271,1932
797.446228,1921
797.565186,1983
797.684265,1909
797.803223,1950
797.922241,1925
798.04126,1959
798.160278,1945
798.279297,1883
798.398315,1946
798.517273,1907
798.636292,1919
798.75531,1889
798.874268,1924
798.993286,1959
799.112244,1935
799.231323,1941
799.350281,1920
799.469238,1920
799.588257,1948
799.707153,1970
799.826111,1944
799.945129,1927
800.064087,1949
800.183044,1945
800.302063,1948
800.421021,1952
800.539978,1928
800.658936,1913
800.777893,1944
800.896912,1946
801.015747,1963
801.134705,1945
801.253723,1967
801.37262,1980
801.491638,1974
801.610535,1963
801.729492,1988
801.84845,1985
801.967407,1983
802.086243,2028
802.205261,1963
802.324158,2002
802.443115,2028
802.562073,1964
802.680969,2014
802.799927,2033
802.918762,2059
803.037659,2043
803.156677,2011
803.275574,2007
803.39447,2003
803.513428,2015
803.632263,2030
803.751221,2031
803.870117,2022
803.989014,2040
804.107971,2029
804.226746,2052
804.345642,2087
804.4646,2104
804.583496,2072
804.702393,2085
804.821228,2039
804.940125,2072
805.059021,2102
805.177917,2062
805.296814,2049
805.415649,2062
805.534546,2097
805.653442,2074
805.772278,2119
805.891113,2100
806.01001,2119
806.128906,2072
806.247742,2179
806.366577,2086
806.485413,2085
806.604309,2092
806.723145,2120
806.84198,2104
806.960876,2092
807.079712,2109
807.198486,2095
807.317383,2121
807.436218,2137
807.554993,2107
807.673889,2132
807.792725,2169
807.91156,2143
808.030396,2165
808.14917,2172
808.268005,2207
808.386841,2124
808.505676,2177
808.624451,2179
808.743286,2127
808.862122,2203
808.980896,2164
809.099731,2161
809.218506,2190
809.337341,2222
809.456116,2208
809.57489,2197
809.693726,2263
809.8125,2192
809.931274,2152
810.050049,2226
810.168884,2238
810.287659,2193
810.406372,2201
810.525269,2202
810.643982,2184
810.762756,2180
810.881531,2189
811.000305,2193
811.11908,2213
811.237854,2220
811.356567,2185
811.475403,2175
811.594116,2188
811.71283,2184
811.831604,2191
811.950378,2253
812.069153,2210
812.187927,2248
812.30658,2232
812.425415,2229
812.544128,2192
812.662781,2212
812.781616,2182
812.900269,2178
813.019043,2219
813.137756,2207
813.256531,2200
813.375244,2258
813.493896,2200
813.612671,2249
813.731384,2252
813.850037,2186
813.96875,2262
814.087524,2207
814.206238,2198
814.324951,2228
814.443604,2175
814.562256,2186
814.68103,2184
814.799683,2145
814.918335,2157
815.037109,2215
815.155762,2117
815.274475,2177
815.393188,2144
815.511841,2116
815.630554,2174
815.749146,2106
815.867859,2080
815.986572,2122
816.105164,2059
816.223877,2095
816.342529,2112
816.461182,2098
816.579895,2139
816.698486,2150
816.817139,2171
816.935791,2159
817.054504,2146
817.173096,2150
817.291748,2119
817.4104,2093
817.529053,2050
817.647644,2035
817.766235,1990
817.884949,2009
818.00354,1889
818.122192,1887
818.240845,1864
818.359436,1858
818.478088,1790
818.59668,1715
818.715271,1730
818.833923,1715
818.952515,1666
819.071106,1629
819.189758,1712
819.30835,1673
819.426941,1641
819.545532,1585
819.664124,1615
819.782715,1549
819.901306,1617
820.019897,1626
820.138489,1573
820.25708,1576
820.375671,1512
820.494202,1575
820.612732,1572
820.731384,1517
820.849915,1505
820.968506,1514
821.087097,1551
821.205627,1518
821.324158,1500
821.442749,1499
821.561279,1549
821.679871,1483
821.798401,1490
821.916931,1538
822.035461,1538
822.154053,1506
822.272583,1478
822.391174,1490
822.509583,1509
822.628174,1466
822.746704,1489
822.865234,1503
822.983765,1475
823.102295,1490
823.220825,1463
823.339294,1477
823.457825,1486
823.576355,1502
823.694824,1482
823.813354,1495
823.931885,1466
824.050354,1479
824.168884,1508
824.287354,1494
824.405823,1502
824.524353,1555
824.642822,1498
824.761353,1537
824.879822,1488
824.998291,1494
825.116699,1465
825.235291,1517
825.353699,1478
825.472168,1472
825.590637,1456
825.709106,1446
825.827576,1434
825.946045,1461
826.064453,1441
826.182983,1454
826.301392,1405
826.4198,1443
826.53833,1392
826.656738,1410
826.775208,1423
826.893677,1420
827.012024,1397
827.130493,1403
827.248962,1430
827.36731,1388
827.485779,1413
827.604248,1429
827.722595,1380
827.841064,1400
827.959412,1381
828.077942,1339
828.196289,1390
828.314636,1358
828.433105,1367
828.551514,1386
828.669861,1352
828.78833,1372
828.906677,1384
829.025085,1368
829.143433,1401
829.261841,1374
829.38031,1360
829.498657,1373
829.617004,1382
829.735413,1389
829.85376,1354
829.972107,1360
830.090515,1395
830.208862,1331
830.327209,1398
830.445557,1346
830.563904,1386
830.682312,1379
830.800659,1348
830.919006,1325
831.037354,1311
831.155701,1371
831.274048,1389
831.392395,1395
831.51062,1329
831.629028,1387
831.747314,1360
831.865662,1333
831.984009,1378
832.102356,1353
832.220642,1404
832.338928,1376
832.457275,1379
832.575623,1353
832.693909,1361
832.812134,1387
832.930481,1363
833.048828,1384
833.167114,1404
833.2854,1368
833.403687,1358
833.521973,1396
833.640259,1381
833.758545,1326
833.876831,1385
833.995056,1370
834.113281,1340
834.231628,1359
834.349915,1369
834.468201,1407
834.586426,1398
834.704651,1383
834.822998,1371
834.941162,1368
835.059448,1376
835.177673,1353
835.295959,1381
835.414246,1374
835.53241,1379
835.650635,1395
835.768921,1397
835.887146,1385
836.005371,1413
836.123596,1421
836.241821,1407
836.360046,1437
836.478271,1424
836.596497,1437
836.714722,1440
836.832886,1425
836.95105,1419
837.069336,1456
837.1875,1497
837.305725,1469
837.423889,1447
837.542053,1443
837.660339,1432
837.778503,1466
837.896667,1443
838.014832,1442
838.132996,1431
838.25116,1454
838.369385,1464
838.487488,1419
838.605713,1406
838.723877,1450
838.84198,1450
838.960205,1447
839.078308,1424
839.196472,1451
839.314636,1430
839.4328,1506
839.550964,1411
839.669067,1452
839.787231,1463
839.905396,1378
840.023499,1467
840.141602,1402
840.259766,1411
840.377869,1474
840.495972,1418
840.614136,1387
840.732239,1441
840.850342,1393
840.968445,1390
841.086548,1368
841.204651,1375
841.322754,1402
841.440918,1425
841.55896,1437
841.677002,1389
841.795166,1379
841.913208,1374
842.031311,1374
842.149353,1366
842.267456,1370
842.385498,1400
842.503601,1388
842.621643,1365
842.739746,1356
842.857788,1327
842.97583,1349
843.093933,1309
843.211975,1353
843.330017,1362
843.44812,1376
843.566101,1322
843.684204,1331
843.802246,1323
843.920227,1357
844.038269,1350
844.156311,1364
844.274292,1362
844.392395,1366
844.510376,1332
844.628357,1344
844.74646,1328
844.864441,1337
844.982422,1389
845.100403,1371
845.218384,1349
845.336426,1347
845.454468,1343
845.572449,1326
845.69043,1325
845.808411,1284
845.926453,1316
846.044373,1336
846.162354,1362
846.280396,1298
846.398315,1365
846.516296,1345
846.634216,1365
846.752197,1300
846.870178,1342
846.988098,1343
847.106079,1302
847.22406,1355
847.34198,1352
847.4599,1344
847.577881,1328
847.695801,1371
847.813782,1317
847.931641,1313
848.049561,1357
848.167603,1349
848.285461,1366
848.403381,1354
848.521362,1368
848.639221,1317
848.75708,1324
848.875,1334
848.99292,1361
849.110901,1391
849.22876,1384
849.34668,1313
849.464539,1336
849.582458,1375
849.700317,1334
849.818176,1350
849.936096,1364
850.053955,1333
850.171875,1362
850.289673,1328
850.407593,1344
850.525452,1322
850.643311,1372
850.761169,1322
850.878967,1375
850.996887,1343
851.114746,1331
851.232544,1315
851.350403,1330
851.468262,1351
851.58606,1347
851.703979,1387
851.821777,1350
851.939636,1372
852.057434,1371
852.175232,1365
852.293091,1323
852.410889,1353
852.528687,1379
852.646545,1346
852.764343,1361
852.88208,1362
852.999939,1344
853.117676,1332
853.235535,1362
853.353271,1353
853.471069,1375
853.588928,1380
853.706604,1361
853.824402,1365
853.9422,1383
854.059998,1379
854.177734,1347
854.295532,1366
854.413269,1388
854.531006,1369
854.648804,1376
854.766541,1411
854.884277,1350
855.002014,1377
855.119751,1391
855.237549,1387
855.355225,1428
855.473022,1415
855.590698,1398
855.708435,1351
855.826172,1386
855.943848,1408
856.061646,1386
856.179321,1410
856.296997,1377
856.414795,1356
856.53241,1402
856.650085,1385
856.767822,1396
856.885559,1404
857.003174,1396
857.120911,1443
857.238586,1378
857.356201,1398
857.473938,1404
857.591614,1367
857.709351,1418
857.826965,1393
857.944641,1438
858.062317,1416
858.179993,1385
858.297668,1353
858.415283,1406
858.532959,1366
858.650574,1372
858.768188,1378
858.885803,1417
859.003479,1373
859.121094,1386
859.23877,1395
859.356384,1405
859.473999,1398
859.591675,1365
859.709229,1441
859.826843,1347
859.944458,1360
860.062012,1391
860.179626,1368
860.297302,1392
860.414856,1370
860.532471,1355
860.650024,1388
860.767639,1373
860.885193,1396
861.002808,1391
861.120361,1419
861.237976,1408
861.35553,1383
861.473022,1390
861.590698,1350
861.708191,1412
861.825745,1403
861.943298,1389
862.060852,1397
862.178406,1376
862.295959,1394
862.413513,1389
862.531006,1372
862.64856,1378
862.766113,1390
862.883667,1418
863.00116,1404
863.118713,1386
863.236206,1362
863.353699,1382
863.471252,1389
863.588745,1433
863.706177,1396
863.82373,1396
863.941162,1398
864.058716,1399
864.176208,1387
864.29364,1439
864.411194,1388
864.528687,1397
864.646118,1401
864.763611,1397
864.881042,1386
864.998535,1380
865.116028,1407
865.233459,1418
865.350891,1396
865.468384,1426
865.585754,1397
865.703308,1408
865.820679,1385
865.938171,1424
866.055542,1400
866.173035,1446
866.290466,1399
866.407837,1384
866.52533,1427
866.6427,1407
866.760071,1400
866.877563,1403
866.994934,1405
867.112305,1403
867.229736,1422
867.347107,1423
867.464539,1448
867.58197,1442
867.699341,1413
867.81665,1434
867.934082,1414
868.051453,1435
868.168823,1404
868.286194,1418
868.403564,1396
868.520935,1404
868.638306,1411
868.755676,1381
868.872986,1427
868.990295,1417
869.107727,1417
869.225037,1396
869.342346,1402
869.459717,1401
869.577026,1421
869.694336,1415
869.811707,1393
869.929016,1396
870.046326,1415
870.163635,1438
870.280945,1394
870.398254,1390
870.515564,1410
870.632812,1421
870.750183,1418
870.867432,1431
870.984741,1378
871.102051,1405
871.219299,1402
871.336609,1401
871.453918,1384
871.571106,1381
871.688416,1387
871.805664,1425
871.922852,1422
872.040222,1441
872.157471,1424
872.274719,1397
872.391968,1395
872.509155,1396
872.626465,1383
872.743652,1383
872.860962,1427
872.978149,1409
873.095337,1385
873.212646,1398
873.329834,1388
873.44696,1424
873.564209,1416
873.681396,1409
873.798645,1450
873.915894,1382
874.03302,1432
874.150208,1428
874.267456,1379
874.384583,1390
874.501831,1411
874.618958,1393
874.736145,1412
874.853333,1399
874.970459,1428
875.087646,1400
875.204834,1437
875.32196,1387
875.439148,1409
875.556274,1372
875.673401,1418
875.790527,1418
875.907715,1394
876.024841,1389
876.141968,1447
876.259094,1434
876.376282,1431
876.493347,1414
876.610474,1416
876.7276,1466
876.844727,1440
876.961853,1429
877.078918,1424
877.195984,1431
877.313171,1427
877.430237,1432
877.547302,1430
877.664368,1410
877.781433,1420
877.898499,1442
878.015625,1399
878.13269,1392
878.249695,1433
878.366821,1459
878.483887,1406
878.600952,1423
878.717957,1433
878.834961,1438
878.952087,1390
879.069092,1439
879.186157,1467
879.303162,1420
879.420227,1448
879.537231,1440
879.654236,1443
879.77124,1416
879.888306,1471
880.005249,1407
880.122314,1458
880.239319,1446
880.356323,1381
880.473328,1463
880.590271,1436
880.707275,1440
880.824341,1404
880.941284,1408
881.058228,1423
881.175232,1447
881.292236,1425
881.40918,1441
881.526123,1396
881.643066,1467
881.760071,1475
881.877014,1417
881.993958,1474
882.11084,1460
882.227783,1445
882.344727,1458
882.46167,1442
882.578613,1488
882.695618,1476
882.812439,1431
882.929382,1455
883.046326,1457
883.163208,1492
883.280151,1438
883.397034,1513
883.513916,1431
883.630798,1431
883.747742,1493
883.864563,1446
883.981506,1431
884.098389,1447
884.21521,1441
884.332153,1478
884.448975,1403
884.565796,1467
884.682678,1416
884.7995,1500
884.916443,1451
885.033264,1415
885.150085,1451
885.266968,1434
885.383789,1448
885.500671,1414
885.617493,1446
885.734314,1512
885.851196,1461
885.967896,1423
886.084717,1476
886.201599,1485
886.318359,1473
886.435181,1468
886.552002,1446
886.668762,1450
886.785645,1453
886.902344,1492
887.019165,1489
887.135925,1422
887.252747,1498
887.369446,1546
887.486267,1467
887.603027,1463
887.719788,1444
887.836548,1461
887.953247,1477
888.070068,1468
888.186829,1459
888.303528,1476
888.420288,1495
888.536987,1434
888.653687,1526
888.770447,1445
888.887146,1480
889.003967,1497
889.120667,1439
889.237305,1471
889.354065,1500
889.470703,1432
889.587463,1457
889.704163,1491
889.820862,1500
889.937561,1495
890.054199,1471
890.170837,1518
890.287598,1469
890.404236,1497
890.520874,1526
890.637634,1524
890.754211,1487
890.87085,1499
890.987549,1462
891.104187,1480
891.220886,1535
891.337463,1462
891.454102,1484
891.57074,1504
891.687378,1518
891.804077,1520
891.920654,1497
892.037231,1529
892.15387,1549
892.270447,1462
892.387085,1479
892.503723,1474
892.6203,1462
892.736877,1511
892.853516,1499
892.970032,1530
893.08667,1513
893.203186,1491
893.319763,1526
893.43634,1523
893.552917,1531
893.669556,1502
893.786011,1530
893.902588,1490
894.019165,1483
894.135681,1537
894.252197,1508
894.368835,1539
894.485291,1488
894.601868,1539
894.718384,1519
894.8349,1514
894.951355,1526
895.067932,1529
895.184448,1509
895.300964,1570
895.417419,1506
895.533936,1534
895.650452,1509
895.766907,1498
895.883423,1534
895.999878,1459
896.116333,1516
896.232849,1506
896.349304,1553
896.465759,1543
896.582214,1491
896.698669,1546
896.815125,1457
896.931641,1532
897.048035,1511
897.164551,1562
897.280884,1455
897.397339,1540
897.513794,1524
897.630249,1537
897.746582,1535
897.863098,1534
897.979431,1495
898.095886,1495
898.212341,1557
898.328674,1530
898.445129,1514
898.561462,1580
898.677795,1516
898.794312,1529
898.910645,1534
899.026978,1529
899.143433,1536
899.259766,1508
899.37616,1541
899.492493,1553
899.608765,1487
899.725159,1550
899.841553,1524
899.957947,1524
900.07428,1522
900.190552,1555
900.306946,1544
900.423157,1565
900.53949,1511
900.655884,1542
900.772156,1510
900.888489,1516
901.004822,1523
901.121033,1536
901.237366,1480
901.353699,1529
901.46991,1544
901.586304,1531
901.702515,1530
901.818787,1544
901.93512,1566
902.051331,1576
902.167603,1526
902.283875,1558
902.400085,1519
902.516418,1536
902.632629,1564
902.74884,1583
902.865112,1568
902.981384,1590
903.097595,1542
903.213867,1562
903.330017,1520
903.446289,1522
903.5625,1570
903.67865,1560
903.794922,1605
903.911072,1559
904.027344,1537
904.143494,1544
904.259705,1596
904.375916,1561
904.492065,1520
904.608215,1582
904.724426,1540
904.840576,1525
904.956726,1518
905.072876,1556
905.189087,1543
905.305176,1579
905.421387,1550
905.537537,1571
905.653687,1515
905.769775,1566
905.885925,1577
906.002014,1579
906.118164,1551
906.234314,1545
906.350403,1601
906.466492,1579
906.582642,1555
906.69873,1578
906.814758,1581
906.930908,1569
907.046936,1582
907.163086,1589
907.279175,1567
907.395264,1549
907.511353,1568
907.62738,1539
907.743408,1541
907.859497,1600
907.975525,1586
908.091553,1535
908.207703,1557
908.32373,1591
908.439758,1565
908.555786,1575
908.671814,1587
908.787842,1599
908.90387,1563
909.019775,1595
909.135864,1549
909.251892,1557
909.367859,1558
909.483826,1526
909.599854,1581
909.715881,1586
909.831848,1577
909.947815,1562
910.063782,1562
910.179749,1613
910.295776,1572
910.411743,1535
910.527649,1554
910.643616,1609
910.759583,1560
910.875488,1665
910.991455,1551
911.107361,1605
911.223267,1585
911.339294,1589
911.4552,1590
911.571106,1593
911.687073,1613
911.802979,1568
911.918823,1549
912.034729,1584
912.150635,1582
912.266602,1583
912.382446,1584
912.498352,1584
912.614197,1584
912.730103,1584
912.846008,1559
792.44574,2229
792.56488,2184
792.68396,2214
792.80304,2113
792.92218,2107
793.041199,2065
793.160339,2101
793.279419,2101
793.398499,2117
793.517578,2068
793.636658,2074
793.755737,2106
793.874817,2151
793.993896,2041
794.112976,2028
794.232056,2058
794.351074,2036
794.470215,2055
794.589233,2018
794.708313,1995
794.827393,1973
794.946411,2019
795.065552,2029
795.18457,1999
795.303589,1968
795.422668,2018
795.541687,1983
795.660767,1978
795.779846,2005
795.898865,1968
796.017883,1935
796.136963,1998
796.255981,1968
796.375061,2006
796.49408,1929
796.613037,1991
796.732117,1969
796.851135,1970
796.970154,1941
797.089233,1921
797.208191,2028
797.327271,1946
797.446228,1947
797.565186,1937
797.684265,1925
797.803223,1922
797.922241,1918
798.04126,1969
798.160278,1976
798.279297,1910
798.398315,1959
798.517273,1969
798.636292,1974
798.75531,1997
798.874268,1933
798.993286,1973
799.112244,1964
799.231323,1921
799.350281,1868
799.469238,1959
799.588257,1949
799.707153,1920
799.826111,1925
799.945129,1951
800.064087,1950
800.183044,1970
800.302063,1996
800.421021,1891
800.539978,1961
800.658936,1934
800.777893,1973
800.896912,1994
801.015747,1943
801.134705,1968
801.253723,2011
801.37262,1956
801.491638,1955
801.610535,1973
801.729492,1986
801.84845,1967
801.967407,2011
802.086243,2039
802.205261,1998
802.324158,1993
802.443115,2014
802.562073,2010
802.680969,2013
802.799927,2004
802.918762,1992
803.037659,2003
803.156677,2003
803.275574,2052
803.39447,2060
803.513428,1996
803.632263,2050
803.751221,2068
803.870117,2018
803.989014,2045
804.107971,2050
804.226746,2051
804.345642,2105
804.4646,2095
804.583496,2143
804.702393,2087
804.821228,2029
804.940125,2078
805.059021,2100
805.177917,2065
805.296814,2111
805.415649,2139
805.534546,2060
805.653442,2136
805.772278,2082
805.891113,2095
806.01001,2127
806.128906,2098
806.247742,2092
806.366577,2129
806.485413,2166
806.604309,2145
806.723145,2112
806.84198,2100
806.960876,2053
807.079712,2128
807.198486,2157
807.317383,2141
807.436218,2129
807.554993,2194
807.673889,2105
807.792725,2130
807.91156,2147
808.030396,2166
808.14917,2162
808.268005,2137
808.386841,2181
808.505676,2211
808.624451,2192
808.743286,2178
808.862122,2137
808.980896,2164
809.099731,2188
809.218506,2210
809.337341,2214
809.456116,2191
809.57489,2182
809.693726,2180
809.8125,2222
809.931274,2206
810.050049,2223
810.168884,2215
810.287659,2241
810.406372,2285
810.525269,2192
810.643982,2178
810.762756,2171
810.881531,2202
811.000305,2226
811.11908,2251
811.237854,2251
811.356567,2169
811.475403,2228
811.594116,2201
811.71283,2232
811.831604,2208
811.950378,2256
812.069153,2200
812.187927,2265
812.30658,2226
812.425415,2198
812.544128,2187
812.662781,2262
812.781616,2170
812.900269,2214
813.019043,2219
813.137756,2243
813.256531,2270
813.375244,2177
813.493896,2251
813.612671,2224
813.731384,2235
813.850037,2202
813.96875,2233
814.087524,2182
814.206238,2217
814.324951,2193
814.443604,2208
814.562256,2190
814.68103,2212
814.799683,2132
814.918335,2179
815.037109,2244
815.155762,2192
815.274475,2155
815.393188,2203
815.511841,2166
815.630554,2197
815.749146,2141
815.867859,2121
815.986572,2125
816.105164,2057
816.223877,2194
816.342529,2167
816.461182,2164
816.579895,2122
816.698486,2117
816.817139,2088
816.935791,2157
817.054504,2166
817.173096,2168
817.291748,2142
817.4104,2146
817.529053,2080
817.647644,1991
817.766235,2018
817.884949,1988
818.00354,1912
818.122192,1878
818.240845,1873
818.359436,1793
818.478088,1794
818.59668,1786
818.715271,1760
818.833923,1715
818.952515,1730
819.071106,1674
819.189758,1662
819.30835,1627
819.426941,1660
819.545532,1658
819.664124,1585
819.782715,1585
819.901306,1608
820.019897,1595
820.138489,1592
820.25708,1578
820.375671,1592
820.494202,1554
820.612732,1578
820.731384,1563
820.849915,1532
820.968506,1507
821.087097,1531
821.205627,1563
821.324158,1538
821.442749,1502
821.561279,1537
821.679871,1486
821.798401,1520
821.916931,1486
822.035461,1489
822.154053,1473
822.272583,1500
822.391174,1471
822.509583,1501
822.628174,1493
822.746704,1495
822.865234,1493
822.983765,1502
823.102295,1503
823.220825,1497
823.339294,1501
823.457825,1442
823.576355,1510
823.694824,1458
823.813354,1490
823.931885,1501
824.050354,1523
824.168884,1516
824.287354,1528
824.405823,1520
824.524353,1545
824.642822,1526
824.761353,1525
824.879822,1522
824.998291,1499
825.116699,1533
825.235291,1474
825.353699,1480
825.472168,1471
825.590637,1494
825.709106,1462
825.827576,1449
825.946045,1462
826.064453,1467
826.182983,1439
826.301392,1456
826.4198,1462
826.53833,1405
826.656738,1399
826.775208,1422
826.893677,1470
827.012024,1424
827.130493,1395
827.248962,1420
827.36731,1448
827.485779,1399
827.604248,1434
827.722595,1467
827.841064,1404
827.959412,1414
828.077942,1393
828.196289,1396
828.314636,1386
828.433105,1432
828.551514,1411
828.669861,1421
828.78833,1407
828.906677,1390
829.025085,1376
829.143433,1365
829.261841,1392
829.38031,1390
829.498657,1402
829.617004,1365
829.735413,1384
829.85376,1398
829.972107,1372
830.090515,1357
830.208862,1366
830.327209,1339
830.445557,1392
830.563904,1366
830.682312,1360
830.800659,1379
830.919006,1362
831.037354,1369
831.155701,1372
831.274048,1388
831.392395,1396
831.51062,1363
831.629028,1377
831.747314,1361
831.865662,1371
831.984009,1358
832.102356,1390
832.220642,1365
832.338928,1373
832.457275,1370
832.575623,1362
832.693909,1394
832.812134,1345
832.930481,1393
833.048828,1333
833.167114,1434
833.2854,1379
833.403687,1397
833.521973,1381
833.640259,1361
833.758545,1373
833.876831,1403
833.995056,1383
834.113281,1376
834.231628,1407
834.349915,1362
834.468201,1368
834.586426,1393
834.704651,1364
834.822998,1391
834.941162,1384
835.059448,1412
835.177673,1369
835.295959,1413
835.414246,1374
835.53241,1390
835.650635,1393
835.768921,1381
835.887146,1352
836.005371,1453
836.123596,1383
836.241821,1465
836.360046,1469
836.478271,1457
836.596497,1479
836.714722,1453
836.832886,1473
836.95105,1476
837.069336,1438
837.1875,1463
837.305725,1529
837.423889,1501
837.542053,1446
837.660339,1452
837.778503,1475
837.896667,1469
838.014832,1462
838.132996,1460
838.25116,1434
838.369385,1468
838.487488,1458
838.605713,1426
838.723877,1470
838.84198,1460
838.960205,1461
839.078308,1460
839.196472,1485
839.314636,1449
839.4328,1483
839.550964,1454
839.669067,1473
839.787231,1429
839.905396,1431
840.023499,1400
840.141602,1414
840.259766,1413
840.377869,1454
840.495972,1445
840.614136,1434
840.732239,1421
840.850342,1397
840.968445,1404
841.086548,1433
841.204651,1426
841.322754,1392
841.440918,1391
841.55896,1366
841.677002,1417
841.795166,1360
841.913208,1405
842.031311,1359
842.149353,1407
842.267456,1380
842.385498,1360
842.503601,1385
842.621643,1354
842.739746,1407
842.857788,1335
842.97583,1330
843.093933,1335
843.211975,1374
843.330017,1389
843.44812,1387
843.566101,1355
843.684204,1347
843.802246,1377
843.920227,1312
844.038269,1385
844.156311,1353
844.274292,1342
844.392395,1345
844.510376,1361
844.628357,1315
844.74646,1357
844.864441,1322
844.982422,1317
845.100403,1373
845.218384,1384
845.336426,1319
845.454468,1357
845.572449,1369
845.69043,1358
845.808411,1326
845.926453,1388
846.044373,1350
846.162354,1338
846.280396,1372
846.398315,1294
846.516296,1373
846.634216,1326
846.752197,1370
846.870178,1331
846.988098,1333
847.106079,1394
847.22406,1343
847.34198,1397
847.4599,1320
847.577881,1391
847.695801,1315
847.813782,1342
847.931641,1354
848.049561,1372
848.167603,1373
848.285461,1358
848.403381,1342
848.521362,1376
848.639221,1357
848.75708,1355
848.875,1343
848.99292,1355
849.110901,1350
849.22876,1352
849.34668,1377
849.464539,1342
849.582458,1363
849.700317,1337
849.818176,1357
849.936096,1355
850.053955,1353
850.171875,1358
850.289673,1370
850.407593,1357
850.525452,1360
850.643311,1365
850.761169,1343
850.878967,1358
850.996887,1373
851.114746,1348
851.232544,1372
851.350403,1361
851.468262,1358
851.58606,1349
851.703979,1359
851.821777,1372
851.939636,1341
852.057434,1362
852.175232,1369
852.293091,1356
852.410889,1358
852.528687,1347
852.646545,1361
852.764343,1355
852.88208,1356
852.999939,1371
853.117676,1368
853.235535,1396
853.353271,1409
853.471069,1394
853.588928,1368
853.706604,1383
853.824402,1379
853.9422,1366
854.059998,1375
854.177734,1392
854.295532,1388
854.413269,1381
854.531006,1353
854.648804,1394
854.766541,1372
854.884277,1377
855.002014,1395
855.119751,1372
855.237549,1433
855.355225,1379
855.473022,1373
855.590698,1370
855.708435,1383
855.826172,1400
855.943848,1408
856.061646,1431
856.179321,1365
856.296997,1375
856.414795,1385
856.53241,1389
856.650085,1405
856.767822,1398
856.885559,1405
857.003174,1420
857.120911,1378
857.238586,1403
857.356201,1426
857.473938,1439
857.591614,1342
857.709351,1391
857.826965,1365
857.944641,1391
858.062317,1368
858.179993,1428
858.297668,1409
858.415283,1391
858.532959,1416
858.650574,1397
858.768188,1392
858.885803,1397
859.003479,1407
859.121094,1434
859.23877,1375
859.356384,1378
859.473999,1375
859.591675,1400
859.709229,1396
859.826843,1413
859.944458,1361
860.062012,1431
860.179626,1416
860.297302,1401
860.414856,1373
860.532471,1369
860.650024,1403
860.767639,1389
860.885193,1432
861.002808,1387
861.120361,1383
861.237976,1401
861.35553,1435
861.473022,1384
861.590698,1365
861.708191,1376
861.825745,1386
861.943298,1386
862.060852,1413
862.178406,1414
862.295959,1382
862.413513,1387
862.531006,1388
862.64856,1407
862.766113,1400
862.883667,1403
863.00116,1376
863.118713,1455
863.236206,1366
863.353699,1402
863.471252,1386
863.588745,1413
863.706177,1407
863.82373,1382
863.941162,1390
864.058716,1411
864.176208,1406
864.29364,1379
864.411194,1428
864.528687,1397
864.646118,1429
864.763611,1393
864.881042,1420
864.998535,1408
865.116028,1385
865.233459,1446
865.350891,1407
865.468384,1444
865.585754,1404
865.703308,1412
865.820679,1379
865.938171,1447
866.055542,1450
866.173035,1437
866.290466,1395
866.407837,1419
866.52533,1445
866.6427,1412
866.760071,1400
866.877563,1428
866.994934,1385
867.112305,1432
867.229736,1428
867.347107,1446
867.464539,1432
867.58197,1418
867.699341,1431
867.81665,1385
867.934082,1377
868.051453,1439
868.168823,1405
868.286194,1411
868.403564,1427
868.520935,1424
868.638306,1395
868.755676,1418
868.872986,1432
868.990295,1386
869.107727,1436
869.225037,1408
869.342346,1407
869.459717,1393
869.577026,1447
869.694336,1441
869.811707,1404
869.929016,1394
870.046326,1435
870.163635,1402
870.280945,1445
870.398254,1423
870.515564,1435
870.632812,1463
870.750183,1450
870.867432,1430
870.984741,1414
871.102051,1391
871.219299,1489
871.336609,1405
871.453918,1408
871.571106,1439
871.688416,1431
871.805664,1362
871.922852,1442
872.040222,1433
872.157471,1400
872.274719,1401
872.391968,1438
872.509155,1442
872.626465,1413
872.743652,1465
872.860962,1399
872.978149,1417
873.095337,1406
873.212646,1396
873.329834,1414
873.44696,1425
873.564209,1402
873.681396,1450
873.798645,1470
873.915894,1411
874.03302,1468
874.150208,1431
874.267456,1396
874.384583,1418
874.501831,1430
874.618958,1409
874.736145,1417
874.853333,1370
874.970459,1438
875.087646,1428
875.204834,1430
875.32196,1406
875.439148,1465
875.556274,1428
875.673401,1403
875.790527,1438
875.907715,1452
876.024841,1435
876.141968,1404
876.259094,1413
876.376282,1424
876.493347,1422
876.610474,1458
876.7276,1387
876.844727,1425
876.961853,1425
877.078918,1423
877.195984,1444
877.313171,1439
877.430237,1455
877.547302,1445
877.664368,1481
877.781433,1463
877.898499,1438
878.015625,1468
878.13269,1441
878.249695,1448
878.366821,1406
878.483887,1455
878.600952,1428
878.717957,1460
878.834961,1453
878.952087,1494
879.069092,1439
879.186157,1425
879.303162,1432
879.420227,1482
879.537231,1475
879.654236,1437
879.77124,1469
879.888306,1433
880.005249,1498
880.122314,1441
880.239319,1476
880.356323,1409
880.473328,1447
880.590271,1454
880.707275,1399
880.824341,1450
880.941284,1452
881.058228,1507
881.175232,1456
881.292236,1464
881.40918,1470
881.526123,1454
881.643066,1435
881.760071,1426
881.877014,1437
881.993958,1426
882.11084,1442
882.227783,1493
882.344727,1462
882.46167,1455
882.578613,1437
882.695618,1490
882.812439,1441
882.929382,1468
883.046326,1478
883.163208,1443
883.280151,1487
883.397034,1452
883.513916,1430
883.630798,1441
883.747742,1453
883.864563,1449
883.981506,1466
884.098389,1473
884.21521,1443
884.332153,1462
884.448975,1483
884.565796,1432
884.682678,1494
884.7995,1463
884.916443,1504
885.033264,1479
885.150085,1416
885.266968,1485
885.383789,1468
885.500671,1461
885.617493,1472
885.734314,1482
885.851196,1450
885.967896,1502
886.084717,1504
886.201599,1484
886.318359,1485
886.435181,1489
886.552002,1460
886.668762,1482
886.785645,1494
886.902344,1467
887.019165,1498
887.135925,1501
887.252747,1487
887.369446,1483
887.486267,1480
887.603027,1474
887.719788,1424
887.836548,1437
887.953247,1488
888.070068,1483
888.186829,1487
888.303528,1521
888.420288,1456
888.536987,1453
888.653687,1485
888.770447,1526
888.887146,1500
889.003967,1462
889.120667,1504
889.237305,1475
889.354065,1443
889.470703,1497
889.587463,1501
889.704163,1505
889.820862,1525
889.937561,1501
890.054199,1476
890.170837,1518
890.287598,1495
890.404236,1497
890.520874,1477
890.637634,1491
890.754211,1532
890.87085,1482
890.987549,1498
891.104187,1529
891.220886,1557
891.337463,1490
891.454102,1498
891.57074,1530
891.687378,1491
891.804077,1513
891.920654,1462
892.037231,1514
892.15387,1549
892.270447,1524
892.387085,1510
892.503723,1523
892.6203,1526
892.736877,1529
892.853516,1544
892.970032,1493
893.08667,1531
893.203186,1521
893.319763,1519
893.43634,1517
893.552917,1543
893.669556,1522
893.786011,1542
893.902588,1530
894.019165,1529
894.135681,1527
894.252197,1536
894.368835,1565
894.485291,1536
894.601868,1515
894.718384,1564
894.8349,1515
894.951355,1511
895.067932,1588
895.184448,1532
895.300964,1494
895.417419,1508
895.533936,1531
895.650452,1527
895.766907,1556
895.883423,1538
895.999878,1536
896.116333,1486
896.232849,1532
896.349304,1522
896.465759,1530
896.582214,1543
896.698669,1514
896.815125,1531
896.931641,1542
897.048035,1535
897.164551,1551
897.280884,1482
897.397339,1507
897.513794,1517
897.630249,1554
897.746582,1500
897.863098,1515
897.979431,1524
898.095886,1539
898.212341,1523
898.328674,1541
898.445129,1538
898.561462,1537
898.677795,1558
898.794312,1542
898.910645,1530
899.026978,1535
899.143433,1551
899.259766,1536
899.37616,1499
899.492493,1480
899.608765,1550
899.725159,1547
899.841553,1539
899.957947,1572
900.07428,1532
900.190552,1557
900.306946,1535
900.423157,1550
900.53949,1547
900.655884,1578
900.772156,1552
900.888489,1585
901.004822,1529
901.121033,1544
901.237366,1542
901.353699,1471
901.46991,1567
901.586304,1512
901.702515,1589
901.818787,1542
901.93512,1557
902.051331,1571
902.167603,1547
902.283875,1586
902.400085,1551
902.516418,1554
902.632629,1516
902.74884,1575
902.865112,1571
902.981384,1561
903.097595,1546
903.213867,1605
903.330017,1574
903.446289,1534
903.5625,1521
903.67865,1570
903.794922,1563
903.911072,1546
904.027344,1563
904.143494,1574
904.259705,1571
904.375916,1595
904.492065,1563
904.608215,1556
904.724426,1545
904.840576,1567
904.956726,1575
905.072876,1575
905.189087,1562
905.305176,1535
905.421387,1584
905.537537,1601
905.653687,1592
905.769775,1555
905.885925,1587
906.002014,1579
906.118164,1623
906.234314,1611
906.350403,1566
906.466492,1603
906.582642,1580
906.69873,1585
906.814758,1617
906.930908,1589
907.046936,1542
907.163086,1600
907.279175,1562
907.395264,1529
907.511353,1592
907.62738,1611
907.743408,1568
907.859497,1551
907.975525,1532
908.091553,1618
908.207703,1576
908.32373,1626
908.439758,1588
908.555786,1568
908.671814,1571
908.787842,1603
908.90387,1617
909.019775,1554
909.135864,1559
909.251892,1589
909.367859,1618
909.483826,1579
909.599854,1582
909.715881,1598
909.831848,1634
909.947815,1602
910.063782,1593
910.179749,1572
910.295776,1620
910.411743,1566
910.527649,1576
910.643616,1571
910.759583,1626
910.875488,1593
910.991455,1584
911.107361,1605
911.223267,1601
911.339294,1618
911.4552,1605
911.571106,1612
911.687073,1617
911.802979,1579
911.918823,1563
912.034729,1589
912.150635,1624
912.266602,1614
912.382446,1593
912.498352,1543
912.614197,1537
912.730103,1633
912.846008,1598
