792.44574,3393
792.56488,3347
792.68396,3320
792.80304,3215
792.92218,3100
793.041199,3046
793.160339,2960
793.279419,2978
793.398499,2919
793.517578,2887
793.636658,2789
793.755737,2790
793.874817,2699
793.993896,2692
794.112976,2729
794.232056,2594
794.351074,2583
794.470215,2570
794.589233,2488
794.708313,2596
794.827393,2471
794.946411,2435
795.065552,2435
795.18457,2451
795.303589,2419
795.422668,2417
795.541687,2335
795.660767,2371
795.779846,2340
795.898865,2310
796.017883,2298
796.136963,2332
796.255981,2278
796.375061,2244
796.49408,2236
796.613037,2189
796.732117,2204
796.851135,2191
796.970154,2131
797.089233,2121
797.208191,2139
797.327271,2158
797.446228,2149
797.565186,2128
797.684265,2108
797.803223,2145
797.922241,2072
798.04126,2073
798.160278,2027
798.279297,2097
798.398315,2063
798.517273,2070
798.636292,1993
798.75531,2056
798.874268,2001
798.993286,2028
799.112244,2027
799.231323,2062
799.350281,2008
799.469238,2019
799.588257,2009
799.707153,2084
799.826111,1973
799.945129,1987
800.064087,1951
800.183044,2047
800.302063,1989
800.421021,2003
800.539978,2023
800.658936,2001
800.777893,1941
800.896912,2010
801.015747,1968
801.134705,1952
801.253723,1920
801.37262,1969
801.491638,1954
801.610535,1952
801.729492,1957
801.84845,1982
801.967407,1943
802.086243,1950
802.205261,1957
802.324158,1940
802.443115,1944
802.562073,1981
802.680969,1905
802.799927,1924
802.918762,1926
803.037659,1974
803.156677,1900
803.275574,1929
803.39447,1893
803.513428,1970
803.632263,1927
803.751221,1924
803.870117,1920
803.989014,1907
804.107971,1878
804.226746,1910
804.345642,1914
804.4646,1855
804.583496,1895
804.702393,1880
804.821228,1859
804.940125,1889
805.059021,1925
805.177917,1892
805.296814,1928
805.415649,1952
805.534546,1896
805.653442,1898
805.772278,1865
805.891113,1885
806.01001,1895
806.128906,1930
806.247742,1913
806.366577,1885
806.485413,1955
806.604309,1898
806.723145,1858
806.84198,1876
806.960876,1892
807.079712,1913
807.198486,1900
807.317383,1917
807.436218,1889
807.554993,1891
807.673889,1916
807.792725,1890
807.91156,1904
808.030396,1917
808.14917,1891
808.268005,1888
808.386841,1912
808.505676,1911
808.624451,1855
808.743286,1875
808.862122,1954
808.980896,1861
809.099731,1897
809.218506,1908
809.337341,1868
809.456116,1933
809.57489,1926
809.693726,1913
809.8125,1890
809.931274,1936
810.050049,1918
810.168884,1931
810.287659,1917
810.406372,1867
810.525269,1951
810.643982,1942
810.762756,1900
810.881531,1889
811.000305,1924
811.11908,1920
811.237854,1899
811.356567,1946
811.475403,1953
811.594116,1905
811.71283,1906
811.831604,1923
811.950378,1911
812.069153,1912
812.187927,1948
812.30658,1952
812.425415,1928
812.544128,1918
812.662781,1925
812.781616,1907
812.900269,1958
813.019043,1912
813.137756,1954
813.256531,1892
813.375244,1893
813.493896,1886
813.612671,1901
813.731384,1920
813.850037,1909
813.96875,1901
814.087524,1905
814.206238,1907
814.324951,1879
814.443604,1896
814.562256,1918
814.68103,1888
814.799683,1911
814.918335,1887
815.037109,1901
815.155762,1863
815.274475,1885
815.393188,1840
815.511841,1827
815.630554,1809
815.749146,1835
815.867859,1813
815.986572,1846
816.105164,1825
816.223877,1858
816.342529,1849
816.461182,1836
816.579895,1842
816.698486,1792
816.817139,1867
816.935791,1913
817.054504,1853
817.173096,1863
817.291748,1833
817.4104,1796
817.529053,1804
817.647644,1785
817.766235,1798
817.884949,1803
818.00354,1731
818.122192,1746
818.240845,1698
818.359436,1702
818.478088,1650
818.59668,1727
818.715271,1647
818.833923,1669
818.952515,1656
819.071106,1568
819.189758,1575
819.30835,1583
819.426941,1577
819.545532,1561
819.664124,1595
819.782715,1568
819.901306,1625
820.019897,1547
820.138489,1588
820.25708,1578
820.375671,1563
820.494202,1591
820.612732,1583
820.731384,1579
820.849915,1528
820.968506,1569
821.087097,1508
821.205627,1562
821.324158,1481
821.442749,1473
821.561279,1529
821.679871,1503
821.798401,1523
821.916931,1491
822.035461,1532
822.154053,1522
822.272583,1517
822.391174,1518
822.509583,1501
822.628174,1521
822.746704,1540
822.865234,1442
822.983765,1517
823.102295,1530
823.220825,1494
823.339294,1458
823.457825,1465
823.576355,1456
823.694824,1429
823.813354,1504
823.931885,1482
824.050354,1530
824.168884,1462
824.287354,1510
824.405823,1500
824.524353,1522
824.642822,1540
824.761353,1530
824.879822,1533
824.998291,1525
825.116699,1482
825.235291,1461
825.353699,1506
825.472168,1493
825.590637,1471
825.709106,1481
825.827576,1449
825.946045,1510
826.064453,1474
826.182983,1474
826.301392,1446
826.4198,1480
826.53833,1445
826.656738,1427
826.775208,1433
826.893677,1466
827.012024,1430
827.130493,1428
827.248962,1454
827.36731,1455
827.485779,1416
827.604248,1434
827.722595,1421
827.841064,1388
827.959412,1450
828.077942,1450
828.196289,1398
828.314636,1369
828.433105,1378
828.551514,1424
828.669861,1409
828.78833,1379
828.906677,1421
829.025085,1415
829.143433,1450
829.261841,1411
829.38031,1417
829.498657,1424
829.617004,1433
829.735413,1370
829.85376,1417
829.972107,1372
830.090515,1399
830.208862,1400
830.327209,1409
830.445557,1388
830.563904,1379
830.682312,1396
830.800659,1393
830.919006,1461
831.037354,1457
831.155701,1440
831.274048,1458
831.392395,1469
831.51062,1482
831.629028,1417
831.747314,1407
831.865662,1414
831.984009,1393
832.102356,1418
832.220642,1405
832.338928,1449
832.457275,1423
832.575623,1439
832.693909,1428
832.812134,1423
832.930481,1415
833.048828,1390
833.167114,1475
833.2854,1421
833.403687,1417
833.521973,1426
833.640259,1443
833.758545,1436
833.876831,1440
833.995056,1435
834.113281,1467
834.231628,1440
834.349915,1427
834.468201,1405
834.586426,1394
834.704651,1430
834.822998,1441
834.941162,1406
835.059448,1451
835.177673,1404
835.295959,1427
835.414246,1440
835.53241,1441
835.650635,1410
835.768921,1453
835.887146,1450
836.005371,1468
836.123596,1449
836.241821,1410
836.360046,1418
836.478271,1454
836.596497,1431
836.714722,1426
836.832886,1450
836.95105,1428
837.069336,1461
837.1875,1437
837.305725,1488
837.423889,1459
837.542053,1444
837.660339,1422
837.778503,1463
837.896667,1486
838.014832,1472
838.132996,1490
838.25116,1454
838.369385,1528
838.487488,1463
838.605713,1475
838.723877,1506
838.84198,1453
838.960205,1449
839.078308,1442
839.196472,1439
839.314636,1463
839.4328,1473
839.550964,1468
839.669067,1451
839.787231,1466
839.905396,1512
840.023499,1479
840.141602,1482
840.259766,1503
840.377869,1467
840.495972,1491
840.614136,1488
840.732239,1492
840.850342,1476
840.968445,1498
841.086548,1507
841.204651,1494
841.322754,1529
841.440918,1508
841.55896,1497
841.677002,1539
841.795166,1496
841.913208,1494
842.031311,1572
842.149353,1545
842.267456,1508
842.385498,1501
842.503601,1473
842.621643,1557
842.739746,1494
842.857788,1525
842.97583,1485
843.093933,1496
843.211975,1484
843.330017,1544
843.44812,1569
843.566101,1525
843.684204,1520
843.802246,1569
843.920227,1552
844.038269,1488
844.156311,1536
844.274292,1536
844.392395,1489
844.510376,1500
844.628357,1532
844.74646,1483
844.864441,1477
844.982422,1502
845.100403,1508
845.218384,1487
845.336426,1461
845.454468,1505
845.572449,1479
845.69043,1463
845.808411,1480
845.926453,1512
846.044373,1484
846.162354,1453
846.280396,1506
846.398315,1511
846.516296,1481
846.634216,1487
846.752197,1550
846.870178,1538
846.988098,1527
847.106079,1533
847.22406,1509
847.34198,1502
847.4599,1502
847.577881,1484
847.695801,1485
847.813782,1472
847.931641,1485
848.049561,1498
848.167603,1494
848.285461,1517
848.403381,1512
848.521362,1490
848.639221,1518
848.75708,1531
848.875,1554
848.99292,1525
849.110901,1529
849.22876,1553
849.34668,1490
849.464539,1548
849.582458,1529
849.700317,1533
849.818176,1524
849.936096,1547
850.053955,1556
850.171875,1578
850.289673,1519
850.407593,1503
850.525452,1587
850.643311,1559
850.761169,1497
850.878967,1513
850.996887,1492
851.114746,1546
851.232544,1524
851.350403,1540
851.468262,1521
851.58606,1530
851.703979,1507
851.821777,1483
851.939636,1470
852.057434,1499
852.175232,1545
852.293091,1527
852.410889,1538
852.528687,1526
852.646545,1598
852.764343,1575
852.88208,1579
852.999939,1531
853.117676,1547
853.235535,1511
853.353271,1558
853.471069,1509
853.588928,1518
853.706604,1505
853.824402,1486
853.9422,1507
854.059998,1491
854.177734,1517
854.295532,1510
854.413269,1539
854.531006,1494
854.648804,1523
854.766541,1475
854.884277,1503
855.002014,1498
855.119751,1517
855.237549,1472
855.355225,1508
855.473022,1488
855.590698,1519
855.708435,1501
855.826172,1488
855.943848,1519
856.061646,1536
856.179321,1511
856.296997,1499
856.414795,1531
856.53241,1491
856.650085,1524
856.767822,1546
856.885559,1509
857.003174,1554
857.120911,1557
857.238586,1550
857.356201,1569
857.473938,1536
857.591614,1556
857.709351,1563
857.826965,1564
857.944641,1580
858.062317,1512
858.179993,1542
858.297668,1527
858.415283,1551
858.532959,1553
858.650574,1548
858.768188,1552
858.885803,1587
859.003479,1514
859.121094,1524
859.23877,1535
859.356384,1571
859.473999,1516
859.591675,1506
859.709229,1482
859.826843,1494
859.944458,1450
860.062012,1532
860.179626,1455
860.297302,1473
860.414856,1432
860.532471,1466
860.650024,1496
860.767639,1468
860.885193,1501
861.002808,1474
861.120361,1473
861.237976,1476
861.35553,1509
861.473022,1536
861.590698,1480
861.708191,1521
861.825745,1500
861.943298,1486
862.060852,1492
862.178406,1536
862.295959,1483
862.413513,1466
862.531006,1439
862.64856,1453
862.766113,1448
862.883667,1422
863.00116,1484
863.118713,1475
863.236206,1447
863.353699,1490
863.471252,1490
863.588745,1427
863.706177,1488
863.82373,1456
863.941162,1501
864.058716,1514
864.176208,1498
864.29364,1482
864.411194,1453
864.528687,1451
864.646118,1460
864.763611,1452
864.881042,1462
864.998535,1442
865.116028,1486
865.233459,1481
865.350891,1499
865.468384,1487
865.585754,1468
865.703308,1454
865.820679,1473
865.938171,1445
866.055542,1456
866.173035,1480
866.290466,1451
866.407837,1472
866.52533,1494
866.6427,1479
866.760071,1481
866.877563,1488
866.994934,1447
867.112305,1470
867.229736,1432
867.347107,1430
867.464539,1429
867.58197,1495
867.699341,1420
867.81665,1472
867.934082,1464
868.051453,1413
868.168823,1471
868.286194,1482
868.403564,1457
868.520935,1449
868.638306,1483
868.755676,1491
868.872986,1459
868.990295,1521
869.107727,1553
869.225037,1481
869.342346,1491
869.459717,1486
869.577026,1487
869.694336,1513
869.811707,1485
869.929016,1525
870.046326,1521
870.163635,1537
870.280945,1536
870.398254,1525
870.515564,1523
870.632812,1554
870.750183,1539
870.867432,1583
870.984741,1548
871.102051,1550
871.219299,1575
871.336609,1593
871.453918,1571
871.571106,1637
871.688416,1557
871.805664,1626
871.922852,1589
872.040222,1602
872.157471,1564
872.274719,1551
872.391968,1573
872.509155,1599
872.626465,1594
872.743652,1569
872.860962,1597
872.978149,1598
873.095337,1553
873.212646,1545
873.329834,1563
873.44696,1545
873.564209,1553
873.681396,1564
873.798645,1593
873.915894,1566
874.03302,1553
874.150208,1566
874.267456,1588
874.384583,1615
874.501831,1619
874.618958,1598
874.736145,1628
874.853333,1638
874.970459,1593
875.087646,1599
875.204834,1593
875.32196,1597
875.439148,1570
875.556274,1565
875.673401,1582
875.790527,1579
875.907715,1534
876.024841,1550
876.141968,1511
876.259094,1531
876.376282,1512
876.493347,1554
876.610474,1478
876.7276,1507
876.844727,1518
876.961853,1504
877.078918,1501
877.195984,1540
877.313171,1510
877.430237,1528
877.547302,1506
877.664368,1497
877.781433,1515
877.898499,1495
878.015625,1553
878.13269,1498
878.249695,1494
878.366821,1553
878.483887,1489
878.600952,1486
878.717957,1494
878.834961,1482
878.952087,1511
879.069092,1473
879.186157,1495
879.303162,1485
879.420227,1513
879.537231,1472
879.654236,1466
879.77124,1459
879.888306,1473
880.005249,1499
880.122314,1478
880.239319,1442
880.356323,1472
880.473328,1499
880.590271,1452
880.707275,1472
880.824341,1455
880.941284,1468
881.058228,1463
881.175232,1469
881.292236,1419
881.40918,1437
881.526123,1464
881.643066,1457
881.760071,1431
881.877014,1435
881.993958,1466
882.11084,1467
882.227783,1458
882.344727,1505
882.46167,1442
882.578613,1476
882.695618,1474
882.812439,1453
882.929382,1472
883.046326,1470
883.163208,1470
883.280151,1494
883.397034,1464
883.513916,1478
883.630798,1499
883.747742,1542
883.864563,1427
883.981506,1478
884.098389,1472
884.21521,1524
884.332153,1557
884.448975,1528
884.565796,1571
884.682678,1583
884.7995,1609
884.916443,1661
885.033264,1720
885.150085,1732
885.266968,1822
885.383789,1776
885.500671,1811
885.617493,1817
885.734314,1801
885.851196,1803
885.967896,1813
886.084717,1837
886.201599,1763
886.318359,1797
886.435181,1745
886.552002,1742
886.668762,1732
886.785645,1696
886.902344,1704
887.019165,1714
887.135925,1659
887.252747,1662
887.369446,1630
887.486267,1659
887.603027,1583
887.719788,1563
887.836548,1571
887.953247,1578
888.070068,1500
888.186829,1538
888.303528,1523
888.420288,1541
888.536987,1467
888.653687,1525
888.770447,1490
888.887146,1447
889.003967,1440
889.120667,1471
889.237305,1461
889.354065,1434
889.470703,1455
889.587463,1425
889.704163,1441
889.820862,1434
889.937561,1424
890.054199,1429
890.170837,1422
890.287598,1423
890.404236,1430
890.520874,1474
890.637634,1446
890.754211,1450
890.87085,1450
890.987549,1474
891.104187,1490
891.220886,1459
891.337463,1448
891.454102,1504
891.57074,1520
891.687378,1523
891.804077,1448
891.920654,1436
892.037231,1484
892.15387,1492
892.270447,1436
892.387085,1485
892.503723,1468
892.6203,1479
892.736877,1475
892.853516,1433
892.970032,1434
893.08667,1490
893.203186,1441
893.319763,1418
893.43634,1497
893.552917,1451
893.669556,1478
893.786011,1460
893.902588,1454
894.019165,1473
894.135681,1430
894.252197,1478
894.368835,1476
894.485291,1447
894.601868,1458
894.718384,1501
894.8349,1454
894.951355,1477
895.067932,1491
895.184448,1438
895.300964,1439
895.417419,1427
895.533936,1445
895.650452,1452
895.766907,1523
895.883423,1503
895.999878,1490
896.116333,1435
896.232849,1460
896.349304,1475
896.465759,1451
896.582214,1482
896.698669,1465
896.815125,1425
896.931641,1454
897.048035,1485
897.164551,1496
897.280884,1449
897.397339,1472
897.513794,1438
897.630249,1521
897.746582,1491
897.863098,1492
897.979431,1433
898.095886,1487
898.212341,1456
898.328674,1464
898.445129,1531
898.561462,1490
898.677795,1438
898.794312,1533
898.910645,1471
899.026978,1473
899.143433,1462
899.259766,1508
899.37616,1492
899.492493,1476
899.608765,1468
899.725159,1470
899.841553,1513
899.957947,1462
900.07428,1465
900.190552,1474
900.306946,1484
900.423157,1512
900.53949,1462
900.655884,1493
900.772156,1519
900.888489,1511
901.004822,1498
901.121033,1443
901.237366,1501
901.353699,1490
901.46991,1486
901.586304,1530
901.702515,1508
901.818787,1515
901.93512,1585
902.051331,1550
902.167603,1582
902.283875,1593
902.400085,1628
902.516418,1664
902.632629,1683
902.74884,1673
902.865112,1655
902.981384,1686
903.097595,1659
903.213867,1645
903.330017,1616
903.446289,1618
903.5625,1638
903.67865,1616
903.794922,1641
903.911072,1596
904.027344,1570
904.143494,1581
904.259705,1575
904.375916,1591
904.492065,1565
904.608215,1526
904.724426,1516
904.840576,1539
904.956726,1537
905.072876,1535
905.189087,1488
905.305176,1457
905.421387,1504
905.537537,1451
905.653687,1517
905.769775,1515
905.885925,1512
906.002014,1468
906.118164,1481
906.234314,1479
906.350403,1457
906.466492,1457
906.582642,1507
906.69873,1506
906.814758,1509
906.930908,1476
907.046936,1488
907.163086,1451
907.279175,1478
907.395264,1451
907.511353,1484
907.62738,1476
907.743408,1496
907.859497,1440
907.975525,1513
908.091553,1440
908.207703,1463
908.32373,1496
908.439758,1516
908.555786,1482
908.671814,1475
908.787842,1469
908.90387,1490
909.019775,1496
909.135864,1476
909.251892,1514
909.367859,1480
909.483826,1515
909.599854,1478
909.715881,1449
909.831848,1529
909.947815,1487
910.063782,1528
910.179749,1533
910.295776,1485
910.411743,1482
910.527649,1475
910.643616,1511
910.759583,1498
910.875488,1493
910.991455,1480
911.107361,1490
911.223267,1431
911.339294,1450
911.4552,1435
911.571106,1429
911.687073,1492
911.802979,1509
911.918823,1431
912.034729,1429
912.150635,1464
912.266602,1444
912.382446,1474
912.498352,1420
912.614197,1464
912.730103,1466
912.846008,1486
792.44574,3487
792.56488,3381
792.68396,3378
792.80304,3282
792.92218,3141
793.041199,3109
793.160339,3045
793.279419,2996
793.398499,2955
793.517578,2889
793.636658,2871
793.755737,2799
793.874817,2849
793.993896,2703
794.112976,2724
794.232056,2649
794.351074,2635
794.470215,2671
794.589233,2579
794.708313,2517
794.827393,2507
794.946411,2550
795.065552,2549
795.18457,2483
795.303589,2395
795.422668,2413
795.541687,2429
795.660767,2425
795.779846,2355
795.898865,2420
796.017883,2316
796.136963,2321
796.255981,2300
796.375061,2196
796.49408,2251
796.613037,2274
796.732117,2201
796.851135,2222
796.970154,2193
797.089233,2197
797.208191,2157
797.327271,2144
797.446228,2141
797.565186,2162
797.684265,2122
797.803223,2143
797.922241,2164
798.04126,2117
798.160278,2089
798.279297,2079
798.398315,2143
798.517273,2124
798.636292,2104
798.75531,2050
798.874268,2108
798.993286,2033
799.112244,2080
799.231323,2046
799.350281,2052
799.469238,2038
799.588257,2074
799.707153,2079
799.826111,2042
799.945129,2030
800.064087,2028
800.183044,2026
800.302063,2046
800.421021,2061
800.539978,2036
800.658936,2031
800.777893,1994
800.896912,1971
801.015747,1964
801.134705,1953
801.253723,1937
801.37262,1984
801.491638,1967
801.610535,2036
801.729492,1999
801.84845,1959
801.967407,1952
802.086243,1945
802.205261,1971
802.324158,1972
802.443115,1940
802.562073,1971
802.680969,1968
802.799927,1941
802.918762,1990
803.037659,1942
803.156677,1961
803.275574,1953
803.39447,1952
803.513428,1923
803.632263,1994
803.751221,1933
803.870117,1936
803.989014,1940
804.107971,1900
804.226746,1957
804.345642,1956
804.4646,1946
804.583496,1930
804.702393,1921
804.821228,1963
804.940125,1897
805.059021,1912
805.177917,1930
805.296814,1898
805.415649,1976
805.534546,1909
805.653442,1896
805.772278,1932
805.891113,1948
806.01001,1978
806.128906,1917
806.247742,1943
806.366577,1910
806.485413,1895
806.604309,1940
806.723145,1952
806.84198,1895
806.960876,1917
807.079712,1913
807.198486,1944
807.317383,1928
807.436218,1942
807.554993,1919
807.673889,1925
807.792725,1946
807.91156,1904
808.030396,1921
808.14917,1884
808.268005,1970
808.386841,1871
808.505676,1985
808.624451,1920
808.743286,1936
808.862122,1931
808.980896,1905
809.099731,1911
809.218506,1921
809.337341,1918
809.456116,1900
809.57489,1955
809.693726,1956
809.8125,1950
809.931274,1944
810.050049,1955
810.168884,1928
810.287659,1880
810.406372,1935
810.525269,1939
810.643982,1948
810.762756,1942
810.881531,1917
811.000305,1918
811.11908,1960
811.237854,1956
811.356567,1964
811.475403,1959
811.594116,1944
811.71283,1944
811.831604,2013
811.950378,1968
812.069153,1985
812.187927,1990
812.30658,1939
812.425415,1893
812.544128,1937
812.662781,1965
812.781616,1996
812.900269,1938
813.019043,1948
813.137756,1877
813.256531,1921
813.375244,1986
813.493896,1954
813.612671,1886
813.731384,1901
813.850037,1958
813.96875,1929
814.087524,1932
814.206238,1931
814.324951,1952
814.443604,1879
814.562256,1885
814.68103,1900
814.799683,1925
814.918335,1890
815.037109,1868
815.155762,1905
815.274475,1859
815.393188,1868
815.511841,1853
815.630554,1900
815.749146,1870
815.867859,1830
815.986572,1895
816.105164,1872
816.223877,1862
816.342529,1871
816.461182,1854
816.579895,1859
816.698486,1831
816.817139,1846
816.935791,1886
817.054504,1881
817.173096,1880
817.291748,1864
817.4104,1842
817.529053,1858
817.647644,1784
817.766235,1764
817.884949,1819
818.00354,1802
818.122192,1773
818.240845,1782
818.359436,1708
818.478088,1681
818.59668,1664
818.715271,1628
818.833923,1646
818.952515,1641
819.071106,1642
819.189758,1659
819.30835,1655
819.426941,1608
819.545532,1621
819.664124,1614
819.782715,1621
819.901306,1619
820.019897,1567
820.138489,1605
820.25708,1635
820.375671,1582
820.494202,1601
820.612732,1572
820.731384,1600
820.849915,1635
820.968506,1589
821.087097,1543
821.205627,1582
821.324158,1559
821.442749,1532
821.561279,1547
821.679871,1569
821.798401,1574
821.916931,1573
822.035461,1551
822.154053,1526
822.272583,1524
822.391174,1592
822.509583,1534
822.628174,1528
822.746704,1518
822.865234,1495
822.983765,1516
823.102295,1545
823.220825,1526
823.339294,1504
823.457825,1487
823.576355,1542
823.694824,1540
823.813354,1507
823.931885,1509
824.050354,1538
824.168884,1546
824.287354,1574
824.405823,1527
824.524353,1533
824.642822,1518
824.761353,1538
824.879822,1541
824.998291,1484
825.116699,1546
825.235291,1500
825.353699,1520
825.472168,1486
825.590637,1514
825.709106,1504
825.827576,1494
825.946045,1473
826.064453,1465
826.182983,1478
826.301392,1467
826.4198,1480
826.53833,1517
826.656738,1444
826.775208,1467
826.893677,1435
827.012024,1465
827.130493,1457
827.248962,1485
827.36731,1455
827.485779,1508
827.604248,1435
827.722595,1457
827.841064,1445
827.959412,1446
828.077942,1391
828.196289,1448
828.314636,1424
828.433105,1417
828.551514,1439
828.669861,1402
828.78833,1441
828.906677,1400
829.025085,1425
829.143433,1451
829.261841,1457
829.38031,1408
829.498657,1436
829.617004,1418
829.735413,1417
829.85376,1444
829.972107,1426
830.090515,1436
830.208862,1400
830.327209,1451
830.445557,1427
830.563904,1422
830.682312,1402
830.800659,1440
830.919006,1478
831.037354,1479
831.155701,1495
831.274048,1479
831.392395,1452
831.51062,1475
831.629028,1439
831.747314,1427
831.865662,1496
831.984009,1439
832.102356,1444
832.220642,1427
832.338928,1446
832.457275,1490
832.575623,1473
832.693909,1511
832.812134,1454
832.930481,1440
833.048828,1462
833.167114,1467
833.2854,1469
833.403687,1485
833.521973,1487
833.640259,1443
833.758545,1487
833.876831,1421
833.995056,1490
834.113281,1435
834.231628,1453
834.349915,1422
834.468201,1491
834.586426,1447
834.704651,1461
834.822998,1468
834.941162,1446
835.059448,1475
835.177673,1454
835.295959,1429
835.414246,1474
835.53241,1459
835.650635,1418
835.768921,1456
835.887146,1422
836.005371,1457
836.123596,1415
836.241821,1450
836.360046,1429
836.478271,1492
836.596497,1474
836.714722,1469
836.832886,1463
836.95105,1454
837.069336,1439
837.1875,1445
837.305725,1451
837.423889,1456
837.542053,1434
837.660339,1472
837.778503,1460
837.896667,1477
838.014832,1487
838.132996,1459
838.25116,1451
838.369385,1479
838.487488,1477
838.605713,1507
838.723877,1480
838.84198,1462
838.960205,1484
839.078308,1444
839.196472,1490
839.314636,1480
839.4328,1512
839.550964,1486
839.669067,1469
839.787231,1466
839.905396,1484
840.023499,1504
840.141602,1523
840.259766,1472
840.377869,1500
840.495972,1492
840.614136,1509
840.732239,1566
840.850342,1491
840.968445,1570
841.086548,1544
841.204651,1523
841.322754,1507
841.440918,1529
841.55896,1531
841.677002,1533
841.795166,1521
841.913208,1539
842.031311,1556
842.149353,1525
842.267456,1519
842.385498,1529
842.503601,1566
842.621643,1540
842.739746,1517
842.857788,1511
842.97583,1502
843.093933,1526
843.211975,1530
843.330017,1531
843.44812,1599
843.566101,1520
843.684204,1532
843.802246,1569
843.920227,1572
844.038269,1587
844.156311,1565
844.274292,1517
844.392395,1476
844.510376,1584
844.628357,1510
844.74646,1519
844.864441,1541
844.982422,1495
845.100403,1494
845.218384,1488
845.336426,1513
845.454468,1470
845.572449,1512
845.69043,1487
845.808411,1477
845.926453,1486
846.044373,1494
846.162354,1499
846.280396,1502
846.398315,1488
846.516296,1485
846.634216,1474
846.752197,1486
846.870178,1504
846.988098,1524
847.106079,1500
847.22406,1495
847.34198,1486
847.4599,1491
847.577881,1540
847.695801,1507
847.813782,1546
847.931641,1464
848.049561,1534
848.167603,1520
848.285461,1514
848.403381,1512
848.521362,1523
848.639221,1577
848.75708,1557
848.875,1562
848.99292,1555
849.110901,1539
849.22876,1571
849.34668,1569
849.464539,1509
849.582458,1567
849.700317,1559
849.818176,1570
849.936096,1587
850.053955,1589
850.171875,1516
850.289673,1579
850.407593,1504
850.525452,1579
850.643311,1576
850.761169,1532
850.878967,1589
850.996887,1569
851.114746,1534
851.232544,1544
851.350403,1548
851.468262,1526
851.58606,1533
851.703979,1554
851.821777,1524
851.939636,1516
852.057434,1556
852.175232,1534
852.293091,1539
852.410889,1560
852.528687,1589
852.646545,1602
852.764343,1647
852.88208,1568
852.999939,1591
853.117676,1539
853.235535,1542
853.353271,1551
853.471069,1502
853.588928,1518
853.706604,1515
853.824402,1553
853.9422,1541
854.059998,1545
854.177734,1516
854.295532,1539
854.413269,1522
854.531006,1525
854.648804,1579
854.766541,1493
854.884277,1567
855.002014,1549
855.119751,1484
855.237549,1522
855.355225,1537
855.473022,1502
855.590698,1553
855.708435,1498
855.826172,1465
855.943848,1518
856.061646,1533
856.179321,1558
856.296997,1533
856.414795,1572
856.53241,1541
856.650085,1566
856.767822,1577
856.885559,1583
857.003174,1604
857.120911,1589
857.238586,1583
857.356201,1545
857.473938,1585
857.591614,1536
857.709351,1592
857.826965,1598
857.944641,1563
858.062317,1597
858.179993,1561
858.297668,1577
858.415283,1582
858.532959,1527
858.650574,1595
858.768188,1562
858.885803,1560
859.003479,1551
859.121094,1521
859.23877,1546
859.356384,1520
859.473999,1488
859.591675,1532
859.709229,1523
859.826843,1493
859.944458,1493
860.062012,1503
860.179626,1503
860.297302,1527
860.414856,1514
860.532471,1519
860.650024,1509
860.767639,1481
860.885193,1524
861.002808,1531
861.120361,1453
861.237976,1498
861.35553,1516
861.473022,1524
861.590698,1544
861.708191,1529
861.825745,1537
861.943298,1517
862.060852,1525
862.178406,1477
862.295959,1509
862.413513,1514
862.531006,1460
862.64856,1433
862.766113,1471
862.883667,1434
863.00116,1488
863.118713,1461
863.236206,1488
863.353699,1497
863.471252,1491
863.588745,1422
863.706177,1473
863.82373,1481
863.941162,1515
864.058716,1506
864.176208,1485
864.29364,1531
864.411194,1472
864.528687,1456
864.646118,1486
864.763611,1494
864.881042,1501
864.998535,1524
865.116028,1470
865.233459,1472
865.350891,1468
865.468384,1506
865.585754,1480
865.703308,1468
865.820679,1493
865.938171,1491
866.055542,1477
866.173035,1486
866.290466,1493
866.407837,1441
866.52533,1466
866.6427,1516
866.760071,1492
866.877563,1499
866.994934,1449
867.112305,1494
867.229736,1509
867.347107,1484
867.464539,1452
867.58197,1481
867.699341,1508
867.81665,1467
867.934082,1544
868.051453,1526
868.168823,1472
868.286194,1478
868.403564,1483
868.520935,1490
868.638306,1458
868.755676,1473
868.872986,1513
868.990295,1528
869.107727,1513
869.225037,1491
869.342346,1512
869.459717,1509
869.577026,1564
869.694336,1510
869.811707,1538
869.929016,1608
870.046326,1555
870.163635,1557
870.280945,1532
870.398254,1500
870.515564,1562
870.632812,1550
870.750183,1559
870.867432,1569
870.984741,1560
871.102051,1576
871.219299,1599
871.336609,1601
871.453918,1604
871.571106,1593
871.688416,1626
871.805664,1641
871.922852,1624
872.040222,1580
872.157471,1642
872.274719,1610
872.391968,1600
872.509155,1600
872.626465,1607
872.743652,1551
872.860962,1595
872.978149,1588
873.095337,1586
873.212646,1560
873.329834,1567
873.44696,1604
873.564209,1590
873.681396,1590
873.798645,1620
873.915894,1608
874.03302,1581
874.150208,1588
874.267456,1562
874.384583,1611
874.501831,1610
874.618958,1630
874.736145,1599
874.853333,1670
874.970459,1655
875.087646,1622
875.204834,1637
875.32196,1627
875.439148,1591
875.556274,1585
875.673401,1591
875.790527,1525
875.907715,1588
876.024841,1574
876.141968,1569
876.259094,1536
876.376282,1552
876.493347,1555
876.610474,1534
876.7276,1549
876.844727,1559
876.961853,1555
877.078918,1585
877.195984,1535
877.313171,1528
877.430237,1563
877.547302,1530
877.664368,1554
877.781433,1551
877.898499,1496
878.015625,1532
878.13269,1561
878.249695,1546
878.366821,1546
878.483887,1534
878.600952,1515
878.717957,1519
878.834961,1499
878.952087,1538
879.069092,1503
879.186157,1459
879.303162,1449
879.420227,1491
879.537231,1494
879.654236,1523
879.77124,1503
879.888306,1474
880.005249,1484
880.122314,1474
880.239319,1500
880.356323,1504
880.473328,1510
880.590271,1477
880.707275,1446
880.824341,1477
880.941284,1497
881.058228,1456
881.175232,1492
881.292236,1455
881.40918,1463
881.526123,1456
881.643066,1441
881.760071,1498
881.877014,1527
881.993958,1461
882.11084,1450
882.227783,1471
882.344727,1431
882.46167,1503
882.578613,1404
882.695618,1478
882.812439,1453
882.929382,1491
883.046326,1453
883.163208,1449
883.280151,1506
883.397034,1485
883.513916,1486
883.630798,1540
883.747742,1553
883.864563,1499
883.981506,1571
884.098389,1501
884.21521,1496
884.332153,1562
884.448975,1586
884.565796,1593
884.682678,1645
884.7995,1671
884.916443,1702
885.033264,1750
885.150085,1783
885.266968,1794
885.383789,1829
885.500671,1839
885.617493,1837
885.734314,1914
885.851196,1792
885.967896,1810
886.084717,1832
886.201599,1797
886.318359,1809
886.435181,1754
886.552002,1767
886.668762,1731
886.785645,1726
886.902344,1729
887.019165,1736
887.135925,1681
887.252747,1694
887.369446,1688
887.486267,1651
887.603027,1621
887.719788,1608
887.836548,1610
887.953247,1593
888.070068,1597
888.186829,1553
888.303528,1523
888.420288,1567
888.536987,1477
888.653687,1550
888.770447,1482
888.887146,1501
889.003967,1519
889.120667,1492
889.237305,1432
889.354065,1488
889.470703,1448
889.587463,1479
889.704163,1476
889.820862,1454
889.937561,1472
890.054199,1441
890.170837,1453
890.287598,1452
890.404236,1474
890.520874,1448
890.637634,1504
890.754211,1446
890.87085,1511
890.987549,1488
891.104187,1496
891.220886,1501
891.337463,1516
891.454102,1513
891.57074,1483
891.687378,1489
891.804077,1487
891.920654,1494
892.037231,1480
892.15387,1539
892.270447,1498
892.387085,1488
892.503723,1460
892.6203,1451
892.736877,1501
892.853516,1473
892.970032,1498
893.08667,1493
893.203186,1493
893.319763,1474
893.43634,1438
893.552917,1490
893.669556,1480
893.786011,1463
893.902588,1465
894.019165,1491
894.135681,1476
894.252197,1453
894.368835,1491
894.485291,1547
894.601868,1512
894.718384,1499
894.8349,1479
894.951355,1485
895.067932,1436
895.184448,1477
895.300964,1492
895.417419,1452
895.533936,1459
895.650452,1488
895.766907,1464
895.883423,1454
895.999878,1507
896.116333,1488
896.232849,1462
896.349304,1498
896.465759,1466
896.582214,1477
896.698669,1504
896.815125,1488
896.931641,1469
897.048035,1468
897.164551,1445
897.280884,1470
897.397339,1477
897.513794,1470
897.630249,1459
897.746582,1491
897.863098,1471
897.979431,1470
898.095886,1481
898.212341,1523
898.328674,1491
898.445129,1533
898.561462,1521
898.677795,1514
898.794312,1489
898.910645,1487
899.026978,1517
899.143433,1470
899.259766,1503
899.37616,1471
899.492493,1469
899.608765,1498
899.725159,1477
899.841553,1504
899.957947,1493
900.07428,1535
900.190552,1518
900.306946,1474
900.423157,1524
900.53949,1501
900.655884,1477
900.772156,1555
900.888489,1516
901.004822,1506
901.121033,1509
901.237366,1509
901.353699,1481
901.46991,1522
901.586304,1537
901.702515,1544
901.818787,1529
901.93512,1614
902.051331,1573
902.167603,1635
902.283875,1656
902.400085,1635
902.516418,1679
902.632629,1638
902.74884,1715
902.865112,1680
902.981384,1683
903.097595,1683
903.213867,1711
903.330017,1645
903.446289,1669
903.5625,1666
903.67865,1627
903.794922,1612
903.911072,1628
904.027344,1585
904.143494,1618
904.259705,1573
904.375916,1569
904.492065,1586
904.608215,1530
904.724426,1592
904.840576,1542
904.956726,1503
905.072876,1567
905.189087,1569
905.305176,1521
905.421387,1533
905.537537,1543
905.653687,1546
905.769775,1487
905.885925,1518
906.002014,1476
906.118164,1468
906.234314,1508
906.350403,1540
906.466492,1555
906.582642,1516
906.69873,1499
906.814758,1490
906.930908,1455
907.046936,1516
907.163086,1521
907.279175,1529
907.395264,1481
907.511353,1478
907.62738,1512
907.743408,1523
907.859497,1515
907.975525,1483
908.091553,1476
908.207703,1509
908.32373,1513
908.439758,1483
908.555786,1540
908.671814,1506
908.787842,1500
908.90387,1483
909.019775,1498
909.135864,1495
909.251892,1524
909.367859,1538
909.483826,1493
909.599854,1500
909.715881,1506
909.831848,1515
909.947815,1558
910.063782,1481
910.179749,1544
910.295776,1514
910.411743,1493
910.527649,1520
910.643616,1530
910.759583,1530
910.875488,1525
910.991455,1497
911.107361,1511
911.223267,1505
911.339294,1516
911.4552,1527
911.571106,1516
911.687073,1517
911.802979,1518
911.918823,1479
912.034729,1518
912.150635,1513
912.266602,1520
912.382446,1513
912.498352,1493
912.614197,1491
912.730103,1474
912.846008,1505
792.44574,3527
792.56488,3349
792.68396,3337
792.80304,3316
792.92218,3144
793.041199,3114
793.160339,3081
793.279419,3064
793.398499,2961
793.517578,2935
793.636658,2836
793.755737,2855
793.874817,2827
793.993896,2829
794.112976,2765
794.232056,2671
794.351074,2651
794.470215,2577
794.589233,2571
794.708313,2503
794.827393,2549
794.946411,2496
795.065552,2529
795.18457,2480
795.303589,2451
795.422668,2447
795.541687,2421
795.660767,2453
795.779846,2365
795.898865,2354
796.017883,2331
796.136963,2349
796.255981,2346
796.375061,2301
796.49408,2287
796.613037,2229
796.732117,2240
796.851135,2211
796.970154,2238
797.089233,2252
797.208191,2173
797.327271,2154
797.446228,2143
797.565186,2207
797.684265,2194
797.803223,2171
797.922241,2149
798.04126,2154
798.160278,2155
798.279297,2095
798.398315,2094
798.517273,2115
798.636292,2102
798.75531,2057
798.874268,2103
798.993286,2061
799.112244,2057
799.231323,2051
799.350281,2038
799.469238,2082
799.588257,2085
799.707153,2028
799.826111,2080
799.945129,2001
800.064087,2063
800.183044,2059
800.302063,1996
800.421021,2038
800.539978,2022
800.658936,2001
800.777893,1966
800.896912,2002
801.015747,1972
801.134705,2025
801.253723,1971
801.37262,2001
801.491638,2012
801.610535,2003
801.729492,2033
801.84845,1975
801.967407,1972
802.086243,1998
802.205261,1935
802.324158,1952
802.443115,1977
802.562073,1981
802.680969,1961
802.799927,1929
802.918762,1948
803.037659,1999
803.156677,1935
803.275574,1934
803.39447,1962
803.513428,1938
803.632263,1916
803.751221,1946
803.870117,1891
803.989014,1939
804.107971,1964
804.226746,1953
804.345642,1915
804.4646,1884
804.583496,1901
804.702393,1928
804.821228,1873
804.940125,1950
805.059021,1899
805.177917,1957
805.296814,1910
805.415649,1926
805.534546,1914
805.653442,1988
805.772278,1913
805.891113,1961
806.01001,1901
806.128906,1943
806.247742,1923
806.366577,1948
806.485413,1900
806.604309,1984
806.723145,1904
806.84198,1918
806.960876,1952
807.079712,1921
807.198486,1959
807.317383,1936
807.436218,1965
807.554993,1918
807.673889,1910
807.792725,1920
807.91156,1908
808.030396,1920
808.14917,1909
808.268005,1899
808.386841,1921
808.505676,1902
808.624451,1906
808.743286,1905
808.862122,1914
808.980896,1913
809.099731,1891
809.218506,1902
809.337341,1896
809.456116,1943
809.57489,1937
809.693726,1975
809.8125,1976
809.931274,1983
810.050049,1998
810.168884,1943
810.287659,1909
810.406372,1947
810.525269,1889
810.643982,1965
810.762756,1953
810.881531,1914
811.000305,1940
811.11908,1913
811.237854,1917
811.356567,1962
811.475403,1898
811.594116,1906
811.71283,1959
811.831604,1951
811.950378,1934
812.069153,2000
812.187927,2031
812.30658,1943
812.425415,1928
812.544128,1934
812.662781,1966
812.781616,1936
812.900269,1949
813.019043,1981
813.137756,1946
813.256531,1948
813.375244,1953
813.493896,1916
813.612671,1932
813.731384,1920
813.850037,1958
813.96875,1922
814.087524,1907
814.206238,1920
814.324951,1828
814.443604,1885
814.562256,1915
814.68103,1909
814.799683,1926
814.918335,1912
815.037109,1890
815.155762,1885
815.274475,1909
815.393188,1849
815.511841,1887
815.630554,1858
815.749146,1858
815.867859,1847
815.986572,1863
816.105164,1841
816.223877,1824
816.342529,1824
816.461182,1834
816.579895,1881
816.698486,1848
816.817139,1865
816.935791,1895
817.054504,1931
817.173096,1871
817.291748,1835
817.4104,1864
817.529053,1848
817.647644,1788
817.766235,1784
817.884949,1820
818.00354,1776
818.122192,1753
818.240845,1735
818.359436,1757
818.478088,1726
818.59668,1710
818.715271,1667
818.833923,1672
818.952515,1686
819.071106,1613
819.189758,1660
819.30835,1592
819.426941,1662
819.545532,1550
819.664124,1620
819.782715,1622
819.901306,1582
820.019897,1617
820.138489,1613
820.25708,1574
820.375671,1581
820.494202,1655
820.612732,1607
820.731384,1554
820.849915,1586
820.968506,1581
821.087097,1555
821.205627,1562
821.324158,1544
821.442749,1567
821.561279,1562
821.679871,1534
821.798401,1532
821.916931,1545
822.035461,1574
822.154053,1585
822.272583,1505
822.391174,1545
822.509583,1557
822.628174,1518
822.746704,1509
822.865234,1525
822.983765,1537
823.102295,1498
823.220825,1500
823.339294,1520
823.457825,1516
823.576355,1526
823.694824,1526
823.813354,1533
823.931885,1513
824.050354,1573
824.168884,1512
824.287354,1559
824.405823,1559
824.524353,1544
824.642822,1530
824.761353,1510
824.879822,1543
824.998291,1522
825.116699,1494
825.235291,1564
825.353699,1548
825.472168,1446
825.590637,1532
825.709106,1473
825.827576,1529
825.946045,1487
826.064453,1536
826.182983,1503
826.301392,1494
826.4198,1434
826.53833,1460
826.656738,1447
826.775208,1467
826.893677,1440
827.012024,1482
827.130493,1463
827.248962,1460
827.36731,1492
827.485779,1419
827.604248,1455
827.722595,1440
827.841064,1457
827.959412,1420
828.077942,1469
828.196289,1406
828.314636,1437
828.433105,1448
828.551514,1426
828.669861,1470
828.78833,1434
828.906677,1444
829.025085,1439
829.143433,1464
829.261841,1457
829.38031,1432
829.498657,1403
829.617004,1429
829.735413,1428
829.85376,1435
829.972107,1447
830.090515,1422
830.208862,1413
830.327209,1425
830.445557,1441
830.563904,1441
830.682312,1426
830.800659,1460
830.919006,1447
831.037354,1489
831.155701,1499
831.274048,1521
831.392395,1475
831.51062,1493
831.629028,1432
831.747314,1467
831.865662,1411
831.984009,1445
832.102356,1479
832.220642,1431
832.338928,1466
832.457275,1459
832.575623,1462
832.693909,1448
832.812134,1487
832.930481,1473
833.048828,1508
833.167114,1469
833.2854,1453
833.403687,1469
833.521973,1452
833.640259,1465
833.758545,1483
833.876831,1439
833.995056,1456
834.113281,1473
834.231628,1458
834.349915,1442
834.468201,1449
834.586426,1425
834.704651,1432
834.822998,1465
834.941162,1471
835.059448,1455
835.177673,1493
835.295959,1463
835.414246,1496
835.53241,1476
835.650635,1438
835.768921,1472
835.887146,1454
836.005371,1452
836.123596,1505
836.241821,1460
836.360046,1461
836.478271,1460
836.596497,1473
836.714722,1426
836.832886,1445
836.95105,1438
837.069336,1517
837.1875,1428
837.305725,1493
837.423889,1469
837.542053,1455
837.660339,1503
837.778503,1480
837.896667,1468
838.014832,1508
838.132996,1471
838.25116,1468
838.369385,1458
838.487488,1560
838.605713,1496
838.723877,1445
838.84198,1521
838.960205,1484
839.078308,1458
839.196472,1535
839.314636,1516
839.4328,1468
839.550964,1505
839.669067,1492
839.787231,1503
839.905396,1526
840.023499,1535
840.141602,1564
840.259766,1507
840.377869,1579
840.495972,1534
840.614136,1541
840.732239,1490
840.850342,1512
840.968445,1499
841.086548,1520
841.204651,1539
841.322754,1551
841.440918,1538
841.55896,1564
841.677002,1544
841.795166,1495
841.913208,1574
842.031311,1535
842.149353,1549
842.267456,1550
842.385498,1524
842.503601,1518
842.621643,1537
842.739746,1568
842.857788,1564
842.97583,1516
843.093933,1540
843.211975,1577
843.330017,1526
843.44812,1526
843.566101,1524
843.684204,1581
843.802246,1561
843.920227,1518
844.038269,1561
844.156311,1546
844.274292,1524
844.392395,1542
844.510376,1560
844.628357,1544
844.74646,1516
844.864441,1488
844.982422,1532
845.100403,1543
845.218384,1473
845.336426,1513
845.454468,1497
845.572449,1486
845.69043,1524
845.808411,1509
845.926453,1556
846.044373,1489
846.162354,1477
846.280396,1504
846.398315,1512
846.516296,1544
846.634216,1551
846.752197,1523
846.870178,1563
846.988098,1534
847.106079,1511
847.22406,1524
847.34198,1509
847.4599,1560
847.577881,1481
847.695801,1499
847.813782,1489
847.931641,1532
848.049561,1535
848.167603,1533
848.285461,1515
848.403381,1510
848.521362,1553
848.639221,1539
848.75708,1516
848.875,1533
848.99292,1562
849.110901,1573
849.22876,1537
849.34668,1553
849.464539,1559
849.582458,1574
849.700317,1559
849.818176,1581
849.936096,1578
850.053955,1620
850.171875,1546
850.289673,1561
850.407593,1585
850.525452,1566
850.643311,1601
850.761169,1574
850.878967,1552
850.996887,1558
851.114746,1561
851.232544,1597
851.350403,1560
851.468262,1542
851.58606,1540
851.703979,1530
851.821777,1576
851.939636,1554
852.057434,1510
852.175232,1510
852.293091,1578
852.410889,1602
852.528687,1599
852.646545,1643
852.764343,1608
852.88208,1614
852.999939,1599
853.117676,1571
853.235535,1572
853.353271,1547
853.471069,1477
853.588928,1560
853.706604,1499
853.824402,1476
853.9422,1535
854.059998,1478
854.177734,1526
854.295532,1558
854.413269,1569
854.531006,1588
854.648804,1493
854.766541,1542
854.884277,1532
855.002014,1563
855.119751,1553
855.237549,1509
855.355225,1505
855.473022,1487
855.590698,1523
855.708435,1509
855.826172,1525
855.943848,1501
856.061646,1563
856.179321,1538
856.296997,1556
856.414795,1564
856.53241,1570
856.650085,1615
856.767822,1565
856.885559,1601
857.003174,1589
857.120911,1614
857.238586,1596
857.356201,1579
857.473938,1560
857.591614,1586
857.709351,1594
857.826965,1561
857.944641,1603
858.062317,1581
858.179993,1601
858.297668,1583
858.415283,1498
858.532959,1600
858.650574,1603
858.768188,1586
858.885803,1582
859.003479,1611
859.121094,1545
859.23877,1567
859.356384,1516
859.473999,1552
859.591675,1493
859.709229,1541
859.826843,1573
859.944458,1500
860.062012,1473
860.179626,1516
860.297302,1531
860.414856,1531
860.532471,1505
860.650024,1513
860.767639,1514
860.885193,1546
861.002808,1463
861.120361,1571
861.237976,1526
861.35553,1548
861.473022,1507
861.590698,1528
861.708191,1554
861.825745,1540
861.943298,1508
862.060852,1463
862.178406,1503
862.295959,1463
862.413513,1498
862.531006,1466
862.64856,1466
862.766113,1467
862.883667,1532
863.00116,1476
863.118713,1482
863.236206,1499
863.353699,1488
863.471252,1535
863.588745,1494
863.706177,1512
863.82373,1504
863.941162,1468
864.058716,1458
864.176208,1520
864.29364,1503
864.411194,1506
864.528687,1513
864.646118,1469
864.763611,1463
864.881042,1480
864.998535,1505
865.116028,1490
865.233459,1535
865.350891,1467
865.468384,1499
865.585754,1521
865.703308,1513
865.820679,1470
865.938171,1481
866.055542,3389
866.173035,2287
866.290466,1454
866.407837,1487
866.52533,1470
866.6427,1491
866.760071,3256
866.877563,4109
866.994934,3443
867.112305,3545
867.229736,3171
867.347107,2538
867.464539,1496
867.58197,1482
867.699341,1490
867.81665,1523
867.934082,1496
868.051453,1509
868.168823,1479
868.286194,1497
868.403564,1516
868.520935,1475
868.638306,1496
868.755676,1523
868.872986,1528
868.990295,1537
869.107727,1509
869.225037,1550
869.342346,1532
869.459717,1512
869.577026,1527
869.694336,1504
869.811707,1541
869.929016,1541
870.046326,1537
870.163635,1568
870.280945,1501
870.398254,1545
870.515564,1561
870.632812,1556
870.750183,1560
870.867432,1605
870.984741,1556
871.102051,1614
871.219299,1596
871.336609,1650
871.453918,1623
871.571106,1614
871.688416,1640
871.805664,1576
871.922852,1645
872.040222,1624
872.157471,1611
872.274719,1629
872.391968,1613
872.509155,1631
872.626465,1573
872.743652,1590
872.860962,1592
872.978149,1591
873.095337,1563
873.212646,1588
873.329834,1576
873.44696,1595
873.564209,1553
873.681396,1566
873.798645,1581
873.915894,1603
874.03302,1605
874.150208,1588
874.267456,1628
874.384583,1638
874.501831,1675
874.618958,1662
874.736145,1681
874.853333,1627
874.970459,1638
875.087646,1664
875.204834,1605
875.32196,1596
875.439148,1610
875.556274,1631
875.673401,1601
875.790527,1591
875.907715,1593
876.024841,1588
876.141968,1574
876.259094,1588
876.376282,1530
876.493347,1553
876.610474,1520
876.7276,1574
876.844727,1531
876.961853,1583
877.078918,1545
877.195984,1565
877.313171,1569
877.430237,1555
877.547302,1548
877.664368,1525
877.781433,1537
877.898499,1557
878.015625,1550
878.13269,1488
878.249695,1532
878.366821,1509
878.483887,1545
878.600952,1478
878.717957,1524
878.834961,1547
878.952087,1487
879.069092,1522
879.186157,1474
879.303162,1494
879.420227,1500
879.537231,1499
879.654236,1473
879.77124,1488
879.888306,1473
880.005249,1478
880.122314,1475
880.239319,1446
880.356323,1495
880.473328,1476
880.590271,1502
880.707275,1511
880.824341,1505
880.941284,1525
881.058228,1481
881.175232,1491
881.292236,1468
881.40918,1503
881.526123,1445
881.643066,1518
881.760071,1458
881.877014,1474
881.993958,1443
882.11084,1502
882.227783,1494
882.344727,1484
882.46167,1490
882.578613,1480
882.695618,1479
882.812439,1458
882.929382,1520
883.046326,1504
883.163208,1458
883.280151,1501
883.397034,1458
883.513916,1501
883.630798,1559
883.747742,1564
883.864563,1540
883.981506,1478
884.098389,1505
884.21521,1548
884.332153,1560
884.448975,1579
884.565796,1612
884.682678,1605
884.7995,1645
884.916443,1702
885.033264,1759
885.150085,1796
885.266968,1807
885.383789,1837
885.500671,1881
885.617493,1865
885.734314,1844
885.851196,1815
885.967896,1857
886.084717,1879
886.201599,1807
886.318359,1806
886.435181,1790
886.552002,1793
886.668762,1780
886.785645,1771
886.902344,1735
887.019165,1713
887.135925,1670
887.252747,1699
887.369446,1695
887.486267,1661
887.603027,1640
887.719788,1647
887.836548,1575
887.953247,1541
888.070068,1575
888.186829,1563
888.303528,1564
888.420288,1549
888.536987,1550
888.653687,1515
888.770447,1479
888.887146,1512
889.003967,1535
889.120667,1496
889.237305,1462
889.354065,1438
889.470703,1457
889.587463,1484
889.704163,1480
889.820862,1521
889.937561,1457
890.054199,1454
890.170837,1447
890.287598,1478
890.404236,1436
890.520874,1497
890.637634,1465
890.754211,1459
890.87085,1473
890.987549,1479
891.104187,1464
891.220886,1444
891.337463,1495
891.454102,1513
891.57074,1527
891.687378,1514
891.804077,1490
891.920654,1475
892.037231,1498
892.15387,1494
892.270447,1480
892.387085,1443
892.503723,1506
892.6203,1515
892.736877,1453
892.853516,1498
892.970032,1507
893.08667,1495
893.203186,1503
893.319763,1479
893.43634,1519
893.552917,1496
893.669556,1484
893.786011,1543
893.902588,1483
894.019165,1547
894.135681,1477
894.252197,1490
894.368835,1505
894.485291,1507
894.601868,1501
894.718384,1480
894.8349,1487
894.951355,1486
895.067932,1493
895.184448,1472
895.300964,1500
895.417419,1515
895.533936,1485
895.650452,1451
895.766907,1484
895.883423,1481
895.999878,1515
896.116333,1505
896.232849,1497
896.349304,1496
896.465759,1465
896.582214,1462
896.698669,1486
896.815125,1515
896.931641,1532
897.048035,1515
897.164551,1456
897.280884,1479
897.397339,1507
897.513794,1516
897.630249,1462
897.746582,1475
897.863098,1456
897.979431,1515
898.095886,1517
898.212341,1498
898.328674,1496
898.445129,1496
898.561462,1500
898.677795,1503
898.794312,1494
898.910645,1470
899.026978,1491
899.143433,1515
899.259766,1528
899.37616,1499
899.492493,1487
899.608765,1563
899.725159,1504
899.841553,1514
899.957947,1505
900.07428,1522
900.190552,1537
900.306946,1487
900.423157,1493
900.53949,1539
900.655884,1527
900.772156,1539
900.888489,1545
901.004822,1528
901.121033,1514
901.237366,1501
901.353699,1555
901.46991,1575
901.586304,1537
901.702515,1581
901.818787,1590
901.93512,1579
902.051331,1608
902.167603,1631
902.283875,1595
902.400085,1652
902.516418,1671
902.632629,1701
902.74884,1688
902.865112,1692
902.981384,1687
903.097595,1703
903.213867,1700
903.330017,1660
903.446289,1671
903.5625,1613
903.67865,1627
903.794922,1669
903.911072,1642
904.027344,1609
904.143494,1588
904.259705,1629
904.375916,1593
904.492065,1599
904.608215,1605
904.724426,1546
904.840576,1567
904.956726,1563
905.072876,1555
905.189087,1552
905.305176,1558
905.421387,1539
905.537537,1536
905.653687,1506
905.769775,1527
905.885925,1515
906.002014,1542
906.118164,1479
906.234314,1517
906.350403,1514
906.466492,1511
906.582642,1579
906.69873,1491
906.814758,1502
906.930908,1485
907.046936,1489
907.163086,1545
907.279175,1452
907.395264,1478
907.511353,1531
907.62738,1513
907.743408,1578
907.859497,1511
907.975525,1500
908.091553,1451
908.207703,1508
908.32373,1551
908.439758,1470
908.555786,1509
908.671814,1550
908.787842,1510
908.90387,1509
909.019775,1519
909.135864,1520
909.251892,1511
909.367859,1511
909.483826,1514
909.599854,1532
909.715881,1557
909.831848,1517
909.947815,1544
910.063782,1543
910.179749,1536
910.295776,1519
910.411743,1495
910.527649,1547
910.643616,1561
910.759583,1519
910.875488,1558
910.991455,1499
911.107361,1519
911.223267,1528
911.339294,1524
911.4552,1532
911.571106,1524
911.687073,1573
911.802979,1487
911.918823,1507
912.034729,1512
912.150635,1508
912.266602,1479
912.382446,1518
912.498352,1485
912.614197,1516
912.730103,1524
912.846008,1493
