792.44574,2165
792.56488,2132
792.68396,2106
792.80304,2117
792.92218,2056
793.041199,2032
793.160339,2057
793.279419,2086
793.398499,2032
793.517578,2050
793.636658,2005
793.755737,2049
793.874817,2017
793.993896,1973
794.112976,1981
794.232056,1992
794.351074,1884
794.470215,1948
794.589233,1997
794.708313,1928
794.827393,1955
794.946411,1907
795.065552,1945
795.18457,1898
795.303589,1931
795.422668,1956
795.541687,1961
795.660767,1898
795.779846,1867
795.898865,1942
796.017883,1859
796.136963,1947
796.255981,1912
796.375061,1934
796.49408,1867
796.613037,1898
796.732117,1880
796.851135,1880
796.970154,1850
797.089233,1905
797.208191,1876
797.327271,1867
797.446228,1844
797.565186,1846
797.684265,1844
797.803223,1875
797.922241,1841
798.04126,1870
798.160278,1805
798.279297,1907
798.398315,1889
798.517273,1933
798.636292,1818
798.75531,1823
798.874268,1889
798.993286,1828
799.112244,1836
799.231323,1881
799.350281,1869
799.469238,1887
799.588257,1852
799.707153,1827
799.826111,1888
799.945129,1884
800.064087,1892
800.183044,1875
800.302063,1831
800.421021,1900
800.539978,1885
800.658936,1867
800.777893,1871
800.896912,1873
801.015747,1888
801.134705,1853
801.253723,1815
801.37262,1816
801.491638,1891
801.610535,1901
801.729492,1892
801.84845,1849
801.967407,1894
802.086243,1904
802.205261,1913
802.324158,1897
802.443115,1956
802.562073,1889
802.680969,1901
802.799927,1924
802.918762,1874
803.037659,1888
803.156677,1937
803.275574,1925
803.39447,1874
803.513428,1927
803.632263,1938
803.751221,1948
803.870117,1965
803.989014,1986
804.107971,1966
804.226746,1910
804.345642,1907
804.4646,1964
804.583496,1951
804.702393,1989
804.821228,1975
804.940125,1979
805.059021,1929
805.177917,1897
805.296814,1955
805.415649,1966
805.534546,1974
805.653442,2034
805.772278,2012
805.891113,1993
806.01001,1997
806.128906,2003
806.247742,1975
806.366577,2034
806.485413,2002
806.604309,2013
806.723145,2017
806.84198,2024
806.960876,1957
807.079712,1972
807.198486,1999
807.317383,2035
807.436218,2006
807.554993,2010
807.673889,2013
807.792725,2023
807.91156,2070
808.030396,2027
808.14917,2049
808.268005,2010
808.386841,2066
808.505676,2057
808.624451,2032
808.743286,2058
808.862122,2026
808.980896,2036
809.099731,2060
809.218506,2038
809.337341,2013
809.456116,2051
809.57489,2062
809.693726,2039
809.8125,2115
809.931274,2112
810.050049,2068
810.168884,2117
810.287659,2130
810.406372,2071
810.525269,2082
810.643982,2083
810.762756,2050
810.881531,5353
811.000305,10836
811.11908,1957
811.237854,2039
811.356567,2096
811.475403,2107
811.594116,2115
811.71283,2083
811.831604,2100
811.950378,2128
812.069153,2085
812.187927,2056
812.30658,2127
812.425415,2102
812.544128,2110
812.662781,2116
812.781616,2031
812.900269,2060
813.019043,2106
813.137756,2062
813.256531,2079
813.375244,2133
813.493896,2034
813.612671,2103
813.731384,2056
813.850037,2091
813.96875,2105
814.087524,2053
814.206238,2074
814.324951,2056
814.443604,2119
814.562256,2044
814.68103,2051
814.799683,2026
814.918335,2125
815.037109,1992
815.155762,2073
815.274475,2033
815.393188,2086
815.511841,2060
815.630554,2004
815.749146,1965
815.867859,1978
815.986572,2021
816.105164,1958
816.223877,1940
816.342529,1984
816.461182,1982
816.579895,1992
816.698486,2000
816.817139,2062
816.935791,2063
817.054504,2041
817.173096,2018
817.291748,1979
817.4104,1943
817.529053,1933
817.647644,1924
817.766235,1843
817.884949,1865
818.00354,1764
818.122192,1742
818.240845,1795
818.359436,1740
818.478088,1737
818.59668,1719
818.715271,1635
818.833923,1656
818.952515,1571
819.071106,1631
819.189758,1586
819.30835,1558
819.426941,1547
819.545532,1531
819.664124,1512
819.782715,1527
819.901306,1468
820.019897,1516
820.138489,1508
820.25708,1479
820.375671,1519
820.494202,1481
820.612732,1505
820.731384,1464
820.849915,1521
820.968506,1468
821.087097,1463
821.205627,1445
821.324158,1499
821.442749,1475
821.561279,1490
821.679871,1469
821.798401,1418
821.916931,1480
822.035461,1453
822.154053,1455
822.272583,1436
822.391174,1444
822.509583,1416
822.628174,1463
822.746704,1452
822.865234,1418
822.983765,1458
823.102295,1425
823.220825,1428
823.339294,1468
823.457825,1437
823.576355,1437
823.694824,1445
823.813354,1427
823.931885,1424
824.050354,1456
824.168884,1500
824.287354,1460
824.405823,1534
824.524353,1479
824.642822,1467
824.761353,1426
824.879822,1461
824.998291,1465
825.116699,1471
825.235291,1455
825.353699,1433
825.472168,1406
825.590637,1383
825.709106,1461
825.827576,1423
825.946045,1385
826.064453,1402
826.182983,1414
826.301392,1376
826.4198,1308
826.53833,1397
826.656738,1392
826.775208,1413
826.893677,1406
827.012024,1347
827.130493,1417
827.248962,1386
827.36731,1367
827.485779,1387
827.604248,1347
827.722595,1359
827.841064,1360
827.959412,1389
828.077942,1327
828.196289,1373
828.314636,1337
828.433105,1358
828.551514,1351
828.669861,1328
828.78833,1367
828.906677,1326
829.025085,1353
829.143433,1364
829.261841,1310
829.38031,1301
829.498657,1320
829.617004,1360
829.735413,1384
829.85376,1334
829.972107,1374
830.090515,1314
830.208862,1337
830.327209,1368
830.445557,1344
830.563904,1329
830.682312,1324
830.800659,1326
830.919006,1343
831.037354,1355
831.155701,1359
831.274048,1320
831.392395,1293
831.51062,1320
831.629028,1311
831.747314,1364
831.865662,1352
831.984009,1319
832.102356,1329
832.220642,1334
832.338928,1346
832.457275,1297
832.575623,1344
832.693909,1314
832.812134,1313
832.930481,1348
833.048828,1311
833.167114,1300
833.2854,1341
833.403687,1347
833.521973,1304
833.640259,1333
833.758545,1306
833.876831,1362
833.995056,1342
834.113281,1335
834.231628,1347
834.349915,1312
834.468201,1327
834.586426,1386
834.704651,1338
834.822998,1343
834.941162,1342
835.059448,1331
835.177673,1353
835.295959,1303
835.414246,1349
835.53241,1328
835.650635,1298
835.768921,1335
835.887146,1365
836.005371,1340
836.123596,1341
836.241821,1362
836.360046,1358
836.478271,1388
836.596497,1394
836.714722,1402
836.832886,1442
836.95105,1367
837.069336,1379
837.1875,1413
837.305725,1416
837.423889,1412
837.542053,1412
837.660339,1421
837.778503,1387
837.896667,1399
838.014832,1437
838.132996,1395
838.25116,1407
838.369385,1422
838.487488,1387
838.605713,1387
838.723877,1397
838.84198,1405
838.960205,1397
839.078308,1379
839.196472,1367
839.314636,1355
839.4328,1373
839.550964,1371
839.669067,1328
839.787231,1405
839.905396,1396
840.023499,1387
840.141602,1406
840.259766,1404
840.377869,1372
840.495972,1399
840.614136,1361
840.732239,1399
840.850342,1327
840.968445,1369
841.086548,1349
841.204651,1400
841.322754,1366
841.440918,1338
841.55896,1319
841.677002,1393
841.795166,1373
841.913208,1324
842.031311,1356
842.149353,1339
842.267456,1288
842.385498,1333
842.503601,1341
842.621643,1334
842.739746,1284
842.857788,1351
842.97583,1296
843.093933,1290
843.211975,1338
843.330017,1301
843.44812,1319
843.566101,1348
843.684204,1323
843.802246,1292
843.920227,1335
844.038269,1345
844.156311,1355
844.274292,1304
844.392395,1311
844.510376,1317
844.628357,1323
844.74646,1314
844.864441,1290
844.982422,1303
845.100403,1256
845.218384,1300
845.336426,1311
845.454468,1279
845.572449,1269
845.69043,1307
845.808411,1285
845.926453,1319
846.044373,1310
846.162354,1335
846.280396,1312
846.398315,1333
846.516296,1317
846.634216,1297
846.752197,1310
846.870178,1301
846.988098,1312
847.106079,1307
847.22406,1296
847.34198,1290
847.4599,1325
847.577881,1280
847.695801,1280
847.813782,1317
847.931641,1316
848.049561,1279
848.167603,1305
848.285461,1292
848.403381,1334
848.521362,1296
848.639221,1283
848.75708,1268
848.875,1359
848.99292,1343
849.110901,1306
849.22876,1300
849.34668,1335
849.464539,1324
849.582458,1307
849.700317,1317
849.818176,1300
849.936096,1331
850.053955,1297
850.171875,1298
850.289673,1335
850.407593,1271
850.525452,1324
850.643311,1322
850.761169,1326
850.878967,1306
850.996887,1306
851.114746,1297
851.232544,1271
851.350403,1319
851.468262,1322
851.58606,1330
851.703979,1346
851.821777,1341
851.939636,1316
852.057434,1309
852.175232,1339
852.293091,1319
852.410889,1345
852.528687,1311
852.646545,1346
852.764343,1345
852.88208,1330
852.999939,1340
853.117676,1319
853.235535,1304
853.353271,1288
853.471069,1349
853.588928,1325
853.706604,1356
853.824402,1305
853.9422,1314
854.059998,1357
854.177734,1311
854.295532,1352
854.413269,1341
854.531006,1331
854.648804,1364
854.766541,1322
854.884277,1298
855.002014,1379
855.119751,1307
855.237549,1372
855.355225,1346
855.473022,1373
855.590698,1338
855.708435,1304
855.826172,1409
855.943848,1331
856.061646,1346
856.179321,1320
856.296997,1371
856.414795,1370
856.53241,1387
856.650085,1381
856.767822,1355
856.885559,1357
857.003174,1378
857.120911,1351
857.238586,1338
857.356201,1392
857.473938,1332
857.591614,1315
857.709351,1363
857.826965,1331
857.944641,1341
858.062317,1354
858.179993,1372
858.297668,1325
858.415283,1317
858.532959,1334
858.650574,1357
858.768188,1360
858.885803,1355
859.003479,1323
859.121094,1360
859.23877,1339
859.356384,1366
859.473999,1325
859.591675,1365
859.709229,1332
859.826843,1339
859.944458,1368
860.062012,1311
860.179626,1333
860.297302,1340
860.414856,1359
860.532471,1301
860.650024,1341
860.767639,1322
860.885193,1326
861.002808,1340
861.120361,1370
861.237976,1344
861.35553,1318
861.473022,1288
861.590698,1394
861.708191,1343
861.825745,1335
861.943298,1339
862.060852,1363
862.178406,1334
862.295959,1341
862.413513,1323
862.531006,1315
862.64856,1347
862.766113,1346
862.883667,1336
863.00116,1353
863.118713,1344
863.236206,1330
863.353699,1335
863.471252,1350
863.588745,1303
863.706177,1357
863.82373,1311
863.941162,1336
864.058716,1347
864.176208,1363
864.29364,1339
864.411194,1387
864.528687,1328
864.646118,1356
864.763611,1373
864.881042,1356
864.998535,1371
865.116028,1330
865.233459,1330
865.350891,1372
865.468384,1346
865.585754,1400
865.703308,1371
865.820679,1356
865.938171,1334
866.055542,1349
866.173035,1366
866.290466,1328
866.407837,1351
866.52533,1378
866.6427,1354
866.760071,1336
866.877563,1406
866.994934,1363
867.112305,1394
867.229736,1315
867.347107,1359
867.464539,1364
867.58197,1366
867.699341,1363
867.81665,1370
867.934082,1375
868.051453,1383
868.168823,1357
868.286194,1349
868.403564,1342
868.520935,1337
868.638306,1372
868.755676,1371
868.872986,1369
868.990295,1350
869.107727,1350
869.225037,1365
869.342346,1394
869.459717,1350
869.577026,1390
869.694336,1366
869.811707,1343
869.929016,1376
870.046326,1379
870.163635,1369
870.280945,1351
870.398254,1375
870.515564,1383
870.632812,1353
870.750183,1384
870.867432,1330
870.984741,1337
871.102051,1375
871.219299,1339
871.336609,1364
871.453918,1387
871.571106,1381
871.688416,1374
871.805664,1363
871.922852,1375
872.040222,1377
872.157471,1353
872.274719,1379
872.391968,1374
872.509155,1369
872.626465,1363
872.743652,1378
872.860962,1332
872.978149,1400
873.095337,1341
873.212646,1370
873.329834,1313
873.44696,1360
873.564209,1387
873.681396,1387
873.798645,1343
873.915894,1376
874.03302,1372
874.150208,1351
874.267456,1373
874.384583,1368
874.501831,1314
874.618958,1380
874.736145,1333
874.853333,1387
874.970459,1342
875.087646,1410
875.204834,1360
875.32196,1342
875.439148,1356
875.556274,1333
875.673401,1376
875.790527,1366
875.907715,1342
876.024841,1396
876.141968,1399
876.259094,1320
876.376282,1359
876.493347,1398
876.610474,1386
876.7276,1384
876.844727,1418
876.961853,1359
877.078918,1426
877.195984,1381
877.313171,1387
877.430237,1379
877.547302,1368
877.664368,1412
877.781433,1364
877.898499,1398
878.015625,1340
878.13269,1403
878.249695,1363
878.366821,1402
878.483887,1370
878.600952,1390
878.717957,1395
878.834961,1395
878.952087,1358
879.069092,1403
879.186157,1388
879.303162,1414
879.420227,1377
879.537231,1364
879.654236,1401
879.77124,1384
879.888306,1385
880.005249,1357
880.122314,1431
880.239319,1366
880.356323,1358
880.473328,1342
880.590271,1388
880.707275,1373
880.824341,1365
880.941284,1392
881.058228,1380
881.175232,1400
881.292236,1350
881.40918,1378
881.526123,1359
881.643066,1393
881.760071,1433
881.877014,1368
881.993958,1400
882.11084,1400
882.227783,1363
882.344727,1382
882.46167,1415
882.578613,1353
882.695618,1396
882.812439,1337
882.929382,1400
883.046326,1406
883.163208,1369
883.280151,1398
883.397034,1379
883.513916,1415
883.630798,1366
883.747742,1429
883.864563,1392
883.981506,1342
884.098389,1390
884.21521,1343
884.332153,1432
884.448975,1346
884.565796,1405
884.682678,1404
884.7995,1402
884.916443,1402
885.033264,1428
885.150085,1408
885.266968,1402
885.383789,1442
885.500671,1381
885.617493,1409
885.734314,1457
885.851196,1389
885.967896,1430
886.084717,1383
886.201599,1430
886.318359,1410
886.435181,1419
886.552002,1447
886.668762,1439
886.785645,1412
886.902344,1429
887.019165,1410
887.135925,1387
887.252747,1436
887.369446,1372
887.486267,1461
887.603027,1366
887.719788,1416
887.836548,1404
887.953247,1429
888.070068,1425
888.186829,1399
888.303528,1393
888.420288,1433
888.536987,1417
888.653687,1451
888.770447,1440
888.887146,1410
889.003967,1462
889.120667,1409
889.237305,1433
889.354065,1397
889.470703,1439
889.587463,1434
889.704163,1410
889.820862,1435
889.937561,1433
890.054199,1417
890.170837,1470
890.287598,1443
890.404236,1397
890.520874,1461
890.637634,1435
890.754211,1460
890.87085,1415
890.987549,1407
891.104187,1455
891.220886,1436
891.337463,1467
891.454102,1445
891.57074,1454
891.687378,1475
891.804077,1449
891.920654,1459
892.037231,1440
892.15387,1428
892.270447,1410
892.387085,1413
892.503723,1418
892.6203,1431
892.736877,1457
892.853516,1423
892.970032,1440
893.08667,1458
893.203186,1427
893.319763,1430
893.43634,1459
893.552917,1434
893.669556,1444
893.786011,1422
893.902588,1461
894.019165,1451
894.135681,1445
894.252197,1449
894.368835,1436
894.485291,1466
894.601868,1485
894.718384,1451
894.8349,1459
894.951355,1435
895.067932,1453
895.184448,1469
895.300964,1460
895.417419,1448
895.533936,1478
895.650452,1478
895.766907,1491
895.883423,1444
895.999878,1444
896.116333,1390
896.232849,1490
896.349304,1447
896.465759,1435
896.582214,1463
896.698669,1434
896.815125,1473
896.931641,1475
897.048035,1463
897.164551,1468
897.280884,1478
897.397339,1442
897.513794,1417
897.630249,1480
897.746582,1472
897.863098,1503
897.979431,1484
898.095886,1458
898.212341,1441
898.328674,1458
898.445129,1487
898.561462,1451
898.677795,1448
898.794312,1460
898.910645,1475
899.026978,1477
899.143433,1467
899.259766,1457
899.37616,1473
899.492493,1481
899.608765,1470
899.725159,1453
899.841553,1500
899.957947,1513
900.07428,1491
900.190552,1474
900.306946,1465
900.423157,1505
900.53949,1480
900.655884,1464
900.772156,1458
900.888489,1505
901.004822,1446
901.121033,1488
901.237366,1499
901.353699,1483
901.46991,1471
901.586304,1481
901.702515,1445
901.818787,1500
901.93512,1468
902.051331,1525
902.167603,1484
902.283875,1488
902.400085,1508
902.516418,1450
902.632629,1468
902.74884,1481
902.865112,1473
902.981384,1548
903.097595,1508
903.213867,1470
903.330017,1488
903.446289,1550
903.5625,1506
903.67865,1491
903.794922,1506
903.911072,1512
904.027344,1474
904.143494,1504
904.259705,1506
904.375916,1464
904.492065,1516
904.608215,1495
904.724426,1528
904.840576,1500
904.956726,1467
905.072876,1479
905.189087,1493
905.305176,1458
905.421387,1512
905.537537,1500
905.653687,1483
905.769775,1509
905.885925,1520
906.002014,1469
906.118164,1478
906.234314,1517
906.350403,1498
906.466492,1504
906.582642,1499
906.69873,1493
906.814758,1487
906.930908,1520
907.046936,1516
907.163086,1501
907.279175,1526
907.395264,1485
907.511353,1482
907.62738,1508
907.743408,1483
907.859497,1560
907.975525,1505
908.091553,1508
908.207703,1489
908.32373,1505
908.439758,1472
908.555786,1530
908.671814,1504
908.787842,1500
908.90387,1502
909.019775,1519
909.135864,1543
909.251892,1496
909.367859,1519
909.483826,1515
909.599854,1488
909.715881,1450
909.831848,1500
909.947815,1511
910.063782,1520
910.179749,1488
910.295776,1470
910.411743,1501
910.527649,1523
910.643616,1477
910.759583,1543
910.875488,1522
910.991455,1513
911.107361,1509
911.223267,1562
911.339294,1501
911.4552,1469
911.571106,1534
911.687073,1513
911.802979,1528
911.918823,1518
912.034729,1458
912.150635,1488
912.266602,1449
912.382446,1530
912.498352,1480
912.614197,1506
912.730103,1496
912.846008,1525
792.44574,2183
792.56488,2142
792.68396,2218
792.80304,2185
792.92218,2130
793.041199,2079
793.160339,2037
793.279419,2093
793.398499,2093
793.517578,2059
793.636658,2074
793.755737,2095
793.874817,2051
793.993896,2029
794.112976,2065
794.232056,1987
794.351074,2018
794.470215,2038
794.589233,2006
794.708313,1967
794.827393,1994
794.946411,1989
795.065552,1982
795.18457,1926
795.303589,1975
795.422668,2014
795.541687,1996
795.660767,1958
795.779846,1899
795.898865,1926
796.017883,1941
796.136963,1907
796.255981,1953
796.375061,1984
796.49408,1927
796.613037,1952
796.732117,1921
796.851135,1943
796.970154,1919
797.089233,1877
797.208191,1904
797.327271,1869
797.446228,1879
797.565186,1875
797.684265,1888
797.803223,1865
797.922241,1881
798.04126,1883
798.160278,1899
798.279297,1882
798.398315,1905
798.517273,1896
798.636292,1837
798.75531,1874
798.874268,1916
798.993286,1892
799.112244,1858
799.231323,1909
799.350281,1926
799.469238,1933
799.588257,1870
799.707153,1916
799.826111,1908
799.945129,1905
800.064087,1902
800.183044,1839
800.302063,1917
800.421021,1923
800.539978,1874
800.658936,1902
800.777893,1877
800.896912,1939
801.015747,1903
801.134705,1905
801.253723,1914
801.37262,1926
801.491638,1937
801.610535,1920
801.729492,1926
801.84845,1922
801.967407,1928
802.086243,1891
802.205261,1932
802.324158,1937
802.443115,1898
802.562073,1961
802.680969,1950
802.799927,1933
802.918762,1929
803.037659,1965
803.156677,1941
803.275574,1969
803.39447,1955
803.513428,1946
803.632263,1970
803.751221,1968
803.870117,1968
803.989014,1968
804.107971,1937
804.226746,1946
804.345642,1963
804.4646,1992
804.583496,2018
804.702393,2018
804.821228,1992
804.940125,2003
805.059021,1954
805.177917,1992
805.296814,1997
805.415649,2022
805.534546,2044
805.653442,2026
805.772278,2008
805.891113,2001
806.01001,2038
806.128906,2010
806.247742,2010
806.366577,2023
806.485413,2043
806.604309,2036
806.723145,2045
806.84198,2050
806.960876,2005
807.079712,1997
807.198486,2031
807.317383,2087
807.436218,2038
807.554993,2027
807.673889,2054
807.792725,2017
807.91156,2031
808.030396,2058
808.14917,2074
808.268005,2047
808.386841,2043
808.505676,2043
808.624451,2078
808.743286,2060
808.862122,2040
808.980896,2070
809.099731,2086
809.218506,2029
809.337341,2121
809.456116,2146
809.57489,2118
809.693726,2151
809.8125,2138
809.931274,2158
810.050049,2099
810.168884,2108
810.287659,2101
810.406372,2104
810.525269,2134
810.643982,2160
810.762756,2143
810.881531,2141
811.000305,2145
811.11908,2070
811.237854,2149
811.356567,2078
811.475403,2070
811.594116,2096
811.71283,2116
811.831604,2111
811.950378,2101
812.069153,2165
812.187927,2099
812.30658,2065
812.425415,2114
812.544128,2172
812.662781,2118
812.781616,2150
812.900269,2122
813.019043,2157
813.137756,2116
813.256531,2167
813.375244,2107
813.493896,2105
813.612671,2106
813.731384,2179
813.850037,2103
813.96875,2132
814.087524,2104
814.206238,2172
814.324951,2039
814.443604,2107
814.562256,2115
814.68103,2070
814.799683,2069
814.918335,2127
815.037109,2034
815.155762,9449
815.274475,1942
815.393188,2041
815.511841,2052
815.630554,2055
815.749146,1987
815.867859,1997
815.986572,2026
816.105164,1958
816.223877,2026
816.342529,1991
816.461182,2019
816.579895,2057
816.698486,1994
816.817139,2036
816.935791,2059
817.054504,2029
817.173096,2056
817.291748,2024
817.4104,2003
817.529053,1950
817.647644,2002
817.766235,1941
817.884949,1865
818.00354,1883
818.122192,1821
818.240845,1778
818.359436,1762
818.478088,1794
818.59668,1695
818.715271,1684
818.833923,1692
818.952515,1676
819.071106,1646
819.189758,1652
819.30835,1583
819.426941,1617
819.545532,1589
819.664124,1581
819.782715,1581
819.901306,1535
820.019897,1538
820.138489,1519
820.25708,1539
820.375671,1585
820.494202,1497
820.612732,1550
820.731384,1559
820.849915,1513
820.968506,1523
821.087097,1516
821.205627,1496
821.324158,1511
821.442749,1475
821.561279,1511
821.679871,1497
821.798401,1480
821.916931,1499
822.035461,1478
822.154053,1432
822.272583,1444
822.391174,1507
822.509583,1427
822.628174,1436
822.746704,1463
822.865234,1437
822.983765,1425
823.102295,1462
823.220825,1428
823.339294,1475
823.457825,1467
823.576355,1455
823.694824,1490
823.813354,1435
823.931885,1505
824.050354,1533
824.168884,1504
824.287354,1458
824.405823,1499
824.524353,1449
824.642822,1473
824.761353,1505
824.879822,1491
824.998291,1502
825.116699,1477
825.235291,1481
825.353699,1452
825.472168,1428
825.590637,1467
825.709106,1454
825.827576,1430
825.946045,1446
826.064453,1439
826.182983,1414
826.301392,1399
826.4198,1372
826.53833,1412
826.656738,1384
826.775208,1437
826.893677,1423
827.012024,1397
827.130493,1416
827.248962,1362
827.36731,1396
827.485779,1378
827.604248,1369
827.722595,1393
827.841064,1362
827.959412,1345
828.077942,1350
828.196289,1371
828.314636,1373
828.433105,1382
828.551514,1342
828.669861,1377
828.78833,1359
828.906677,1343
829.025085,1343
829.143433,1391
829.261841,1327
829.38031,1374
829.498657,1395
829.617004,1385
829.735413,1409
829.85376,1364
829.972107,1369
830.090515,1386
830.208862,1341
830.327209,1325
830.445557,1347
830.563904,1406
830.682312,1356
830.800659,1346
830.919006,1344
831.037354,1346
831.155701,1386
831.274048,1332
831.392395,1346
831.51062,1335
831.629028,1352
831.747314,1321
831.865662,1369
831.984009,1356
832.102356,1331
832.220642,1351
832.338928,1383
832.457275,1352
832.575623,1353
832.693909,1332
832.812134,1352
832.930481,1354
833.048828,1390
833.167114,1362
833.2854,1348
833.403687,1337
833.521973,1382
833.640259,1344
833.758545,1346
833.876831,1353
833.995056,1353
834.113281,1392
834.231628,1383
834.349915,1385
834.468201,1366
834.586426,1372
834.704651,1357
834.822998,1399
834.941162,1371
835.059448,1350
835.177673,1385
835.295959,1356
835.414246,1403
835.53241,1350
835.650635,1375
835.768921,1363
835.887146,1378
836.005371,1353
836.123596,1420
836.241821,1386
836.360046,1398
836.478271,1378
836.596497,1464
836.714722,1406
836.832886,1442
836.95105,1403
837.069336,1404
837.1875,1448
837.305725,1382
837.423889,1450
837.542053,1447
837.660339,1411
837.778503,1392
837.896667,1438
838.014832,1426
838.132996,1442
838.25116,1392
838.369385,1429
838.487488,1451
838.605713,1425
838.723877,1427
838.84198,1461
838.960205,1411
839.078308,1416
839.196472,1431
839.314636,1426
839.4328,1408
839.550964,1437
839.669067,1401
839.787231,1409
839.905396,1421
840.023499,1427
840.141602,1426
840.259766,1381
840.377869,1408
840.495972,1394
840.614136,1435
840.732239,1374
840.850342,1383
840.968445,1406
841.086548,1373
841.204651,1375
841.322754,1368
841.440918,1400
841.55896,1371
841.677002,1378
841.795166,1344
841.913208,1359
842.031311,1387
842.149353,1381
842.267456,1345
842.385498,1342
842.503601,1392
842.621643,1355
842.739746,1345
842.857788,1347
842.97583,1296
843.093933,1378
843.211975,1333
843.330017,1341
843.44812,1330
843.566101,1347
843.684204,1367
843.802246,1334
843.920227,1338
844.038269,1375
844.156311,1341
844.274292,1363
844.392395,1343
844.510376,1335
844.628357,1349
844.74646,1376
844.864441,1320
844.982422,1322
845.100403,1363
845.218384,1361
845.336426,1325
845.454468,1329
845.572449,1316
845.69043,1341
845.808411,1348
845.926453,1355
846.044373,1310
846.162354,1335
846.280396,1372
846.398315,1343
846.516296,1340
846.634216,1331
846.752197,1314
846.870178,1358
846.988098,1357
847.106079,1340
847.22406,1393
847.34198,1331
847.4599,1325
847.577881,1328
847.695801,1340
847.813782,1342
847.931641,1322
848.049561,1388
848.167603,1306
848.285461,1321
848.403381,1349
848.521362,1322
848.639221,1345
848.75708,1339
848.875,1317
848.99292,1314
849.110901,1354
849.22876,1367
849.34668,1365
849.464539,1378
849.582458,1320
849.700317,1310
849.818176,1317
849.936096,1362
850.053955,1340
850.171875,1342
850.289673,1385
850.407593,1353
850.525452,1334
850.643311,1352
850.761169,1350
850.878967,1343
850.996887,1318
851.114746,1361
851.232544,1375
851.350403,1363
851.468262,1303
851.58606,1354
851.703979,1304
851.821777,1346
851.939636,1329
852.057434,1350
852.175232,1315
852.293091,1368
852.410889,1351
852.528687,1326
852.646545,1374
852.764343,1352
852.88208,1352
852.999939,1347
853.117676,1388
853.235535,1372
853.353271,1298
853.471069,1373
853.588928,1365
853.706604,1354
853.824402,1297
853.9422,1381
854.059998,1381
854.177734,1372
854.295532,1372
854.413269,1401
854.531006,1323
854.648804,1382
854.766541,1351
854.884277,1419
855.002014,1345
855.119751,1332
855.237549,1358
855.355225,1372
855.473022,1362
855.590698,1376
855.708435,1383
855.826172,1385
855.943848,1401
856.061646,1350
856.179321,1370
856.296997,1340
856.414795,1368
856.53241,1386
856.650085,1380
856.767822,1369
856.885559,1390
857.003174,1359
857.120911,1399
857.238586,1362
857.356201,1367
857.473938,1407
857.591614,1378
857.709351,1425
857.826965,1347
857.944641,1376
858.062317,1334
858.179993,1345
858.297668,1412
858.415283,1353
858.532959,1395
858.650574,1310
858.768188,1362
858.885803,1373
859.003479,1396
859.121094,1342
859.23877,1355
859.356384,1351
859.473999,1429
859.591675,1324
859.709229,1372
859.826843,1377
859.944458,1350
860.062012,1359
860.179626,1392
860.297302,1366
860.414856,1355
860.532471,1360
860.650024,1336
860.767639,1412
860.885193,1372
861.002808,1343
861.120361,1402
861.237976,1351
861.35553,1372
861.473022,1368
861.590698,1369
861.708191,1360
861.825745,1372
861.943298,1358
862.060852,1362
862.178406,1362
862.295959,1369
862.413513,1333
862.531006,1327
862.64856,1349
862.766113,1343
862.883667,1358
863.00116,1355
863.118713,1360
863.236206,1380
863.353699,1365
863.471252,1372
863.588745,1327
863.706177,1386
863.82373,1365
863.941162,1334
864.058716,1401
864.176208,1379
864.29364,1369
864.411194,1379
864.528687,1361
864.646118,1372
864.763611,1379
864.881042,1411
864.998535,1417
865.116028,1381
865.233459,1380
865.350891,1342
865.468384,1416
865.585754,1391
865.703308,1369
865.820679,1369
865.938171,1391
866.055542,1402
866.173035,1396
866.290466,1396
866.407837,1409
866.52533,1400
866.6427,1407
866.760071,1360
866.877563,1378
866.994934,1367
867.112305,1437
867.229736,1387
867.347107,1383
867.464539,1367
867.58197,1400
867.699341,1376
867.81665,1420
867.934082,1394
868.051453,1407
868.168823,1376
868.286194,1391
868.403564,1393
868.520935,1390
868.638306,1370
868.755676,1408
868.872986,1388
868.990295,1426
869.107727,1426
869.225037,1377
869.342346,1418
869.459717,1380
869.577026,1358
869.694336,1394
869.811707,1392
869.929016,1400
870.046326,1412
870.163635,1431
870.280945,1414
870.398254,1425
870.515564,1367
870.632812,1400
870.750183,1407
870.867432,1398
870.984741,1378
871.102051,1391
871.219299,1388
871.336609,1365
871.453918,1436
871.571106,1388
871.688416,1403
871.805664,1397
871.922852,1390
872.040222,1380
872.157471,1356
872.274719,1370
872.391968,1375
872.509155,1413
872.626465,1395
872.743652,1372
872.860962,1389
872.978149,1385
873.095337,1397
873.212646,1340
873.329834,1391
873.44696,1414
873.564209,1364
873.681396,1383
873.798645,1423
873.915894,1431
874.03302,1427
874.150208,1362
874.267456,1388
874.384583,1390
874.501831,1379
874.618958,1382
874.736145,1403
874.853333,1401
874.970459,1389
875.087646,1409
875.204834,1396
875.32196,1384
875.439148,1401
875.556274,1382
875.673401,1441
875.790527,1422
875.907715,1431
876.024841,1440
876.141968,1403
876.259094,1407
876.376282,1429
876.493347,1375
876.610474,1360
876.7276,1404
876.844727,1425
876.961853,1386
877.078918,1433
877.195984,1420
877.313171,1402
877.430237,1404
877.547302,1404
877.664368,1424
877.781433,1404
877.898499,1409
878.015625,1390
878.13269,1371
878.249695,1419
878.366821,1417
878.483887,1438
878.600952,1379
878.717957,1371
878.834961,1416
878.952087,1419
879.069092,1398
879.186157,1421
879.303162,1408
879.420227,1367
879.537231,1434
879.654236,1381
879.77124,1397
879.888306,1426
880.005249,1396
880.122314,1383
880.239319,1445
880.356323,1419
880.473328,1417
880.590271,1414
880.707275,1380
880.824341,1414
880.941284,1423
881.058228,1410
881.175232,1404
881.292236,1420
881.40918,1403
881.526123,1396
881.643066,1428
881.760071,1388
881.877014,1412
881.993958,1453
882.11084,1375
882.227783,1383
882.344727,1458
882.46167,1405
882.578613,1407
882.695618,1452
882.812439,1411
882.929382,1444
883.046326,1413
883.163208,1423
883.280151,1437
883.397034,1410
883.513916,1419
883.630798,1431
883.747742,1422
883.864563,1424
883.981506,1431
884.098389,1429
884.21521,1408
884.332153,1447
884.448975,1393
884.565796,1456
884.682678,1392
884.7995,1440
884.916443,1464
885.033264,1446
885.150085,1420
885.266968,1426
885.383789,1498
885.500671,1452
885.617493,1469
885.734314,1442
885.851196,1446
885.967896,1421
886.084717,1422
886.201599,1450
886.318359,1453
886.435181,1438
886.552002,1424
886.668762,1437
886.785645,1436
886.902344,1509
887.019165,1439
887.135925,1428
887.252747,1413
887.369446,1461
887.486267,1444
887.603027,1452
887.719788,1420
887.836548,1442
887.953247,1441
888.070068,1450
888.186829,1467
888.303528,1449
888.420288,1469
888.536987,1465
888.653687,1435
888.770447,1492
888.887146,1417
889.003967,1478
889.120667,1426
889.237305,1466
889.354065,1422
889.470703,1462
889.587463,1448
889.704163,1473
889.820862,1453
889.937561,1479
890.054199,1435
890.170837,1482
890.287598,1451
890.404236,1437
890.520874,1479
890.637634,1436
890.754211,1452
890.87085,1436
890.987549,1486
891.104187,1445
891.220886,1487
891.337463,1472
891.454102,1472
891.57074,1453
891.687378,1468
891.804077,1487
891.920654,1474
892.037231,1444
892.15387,1457
892.270447,1480
892.387085,1443
892.503723,1463
892.6203,1462
892.736877,1484
892.853516,1465
892.970032,1483
893.08667,1503
893.203186,1488
893.319763,1495
893.43634,1466
893.552917,1529
893.669556,1487
893.786011,1446
893.902588,1473
894.019165,1470
894.135681,1486
894.252197,1478
894.368835,1483
894.485291,1485
894.601868,1555
894.718384,1490
894.8349,1522
894.951355,1451
895.067932,1455
895.184448,1489
895.300964,1532
895.417419,1509
895.533936,1507
895.650452,1506
895.766907,1487
895.883423,1479
895.999878,1469
896.116333,1499
896.232849,1470
896.349304,1487
896.465759,1471
896.582214,1489
896.698669,1473
896.815125,1473
896.931641,1495
897.048035,1536
897.164551,1519
897.280884,1484
897.397339,1485
897.513794,1478
897.630249,1541
897.746582,1507
897.863098,1485
897.979431,1441
898.095886,1510
898.212341,1492
898.328674,1503
898.445129,1514
898.561462,1476
898.677795,1483
898.794312,1510
898.910645,1498
899.026978,1466
899.143433,1493
899.259766,1479
899.37616,1466
899.492493,1503
899.608765,1442
899.725159,1434
899.841553,1524
899.957947,1512
900.07428,1509
900.190552,1466
900.306946,1536
900.423157,1504
900.53949,1516
900.655884,1467
900.772156,1500
900.888489,1537
901.004822,1480
901.121033,1480
901.237366,1548
901.353699,1518
901.46991,1512
901.586304,1495
901.702515,1492
901.818787,1505
901.93512,1562
902.051331,1505
902.167603,1558
902.283875,1514
902.400085,1539
902.516418,1503
902.632629,1531
902.74884,1527
902.865112,1499
902.981384,1512
903.097595,1539
903.213867,1537
903.330017,1502
903.446289,1552
903.5625,1529
903.67865,1538
903.794922,1561
903.911072,1549
904.027344,1523
904.143494,1537
904.259705,1510
904.375916,1534
904.492065,1541
904.608215,1504
904.724426,1529
904.840576,1522
904.956726,1520
905.072876,1517
905.189087,1507
905.305176,1525
905.421387,1537
905.537537,1509
905.653687,1521
905.769775,1511
905.885925,1571
906.002014,1542
906.118164,1504
906.234314,1515
906.350403,1561
906.466492,1545
906.582642,1546
906.69873,1490
906.814758,1545
906.930908,1508
907.046936,1518
907.163086,1510
907.279175,1548
907.395264,1532
907.511353,1535
907.62738,1574
907.743408,1513
907.859497,1552
907.975525,1555
908.091553,1562
908.207703,1548
908.32373,1572
908.439758,1552
908.555786,1522
908.671814,1565
908.787842,1545
908.90387,1503
909.019775,1539
909.135864,1540
909.251892,1537
909.367859,1588
909.483826,1535
909.599854,1541
909.715881,1559
909.831848,1544
909.947815,1586
910.063782,1578
910.179749,1510
910.295776,1511
910.411743,1515
910.527649,1526
910.643616,1548
910.759583,1534
910.875488,1542
910.991455,1520
911.107361,1576
911.223267,1584
911.339294,1539
911.4552,1558
911.571106,1520
911.687073,1511
911.802979,1555
911.918823,1540
912.034729,1561
912.150635,1533
912.266602,1540
912.382446,1530
912.498352,1534
912.614197,1531
912.730103,1557
912.846008,1505
792.44574,2229
792.56488,2223
792.68396,2214
792.80304,2162
792.92218,2101
793.041199,2083
793.160339,2088
793.279419,2091
793.398499,2119
793.517578,2105
793.636658,2062
793.755737,2056
793.874817,2057
793.993896,2018
794.112976,2064
794.232056,2026
794.351074,2020
794.470215,2056
794.589233,2019
794.708313,1999
794.827393,2023
794.946411,1992
795.065552,2049
795.18457,1999
795.303589,2017
795.422668,1975
795.541687,1961
795.660767,1972
795.779846,1969
795.898865,1904
796.017883,1904
796.136963,1959
796.255981,1929
796.375061,1947
796.49408,1960
796.613037,1998
796.732117,1934
796.851135,1912
796.970154,1944
797.089233,1919
797.208191,1922
797.327271,1886
797.446228,1953
797.565186,1957
797.684265,1929
797.803223,1961
797.922241,1922
798.04126,1957
798.160278,1951
798.279297,1918
798.398315,1879
798.517273,1872
798.636292,1931
798.75531,1884
798.874268,1880
798.993286,1926
799.112244,1916
799.231323,1895
799.350281,1895
799.469238,1873
799.588257,1912
799.707153,1932
799.826111,1911
799.945129,1904
800.064087,1943
800.183044,1933
800.302063,1876
800.421021,1925
800.539978,1900
800.658936,1913
800.777893,1911
800.896912,1900
801.015747,1929
801.134705,1881
801.253723,1909
801.37262,1929
801.491638,1900
801.610535,1995
801.729492,1941
801.84845,1973
801.967407,1966
802.086243,1976
802.205261,1917
802.324158,1961
802.443115,1995
802.562073,1947
802.680969,1950
802.799927,1936
802.918762,1966
803.037659,1952
803.156677,1975
803.275574,1937
803.39447,1947
803.513428,1950
803.632263,2013
803.751221,1950
803.870117,2005
803.989014,1955
804.107971,2023
804.226746,1963
804.345642,1987
804.4646,1991
804.583496,1974
804.702393,2007
804.821228,1991
804.940125,2057
805.059021,2034
805.177917,2028
805.296814,2051
805.415649,2012
805.534546,2030
805.653442,2035
805.772278,2049
805.891113,2076
806.01001,2039
806.128906,2048
806.247742,2006
806.366577,2028
806.485413,2107
806.604309,2048
806.723145,2071
806.84198,2082
806.960876,2006
807.079712,2068
807.198486,2010
807.317383,2040
807.436218,2033
807.554993,2082
807.673889,2014
807.792725,2086
807.91156,2061
808.030396,2081
808.14917,2065
808.268005,2073
808.386841,2005
808.505676,2060
808.624451,2072
808.743286,2075
808.862122,2064
808.980896,2071
809.099731,2109
809.218506,2100
809.337341,2070
809.456116,2085
809.57489,2103
809.693726,2110
809.8125,2147
809.931274,2118
810.050049,2151
810.168884,2097
810.287659,2130
810.406372,2098
810.525269,2137
810.643982,2108
810.762756,2115
810.881531,2047
811.000305,2133
811.11908,2156
811.237854,2144
811.356567,2093
811.475403,2157
811.594116,2154
811.71283,2132
811.831604,2094
811.950378,2165
812.069153,2127
812.187927,2109
812.30658,2112
812.425415,2153
812.544128,2132
812.662781,2190
812.781616,2111
812.900269,2153
813.019043,2124
813.137756,2133
813.256531,2155
813.375244,2150
813.493896,2126
813.612671,2162
813.731384,2142
813.850037,2135
813.96875,2106
814.087524,2143
814.206238,2117
814.324951,2149
814.443604,2115
814.562256,2065
814.68103,2037
814.799683,2118
814.918335,2065
815.037109,2099
815.155762,2104
815.274475,2057
815.393188,2044
815.511841,2063
815.630554,2050
815.749146,2063
815.867859,2059
815.986572,2020
816.105164,2010
816.223877,2000
816.342529,2024
816.461182,2034
816.579895,2030
816.698486,2060
816.817139,2039
816.935791,2083
817.054504,2043
817.173096,2115
817.291748,1981
817.4104,1999
817.529053,1990
817.647644,1960
817.766235,1926
817.884949,1912
818.00354,1841
818.122192,1849
818.240845,1766
818.359436,1789
818.478088,1726
818.59668,1744
818.715271,1679
818.833923,1675
818.952515,1654
819.071106,1583
819.189758,1646
819.30835,1611
819.426941,1610
819.545532,1596
819.664124,1604
819.782715,1571
819.901306,1564
820.019897,1575
820.138489,1556
820.25708,1523
820.375671,1550
820.494202,1538
820.612732,1497
820.731384,1513
820.849915,1532
820.968506,1518
821.087097,1511
821.205627,1559
821.324158,1526
821.442749,1505
821.561279,1494
821.679871,1492
821.798401,1541
821.916931,1488
822.035461,1496
822.154053,1479
822.272583,1445
822.391174,1460
822.509583,1465
822.628174,1521
822.746704,1439
822.865234,1486
822.983765,1463
823.102295,1483
823.220825,1479
823.339294,1474
823.457825,1512
823.576355,1518
823.694824,1480
823.813354,1474
823.931885,1516
824.050354,1512
824.168884,1479
824.287354,1554
824.405823,1486
824.524353,1529
824.642822,1503
824.761353,1523
824.879822,1516
824.998291,1515
825.116699,1458
825.235291,1497
825.353699,1481
825.472168,1466
825.590637,1453
825.709106,1471
825.827576,1461
825.946045,1395
826.064453,1404
826.182983,1451
826.301392,1421
826.4198,1413
826.53833,1459
826.656738,1458
826.775208,1410
826.893677,1461
827.012024,1404
827.130493,1424
827.248962,1389
827.36731,1405
827.485779,1415
827.604248,1389
827.722595,1413
827.841064,1368
827.959412,1393
828.077942,1372
828.196289,1354
828.314636,1380
828.433105,1381
828.551514,1387
828.669861,1381
828.78833,1324
828.906677,1386
829.025085,1364
829.143433,1340
829.261841,1387
829.38031,1365
829.498657,1370
829.617004,1379
829.735413,1354
829.85376,1377
829.972107,1382
830.090515,1364
830.208862,1340
830.327209,1330
830.445557,1367
830.563904,1374
830.682312,1388
830.800659,1381
830.919006,1377
831.037354,1393
831.155701,1355
831.274048,1373
831.392395,1353
831.51062,1357
831.629028,1353
831.747314,1380
831.865662,1371
831.984009,1341
832.102356,1358
832.220642,1375
832.338928,1396
832.457275,1320
832.575623,1344
832.693909,1330
832.812134,1393
832.930481,1371
833.048828,1360
833.167114,1359
833.2854,1367
833.403687,1362
833.521973,1394
833.640259,1375
833.758545,1352
833.876831,1342
833.995056,1352
834.113281,1341
834.231628,1407
834.349915,1353
834.468201,1371
834.586426,1341
834.704651,1358
834.822998,1349
834.941162,1383
835.059448,1357
835.177673,1402
835.295959,1375
835.414246,1385
835.53241,1417
835.650635,1392
835.768921,1365
835.887146,1399
836.005371,1391
836.123596,1387
836.241821,1427
836.360046,1377
836.478271,1435
836.596497,1441
836.714722,1445
836.832886,1432
836.95105,1438
837.069336,1444
837.1875,1440
837.305725,1496
837.423889,1430
837.542053,1465
837.660339,1438
837.778503,1405
837.896667,1430
838.014832,1472
838.132996,1452
838.25116,1451
838.369385,1444
838.487488,1449
838.605713,1453
838.723877,1405
838.84198,1447
838.960205,1452
839.078308,1423
839.196472,1470
839.314636,1390
839.4328,1418
839.550964,1451
839.669067,1425
839.787231,1402
839.905396,1409
840.023499,1397
840.141602,1454
840.259766,1387
840.377869,1442
840.495972,1418
840.614136,1431
840.732239,1412
840.850342,1395
840.968445,1414
841.086548,1383
841.204651,1427
841.322754,1384
841.440918,1434
841.55896,1370
841.677002,1425
841.795166,1372
841.913208,1378
842.031311,1372
842.149353,1359
842.267456,1332
842.385498,1401
842.503601,1352
842.621643,1352
842.739746,1360
842.857788,1362
842.97583,1374
843.093933,1347
843.211975,1343
843.330017,1378
843.44812,1364
843.566101,1340
843.684204,1355
843.802246,1360
843.920227,1372
844.038269,1358
844.156311,1363
844.274292,1326
844.392395,1369
844.510376,1324
844.628357,1337
844.74646,1350
844.864441,1378
844.982422,1372
845.100403,1356
845.218384,1360
845.336426,1368
845.454468,1355
845.572449,1336
845.69043,1321
845.808411,1301
845.926453,1356
846.044373,1338
846.162354,1327
846.280396,1378
846.398315,1333
846.516296,1351
846.634216,1358
846.752197,1304
846.870178,1336
846.988098,1313
847.106079,1364
847.22406,1343
847.34198,1342
847.4599,1372
847.577881,1351
847.695801,1342
847.813782,1336
847.931641,1364
848.049561,1390
848.167603,1291
848.285461,1297
848.403381,1315
848.521362,1371
848.639221,1329
848.75708,1362
848.875,1368
848.99292,1326
849.110901,1404
849.22876,1347
849.34668,1363
849.464539,1335
849.582458,1350
849.700317,1342
849.818176,1356
849.936096,1376
850.053955,1394
850.171875,1347
850.289673,1341
850.407593,1365
850.525452,1359
850.643311,1340
850.761169,1367
850.878967,1334
850.996887,1352
851.114746,1352
851.232544,1393
851.350403,1323
851.468262,1376
851.58606,1398
851.703979,1406
851.821777,1355
851.939636,1311
852.057434,1349
852.175232,1319
852.293091,1386
852.410889,1362
852.528687,1348
852.646545,1323
852.764343,1359
852.88208,1411
852.999939,1375
853.117676,1358
853.235535,1395
853.353271,1366
853.471069,1379
853.588928,1372
853.706604,1375
853.824402,1381
853.9422,1356
854.059998,1374
854.177734,1409
854.295532,1346
854.413269,1377
854.531006,1397
854.648804,1425
854.766541,1404
854.884277,1375
855.002014,1409
855.119751,1371
855.237549,1404
855.355225,1388
855.473022,1397
855.590698,1428
855.708435,1347
855.826172,1397
855.943848,1390
856.061646,1401
856.179321,1370
856.296997,1386
856.414795,1389
856.53241,1415
856.650085,1424
856.767822,1363
856.885559,1386
857.003174,1375
857.120911,1397
857.238586,1410
857.356201,1388
857.473938,1409
857.591614,1349
857.709351,1363
857.826965,1376
857.944641,1384
858.062317,1393
858.179993,1376
858.297668,1403
858.415283,1409
858.532959,1397
858.650574,1411
858.768188,1371
858.885803,1408
859.003479,1357
859.121094,1390
859.23877,1413
859.356384,1389
859.473999,1386
859.591675,1399
859.709229,1376
859.826843,1376
859.944458,1383
860.062012,1397
860.179626,1380
860.297302,1395
860.414856,1375
860.532471,1398
860.650024,1403
860.767639,1376
860.885193,1408
861.002808,1369
861.120361,1356
861.237976,1371
861.35553,1394
861.473022,1420
861.590698,1382
861.708191,1357
861.825745,1402
861.943298,1352
862.060852,1379
862.178406,1349
862.295959,1385
862.413513,1381
862.531006,1371
862.64856,1398
862.766113,1397
862.883667,1359
863.00116,1364
863.118713,1353
863.236206,1416
863.353699,1357
863.471252,1362
863.588745,1386
863.706177,1381
863.82373,1369
863.941162,1398
864.058716,1374
864.176208,1383
864.29364,1382
864.411194,1371
864.528687,1384
864.646118,1389
864.763611,1328
864.881042,1347
864.998535,1452
865.116028,1392
865.233459,1394
865.350891,1370
865.468384,1395
865.585754,1397
865.703308,1396
865.820679,1380
865.938171,1395
866.055542,1388
866.173035,1419
866.290466,1384
866.407837,1411
866.52533,1441
866.6427,1379
866.760071,1349
866.877563,1386
866.994934,1438
867.112305,1399
867.229736,1386
867.347107,1397
867.464539,1361
867.58197,1438
867.699341,1409
867.81665,1398
867.934082,1386
868.051453,1409
868.168823,1389
868.286194,1406
868.403564,1379
868.520935,1436
868.638306,1417
868.755676,1397
868.872986,1455
868.990295,1411
869.107727,1422
869.225037,1393
869.342346,1401
869.459717,1413
869.577026,1376
869.694336,1378
869.811707,1377
869.929016,1418
870.046326,1408
870.163635,1381
870.280945,1398
870.398254,1425
870.515564,1386
870.632812,1414
870.750183,1464
870.867432,1388
870.984741,1436
871.102051,1417
871.219299,1374
871.336609,1406
871.453918,1408
871.571106,1410
871.688416,1416
871.805664,1390
871.922852,1366
872.040222,1407
872.157471,1435
872.274719,1421
872.391968,1388
872.509155,1410
872.626465,1404
872.743652,1367
872.860962,1443
872.978149,1366
873.095337,1395
873.212646,1384
873.329834,1414
873.44696,1401
873.564209,1408
873.681396,1444
873.798645,1382
873.915894,1415
874.03302,1407
874.150208,1436
874.267456,1407
874.384583,1411
874.501831,1402
874.618958,1431
874.736145,1389
874.853333,1444
874.970459,1367
875.087646,1392
875.204834,1427
875.32196,1445
875.439148,1368
875.556274,1384
875.673401,1394
875.790527,1386
875.907715,1436
876.024841,1385
876.141968,1425
876.259094,1390
876.376282,1386
876.493347,1437
876.610474,1410
876.7276,1397
876.844727,1424
876.961853,1452
877.078918,1404
877.195984,1427
877.313171,1411
877.430237,1420
877.547302,1433
877.664368,1428
877.781433,1381
877.898499,1388
878.015625,1376
878.13269,1381
878.249695,1383
878.366821,1394
878.483887,1408
878.600952,1405
878.717957,1383
878.834961,1421
878.952087,1422
879.069092,1427
879.186157,1404
879.303162,1411
879.420227,1429
879.537231,1397
879.654236,1432
879.77124,1437
879.888306,1422
880.005249,1448
880.122314,1359
880.239319,1454
880.356323,1389
880.473328,1395
880.590271,1439
880.707275,1438
880.824341,1388
880.941284,1413
881.058228,1426
881.175232,1455
881.292236,1431
881.40918,1416
881.526123,1410
881.643066,1414
881.760071,1483
881.877014,1432
881.993958,1441
882.11084,1447
882.227783,1429
882.344727,1418
882.46167,1447
882.578613,1409
882.695618,1453
882.812439,1429
882.929382,1426
883.046326,1448
883.163208,1464
883.280151,1444
883.397034,1373
883.513916,1451
883.630798,1421
883.747742,1447
883.864563,1448
883.981506,1447
884.098389,1445
884.21521,1442
884.332153,1469
884.448975,1440
884.565796,1444
884.682678,1420
884.7995,1512
884.916443,1484
885.033264,1448
885.150085,1453
885.266968,1465
885.383789,1450
885.500671,1439
885.617493,1471
885.734314,1442
885.851196,1464
885.967896,1452
886.084717,1476
886.201599,1436
886.318359,1495
886.435181,1445
886.552002,1469
886.668762,1487
886.785645,1463
886.902344,1482
887.019165,1505
887.135925,1456
887.252747,1442
887.369446,1429
887.486267,1462
887.603027,1449
887.719788,1440
887.836548,1482
887.953247,1469
888.070068,1452
888.186829,1471
888.303528,1419
888.420288,1455
888.536987,1454
888.653687,1461
888.770447,1431
888.887146,1449
889.003967,1491
889.120667,1462
889.237305,1451
889.354065,1467
889.470703,1485
889.587463,1424
889.704163,1489
889.820862,1480
889.937561,1474
890.054199,1451
890.170837,1489
890.287598,1438
890.404236,1464
890.520874,1449
890.637634,1455
890.754211,1472
890.87085,1477
890.987549,1463
891.104187,1470
891.220886,1473
891.337463,1455
891.454102,1476
891.57074,1484
891.687378,1446
891.804077,1498
891.920654,1453
892.037231,1493
892.15387,1488
892.270447,1453
892.387085,1459
892.503723,1491
892.6203,1471
892.736877,1473
892.853516,1486
892.970032,1480
893.08667,1471
893.203186,1484
893.319763,1498
893.43634,1498
893.552917,1520
893.669556,1488
893.786011,1503
893.902588,1512
894.019165,1470
894.135681,1481
894.252197,1465
894.368835,1486
894.485291,1492
894.601868,1491
894.718384,1524
894.8349,1493
894.951355,1503
895.067932,1531
895.184448,1507
895.300964,1495
895.417419,1481
895.533936,1494
895.650452,1506
895.766907,1499
895.883423,1449
895.999878,1540
896.116333,1519
896.232849,1492
896.349304,1496
896.465759,1510
896.582214,1501
896.698669,1482
896.815125,1463
896.931641,1535
897.048035,1482
897.164551,1537
897.280884,1518
897.397339,1531
897.513794,1510
897.630249,1535
897.746582,1505
897.863098,1484
897.979431,1479
898.095886,1508
898.212341,1507
898.328674,1509
898.445129,1497
898.561462,1528
898.677795,1496
898.794312,1496
898.910645,1473
899.026978,1523
899.143433,1517
899.259766,1520
899.37616,1500
899.492493,1517
899.608765,1529
899.725159,1537
899.841553,1489
899.957947,1570
900.07428,1490
900.190552,1538
900.306946,1522
900.423157,1538
900.53949,1553
900.655884,1510
900.772156,1525
900.888489,1549
901.004822,1563
901.121033,1553
901.237366,1488
901.353699,1549
901.46991,1536
901.586304,1532
901.702515,1527
901.818787,1514
901.93512,1538
902.051331,1553
902.167603,1509
902.283875,1541
902.400085,1485
902.516418,1509
902.632629,1538
902.74884,1554
902.865112,1539
902.981384,1509
903.097595,1564
903.213867,1539
903.330017,1524
903.446289,1503
903.5625,1560
903.67865,1511
903.794922,1545
903.911072,1552
904.027344,1568
904.143494,1568
904.259705,1550
904.375916,1570
904.492065,1485
904.608215,1547
904.724426,1525
904.840576,1531
904.956726,1509
905.072876,1541
905.189087,1550
905.305176,1531
905.421387,1558
905.537537,1563
905.653687,1537
905.769775,1562
905.885925,1527
906.002014,1536
906.118164,1525
906.234314,1541
906.350403,1552
906.466492,1563
906.582642,1539
906.69873,1575
906.814758,1577
906.930908,1591
907.046936,1555
907.163086,1565
907.279175,1592
907.395264,1551
907.511353,1525
907.62738,1598
907.743408,1528
907.859497,1539
907.975525,1563
908.091553,1525
908.207703,1547
908.32373,1546
908.439758,1578
908.555786,1560
908.671814,1546
908.787842,1534
908.90387,1520
909.019775,1558
909.135864,1518
909.251892,1526
909.367859,1536
909.483826,1544
909.599854,1575
909.715881,1566
909.831848,1568
909.947815,1534
910.063782,1559
910.179749,1538
910.295776,1578
910.411743,1560
910.527649,1583
910.643616,1562
910.759583,1557
910.875488,1610
910.991455,1551
911.107361,1593
911.223267,1550
911.339294,1546
911.4552,1560
911.571106,1537
911.687073,1592
911.802979,1526
911.918823,1569
912.034729,1564
912.150635,1591
912.266602,1581
912.382446,1573
912.498352,1591
912.614197,1579
912.730103,1563
912.846008,1524
