792.44574,1830
792.56488,1813
792.68396,1817
792.80304,1772
792.92218,1744
793.041199,1725
793.160339,1725
793.279419,1733
793.398499,1689
793.517578,1664
793.636658,1636
793.755737,1705
793.874817,1639
793.993896,1638
794.112976,1661
794.232056,1654
794.351074,1644
794.470215,1672
794.589233,1668
794.708313,1585
794.827393,1628
794.946411,1596
795.065552,1589
795.18457,1632
795.303589,1592
795.422668,1602
795.541687,1604
795.660767,1619
795.779846,1550
795.898865,1562
796.017883,1556
796.136963,1562
796.255981,1555
796.375061,1613
796.49408,1547
796.613037,1585
796.732117,1523
796.851135,1560
796.970154,1528
797.089233,1544
797.208191,1536
797.327271,1510
797.446228,1541
797.565186,1529
797.684265,1560
797.803223,1488
797.922241,1554
798.04126,1510
798.160278,1529
798.279297,1489
798.398315,1482
798.517273,1511
798.636292,1543
798.75531,1528
798.874268,1519
798.993286,1552
799.112244,1494
799.231323,1511
799.350281,1507
799.469238,1513
799.588257,1544
799.707153,1523
799.826111,1546
799.945129,1505
800.064087,1503
800.183044,1493
800.302063,1479
800.421021,1519
800.539978,1501
800.658936,1498
800.777893,1501
800.896912,1488
801.015747,1477
801.134705,1487
801.253723,1519
801.37262,1440
801.491638,1543
801.610535,1495
801.729492,1488
801.84845,1475
801.967407,1497
802.086243,1520
802.205261,1520
802.324158,1479
802.443115,1476
802.562073,1472
802.680969,1488
802.799927,1467
802.918762,1477
803.037659,1462
803.156677,1535
803.275574,1475
803.39447,1495
803.513428,1467
803.632263,1470
803.751221,1469
803.870117,1490
803.989014,1478
804.107971,1481
804.226746,1480
804.345642,1504
804.4646,1476
804.583496,1490
804.702393,1484
804.821228,1472
804.940125,1484
805.059021,1458
805.177917,1522
805.296814,1532
805.415649,1450
805.534546,1499
805.653442,1470
805.772278,1525
805.891113,1506
806.01001,1490
806.128906,1499
806.247742,1499
806.366577,1478
806.485413,1522
806.604309,1471
806.723145,1486
806.84198,1493
806.960876,1482
807.079712,1484
807.198486,1491
807.317383,1471
807.436218,1485
807.554993,1464
807.673889,1529
807.792725,1514
807.91156,1481
808.030396,1489
808.14917,1451
808.268005,1444
808.386841,1508
808.505676,1529
808.624451,1477
808.743286,1472
808.862122,1498
808.980896,1462
809.099731,1488
809.218506,1422
809.337341,1536
809.456116,1472
809.57489,1481
809.693726,1478
809.8125,1496
809.931274,1463
810.050049,1499
810.168884,1480
810.287659,1476
810.406372,1479
810.525269,1455
810.643982,1495
810.762756,1502
810.881531,1448
811.000305,1486
811.11908,1452
811.237854,1501
811.356567,1445
811.475403,1512
811.594116,1454
811.71283,1464
811.831604,1520
811.950378,1440
812.069153,1503
812.187927,1529
812.30658,1435
812.425415,1500
812.544128,1476
812.662781,1436
812.781616,1446
812.900269,1470
813.019043,1444
813.137756,1493
813.256531,1458
813.375244,1496
813.493896,1502
813.612671,1505
813.731384,1474
813.850037,1479
813.96875,1420
814.087524,1444
814.206238,1417
814.324951,1465
814.443604,1414
814.562256,1473
814.68103,1432
814.799683,1447
814.918335,1456
815.037109,1479
815.155762,1467
815.274475,1465
815.393188,1421
815.511841,1473
815.630554,1413
815.749146,1420
815.867859,1435
815.986572,1438
816.105164,1437
816.223877,1475
816.342529,1463
816.461182,1427
816.579895,1429
816.698486,1436
816.817139,1418
816.935791,1407
817.054504,1449
817.173096,1398
817.291748,1419
817.4104,1436
817.529053,1410
817.647644,1430
817.766235,1404
817.884949,1452
818.00354,1410
818.122192,1381
818.240845,1374
818.359436,1395
818.478088,1415
818.59668,1327
818.715271,1392
818.833923,1403
818.952515,1367
819.071106,1346
819.189758,1366
819.30835,1363
819.426941,1391
819.545532,1334
819.664124,1378
819.782715,1358
819.901306,1360
820.019897,1319
820.138489,1367
820.25708,1348
820.375671,1336
820.494202,1356
820.612732,1279
820.731384,1338
820.849915,1362
820.968506,1352
821.087097,1322
821.205627,1349
821.324158,1300
821.442749,1332
821.561279,1368
821.679871,1327
821.798401,1316
821.916931,1334
822.035461,1356
822.154053,1331
822.272583,1344
822.391174,1347
822.509583,1311
822.628174,1332
822.746704,1321
822.865234,1329
822.983765,1315
823.102295,1346
823.220825,1326
823.339294,1307
823.457825,1342
823.576355,1340
823.694824,1366
823.813354,1316
823.931885,1354
824.050354,1345
824.168884,1308
824.287354,1328
824.405823,1322
824.524353,1326
824.642822,1337
824.761353,1327
824.879822,1308
824.998291,1321
825.116699,1346
825.235291,1286
825.353699,1357
825.472168,1332
825.590637,1348
825.709106,1348
825.827576,1318
825.946045,1303
826.064453,1353
826.182983,1284
826.301392,1287
826.4198,1282
826.53833,1289
826.656738,1307
826.775208,1306
826.893677,1344
827.012024,1293
827.130493,1330
827.248962,1285
827.36731,1293
827.485779,1318
827.604248,1313
827.722595,1287
827.841064,1252
827.959412,1315
828.077942,1279
828.196289,1282
828.314636,1264
828.433105,1299
828.551514,1288
828.669861,1300
828.78833,1258
828.906677,1245
829.025085,1281
829.143433,1314
829.261841,1296
829.38031,1260
829.498657,1300
829.617004,1333
829.735413,1260
829.85376,1281
829.972107,1286
830.090515,1274
830.208862,1294
830.327209,1277
830.445557,1282
830.563904,1284
830.682312,1288
830.800659,1297
830.919006,1273
831.037354,1267
831.155701,1318
831.274048,1301
831.392395,1278
831.51062,1305
831.629028,1256
831.747314,1310
831.865662,1265
831.984009,1256
832.102356,1293
832.220642,1296
832.338928,1282
832.457275,1270
832.575623,1274
832.693909,1309
832.812134,1272
832.930481,1269
833.048828,1254
833.167114,1300
833.2854,1300
833.403687,1299
833.521973,1288
833.640259,1266
833.758545,1287
833.876831,1313
833.995056,1274
834.113281,1277
834.231628,1330
834.349915,1273
834.468201,1290
834.586426,1277
834.704651,1307
834.822998,1270
834.941162,1295
835.059448,1328
835.177673,1293
835.295959,1287
835.414246,1302
835.53241,1274
835.650635,1270
835.768921,1301
835.887146,1268
836.005371,1288
836.123596,1282
836.241821,1261
836.360046,1329
836.478271,1265
836.596497,1300
836.714722,1308
836.832886,1294
836.95105,1312
837.069336,1295
837.1875,1309
837.305725,1290
837.423889,1278
837.542053,1276
837.660339,1281
837.778503,1296
837.896667,1287
838.014832,1279
838.132996,1262
838.25116,1300
838.369385,1300
838.487488,1301
838.605713,1272
838.723877,1282
838.84198,1306
838.960205,1303
839.078308,1299
839.196472,1269
839.314636,1287
839.4328,1270
839.550964,1270
839.669067,1247
839.787231,1292
839.905396,1311
840.023499,1291
840.141602,1273
840.259766,1303
840.377869,1280
840.495972,1300
840.614136,1279
840.732239,1284
840.850342,1266
840.968445,1264
841.086548,1302
841.204651,1283
841.322754,1290
841.440918,1306
841.55896,1263
841.677002,1267
841.795166,1263
841.913208,1300
842.031311,1284
842.149353,1284
842.267456,1277
842.385498,1254
842.503601,1275
842.621643,1284
842.739746,1249
842.857788,1271
842.97583,1273
843.093933,1298
843.211975,1262
843.330017,1335
843.44812,1243
843.566101,1283
843.684204,1267
843.802246,1266
843.920227,1271
844.038269,1285
844.156311,1259
844.274292,1255
844.392395,1297
844.510376,1284
844.628357,1271
844.74646,1260
844.864441,1267
844.982422,1298
845.100403,1282
845.218384,1274
845.336426,1243
845.454468,1273
845.572449,1264
845.69043,1275
845.808411,1283
845.926453,1239
846.044373,1250
846.162354,1282
846.280396,1273
846.398315,1238
846.516296,1288
846.634216,1217
846.752197,1236
846.870178,1298
846.988098,1270
847.106079,1261
847.22406,1310
847.34198,1264
847.4599,1246
847.577881,1238
847.695801,1303
847.813782,1256
847.931641,1281
848.049561,1255
848.167603,1230
848.285461,1306
848.403381,1249
848.521362,1301
848.639221,1263
848.75708,1277
848.875,1285
848.99292,1259
849.110901,1282
849.22876,1246
849.34668,1260
849.464539,1323
849.582458,1268
849.700317,1264
849.818176,1259
849.936096,1260
850.053955,1258
850.171875,1253
850.289673,1321
850.407593,1272
850.525452,1267
850.643311,1258
850.761169,1266
850.878967,1298
850.996887,1313
851.114746,1282
851.232544,1316
851.350403,1244
851.468262,1283
851.58606,1281
851.703979,1249
851.821777,1291
851.939636,1255
852.057434,1303
852.175232,1317
852.293091,1297
852.410889,1323
852.528687,1282
852.646545,1310
852.764343,1247
852.88208,1261
852.999939,1281
853.117676,1275
853.235535,1286
853.353271,1303
853.471069,1306
853.588928,1286
853.706604,1267
853.824402,1251
853.9422,1298
854.059998,1285
854.177734,1298
854.295532,1263
854.413269,1255
854.531006,1291
854.648804,1298
854.766541,1290
854.884277,1278
855.002014,1301
855.119751,1289
855.237549,1306
855.355225,1267
855.473022,1282
855.590698,1259
855.708435,1295
855.826172,1289
855.943848,1297
856.061646,1271
856.179321,1303
856.296997,1280
856.414795,1301
856.53241,1262
856.650085,1279
856.767822,1345
856.885559,1277
857.003174,1329
857.120911,1273
857.238586,1288
857.356201,1297
857.473938,1279
857.591614,1306
857.709351,1292
857.826965,1267
857.944641,1287
858.062317,1320
858.179993,1289
858.297668,1312
858.415283,1268
858.532959,1286
858.650574,1306
858.768188,1324
858.885803,1266
859.003479,1287
859.121094,1275
859.23877,1299
859.356384,1287
859.473999,1262
859.591675,1266
859.709229,1294
859.826843,1292
859.944458,1281
860.062012,1320
860.179626,1254
860.297302,1271
860.414856,1325
860.532471,1274
860.650024,1240
860.767639,1291
860.885193,1303
861.002808,1272
861.120361,1278
861.237976,1246
861.35553,1300
861.473022,1285
861.590698,1268
861.708191,1319
861.825745,1250
861.943298,1281
862.060852,1288
862.178406,1261
862.295959,1270
862.413513,1304
862.531006,1263
862.64856,1264
862.766113,1278
862.883667,1266
863.00116,1301
863.118713,1280
863.236206,1317
863.353699,1281
863.471252,1323
863.588745,1254
863.706177,1277
863.82373,1243
863.941162,1322
864.058716,1300
864.176208,1271
864.29364,1288
864.411194,1280
864.528687,1311
864.646118,1342
864.763611,1279
864.881042,1247
864.998535,1284
865.116028,1266
865.233459,1317
865.350891,1275
865.468384,1310
865.585754,1313
865.703308,1316
865.820679,1273
865.938171,1306
866.055542,1282
866.173035,1355
866.290466,1290
866.407837,1306
866.52533,1267
866.6427,1320
866.760071,1274
866.877563,1300
866.994934,1313
867.112305,1307
867.229736,1264
867.347107,1301
867.464539,1304
867.58197,1328
867.699341,1324
867.81665,1273
867.934082,1290
868.051453,1348
868.168823,1269
868.286194,1307
868.403564,1314
868.520935,1302
868.638306,1318
868.755676,1324
868.872986,1273
868.990295,1261
869.107727,1312
869.225037,1285
869.342346,1269
869.459717,1318
869.577026,1281
869.694336,1274
869.811707,1348
869.929016,1316
870.046326,1309
870.163635,1293
870.280945,1300
870.398254,1345
870.515564,1284
870.632812,1275
870.750183,1321
870.867432,1299
870.984741,1338
871.102051,1300
871.219299,1330
871.336609,1328
871.453918,1334
871.571106,1328
871.688416,1303
871.805664,1278
871.922852,1288
872.040222,1322
872.157471,1333
872.274719,1344
872.391968,1361
872.509155,1358
872.626465,1305
872.743652,1334
872.860962,1289
872.978149,1329
873.095337,1340
873.212646,1288
873.329834,1310
873.44696,1261
873.564209,1298
873.681396,1301
873.798645,1294
873.915894,1308
874.03302,1295
874.150208,1343
874.267456,1315
874.384583,1338
874.501831,1295
874.618958,1315
874.736145,1315
874.853333,1280
874.970459,1322
875.087646,1343
875.204834,1289
875.32196,1329
875.439148,1332
875.556274,1294
875.673401,1314
875.790527,1318
875.907715,1307
876.024841,1302
876.141968,1302
876.259094,1297
876.376282,1307
876.493347,1324
876.610474,1285
876.7276,1339
876.844727,1282
876.961853,1320
877.078918,1310
877.195984,1319
877.313171,1340
877.430237,1280
877.547302,1314
877.664368,1310
877.781433,1278
877.898499,1358
878.015625,1328
878.13269,1288
878.249695,1325
878.366821,1284
878.483887,1275
878.600952,1331
878.717957,1289
878.834961,1321
878.952087,1373
879.069092,1304
879.186157,1322
879.303162,1297
879.420227,1301
879.537231,1308
879.654236,1338
879.77124,1332
879.888306,1312
880.005249,1283
880.122314,1345
880.239319,1327
880.356323,1322
880.473328,1306
880.590271,1322
880.707275,1316
880.824341,1256
880.941284,1357
881.058228,1361
881.175232,1291
881.292236,1343
881.40918,1307
881.526123,1320
881.643066,1313
881.760071,1331
881.877014,1295
881.993958,1294
882.11084,1304
882.227783,1373
882.344727,1327
882.46167,1325
882.578613,1300
882.695618,1318
882.812439,1328
882.929382,1317
883.046326,1309
883.163208,1325
883.280151,1369
883.397034,1276
883.513916,1328
883.630798,1335
883.747742,1295
883.864563,1322
883.981506,1301
884.098389,1330
884.21521,1342
884.332153,1311
884.448975,1304
884.565796,1318
884.682678,1324
884.7995,1358
884.916443,1347
885.033264,1316
885.150085,1306
885.266968,1352
885.383789,1349
885.500671,1421
885.617493,1337
885.734314,1400
885.851196,1333
885.967896,1362
886.084717,1374
886.201599,1350
886.318359,1375
886.435181,1385
886.552002,1373
886.668762,1345
886.785645,1403
886.902344,1361
887.019165,1347
887.135925,1351
887.252747,1389
887.369446,1327
887.486267,1328
887.603027,1349
887.719788,1352
887.836548,1381
887.953247,1348
888.070068,1324
888.186829,1301
888.303528,1360
888.420288,1394
888.536987,1364
888.653687,1322
888.770447,1303
888.887146,1317
889.003967,1320
889.120667,1314
889.237305,1287
889.354065,1322
889.470703,1317
889.587463,1307
889.704163,1371
889.820862,1334
889.937561,1352
890.054199,1329
890.170837,1320
890.287598,1358
890.404236,1349
890.520874,1328
890.637634,1358
890.754211,1335
890.87085,1326
890.987549,1316
891.104187,1336
891.220886,1291
891.337463,1341
891.454102,1358
891.57074,1343
891.687378,1345
891.804077,1306
891.920654,1367
892.037231,1333
892.15387,1376
892.270447,1351
892.387085,1359
892.503723,1368
892.6203,1348
892.736877,1342
892.853516,1321
892.970032,1384
893.08667,1324
893.203186,1369
893.319763,1313
893.43634,1345
893.552917,1349
893.669556,1323
893.786011,1329
893.902588,1343
894.019165,1351
894.135681,1386
894.252197,1394
894.368835,1389
894.485291,1335
894.601868,1373
894.718384,1371
894.8349,1378
894.951355,1334
895.067932,1331
895.184448,1348
895.300964,1380
895.417419,1330
895.533936,1382
895.650452,1322
895.766907,1369
895.883423,1341
895.999878,1332
896.116333,1340
896.232849,1349
896.349304,1336
896.465759,1330
896.582214,1347
896.698669,1370
896.815125,1382
896.931641,1337
897.048035,1362
897.164551,1336
897.280884,1313
897.397339,1353
897.513794,1365
897.630249,1354
897.746582,1328
897.863098,1407
897.979431,1316
898.095886,1364
898.212341,1336
898.328674,1365
898.445129,1392
898.561462,1370
898.677795,1332
898.794312,1345
898.910645,1395
899.026978,1365
899.143433,1364
899.259766,1365
899.37616,1365
899.492493,1397
899.608765,1365
899.725159,1332
899.841553,1331
899.957947,1334
900.07428,1357
900.190552,1318
900.306946,1344
900.423157,1354
900.53949,1362
900.655884,1369
900.772156,1382
900.888489,1367
901.004822,1397
901.121033,1362
901.237366,1406
901.353699,1353
901.46991,1359
901.586304,1372
901.702515,1394
901.818787,1362
901.93512,1382
902.051331,1381
902.167603,1385
902.283875,1423
902.400085,1395
902.516418,1357
902.632629,1361
902.74884,1446
902.865112,1392
902.981384,1416
903.097595,1435
903.213867,1402
903.330017,1408
903.446289,1391
903.5625,1385
903.67865,1405
903.794922,1388
903.911072,1406
904.027344,1363
904.143494,1447
904.259705,1358
904.375916,1387
904.492065,1376
904.608215,1397
904.724426,1393
904.840576,1356
904.956726,1377
905.072876,1394
905.189087,1364
905.305176,1369
905.421387,1396
905.537537,1375
905.653687,1360
905.769775,1373
905.885925,1405
906.002014,1418
906.118164,1372
906.234314,1398
906.350403,1383
906.466492,1385
906.582642,1358
906.69873,1403
906.814758,1386
906.930908,1438
907.046936,1384
907.163086,1395
907.279175,1384
907.395264,1409
907.511353,1362
907.62738,1386
907.743408,1375
907.859497,1421
907.975525,1406
908.091553,1401
908.207703,1372
908.32373,1328
908.439758,1399
908.555786,1375
908.671814,1371
908.787842,1410
908.90387,1403
909.019775,1417
909.135864,1396
909.251892,1406
909.367859,1371
909.483826,1429
909.599854,1368
909.715881,1391
909.831848,1369
909.947815,1393
910.063782,1405
910.179749,1431
910.295776,1394
910.411743,1408
910.527649,1385
910.643616,1366
910.759583,1436
910.875488,1388
910.991455,1400
911.107361,1449
911.223267,1409
911.339294,1382
911.4552,1355
911.571106,1405
911.687073,1395
911.802979,1437
911.918823,1371
912.034729,1437
912.150635,1377
912.266602,1381
912.382446,1373
912.498352,1384
912.614197,1379
912.730103,1409
912.846008,1384
792.44574,1834
792.56488,1835
792.68396,1804
792.80304,1818
792.92218,1796
793.041199,1718
793.160339,1742
793.279419,1788
793.398499,1804
793.517578,1700
793.636658,1721
793.755737,1719
793.874817,1681
793.993896,1740
794.112976,1660
794.232056,1670
794.351074,1708
794.470215,1722
794.589233,1637
794.708313,1655
794.827393,1682
794.946411,1667
795.065552,1646
795.18457,1609
795.303589,1664
795.422668,1623
795.541687,1627
795.660767,1611
795.779846,1631
795.898865,1634
796.017883,1589
796.136963,1568
796.255981,1626
796.375061,1572
796.49408,1630
796.613037,1595
796.732117,1587
796.851135,1569
796.970154,1607
797.089233,1537
797.208191,1592
797.327271,1559
797.446228,1635
797.565186,1591
797.684265,1604
797.803223,1577
797.922241,1574
798.04126,1557
798.160278,1523
798.279297,1552
798.398315,1557
798.517273,1549
798.636292,1543
798.75531,1513
798.874268,1507
798.993286,1549
799.112244,1541
799.231323,1536
799.350281,1529
799.469238,1577
799.588257,1565
799.707153,1493
799.826111,1523
799.945129,1538
800.064087,1547
800.183044,1515
800.302063,1542
800.421021,1537
800.539978,1523
800.658936,1534
800.777893,1576
800.896912,1539
801.015747,1493
801.134705,1566
801.253723,1524
801.37262,1533
801.491638,1509
801.610535,1502
801.729492,1509
801.84845,1496
801.967407,1542
802.086243,1488
802.205261,1547
802.324158,1516
802.443115,1506
802.562073,1557
802.680969,1523
802.799927,1486
802.918762,1507
803.037659,1520
803.156677,1534
803.275574,1516
803.39447,1477
803.513428,1514
803.632263,1492
803.751221,1553
803.870117,1553
803.989014,1522
804.107971,1538
804.226746,1519
804.345642,1498
804.4646,1488
804.583496,1533
804.702393,1507
804.821228,1522
804.940125,1526
805.059021,1534
805.177917,1508
805.296814,1562
805.415649,1481
805.534546,1536
805.653442,1545
805.772278,1562
805.891113,1524
806.01001,1542
806.128906,1481
806.247742,1527
806.366577,1500
806.485413,1507
806.604309,1495
806.723145,1470
806.84198,1498
806.960876,1564
807.079712,1498
807.198486,1537
807.317383,1539
807.436218,1478
807.554993,1491
807.673889,1513
807.792725,1458
807.91156,1537
808.030396,1534
808.14917,1469
808.268005,1506
808.386841,1511
808.505676,1524
808.624451,1531
808.743286,1470
808.862122,1505
808.980896,1501
809.099731,1544
809.218506,1515
809.337341,1499
809.456116,1508
809.57489,1518
809.693726,1453
809.8125,1540
809.931274,1497
810.050049,1526
810.168884,1533
810.287659,1501
810.406372,1524
810.525269,1500
810.643982,1514
810.762756,1511
810.881531,1493
811.000305,1539
811.11908,1453
811.237854,1544
811.356567,1506
811.475403,1524
811.594116,1524
811.71283,1464
811.831604,1517
811.950378,1501
812.069153,1491
812.187927,1563
812.30658,1568
812.425415,2247
812.544128,3822
812.662781,1461
812.781616,1482
812.900269,1503
813.019043,1525
813.137756,1482
813.256531,1506
813.375244,1496
813.493896,1455
813.612671,1526
813.731384,1487
813.850037,1508
813.96875,1502
814.087524,1488
814.206238,1484
814.324951,1486
814.443604,1474
814.562256,1525
814.68103,1486
814.799683,1499
814.918335,1457
815.037109,1454
815.155762,1445
815.274475,1507
815.393188,1480
815.511841,1466
815.630554,1497
815.749146,1479
815.867859,1518
815.986572,1500
816.105164,1485
816.223877,1483
816.342529,1465
816.461182,1475
816.579895,1435
816.698486,1476
816.817139,1470
816.935791,1466
817.054504,1473
817.173096,1444
817.291748,1502
817.4104,1483
817.529053,1411
817.647644,1483
817.766235,1463
817.884949,1437
818.00354,1445
818.122192,1438
818.240845,1437
818.359436,1398
818.478088,1406
818.59668,1465
818.715271,1449
818.833923,1441
818.952515,1385
819.071106,1408
819.189758,1406
819.30835,1357
819.426941,1389
819.545532,1403
819.664124,1364
819.782715,1393
819.901306,1378
820.019897,1383
820.138489,1383
820.25708,1398
820.375671,1355
820.494202,1388
820.612732,1376
820.731384,1360
820.849915,1344
820.968506,1371
821.087097,1381
821.205627,1370
821.324158,1357
821.442749,1376
821.561279,1390
821.679871,1386
821.798401,1366
821.916931,1395
822.035461,1356
822.154053,1376
822.272583,1323
822.391174,1342
822.509583,1344
822.628174,1328
822.746704,1356
822.865234,1395
822.983765,1325
823.102295,1320
823.220825,1335
823.339294,1323
823.457825,1406
823.576355,1356
823.694824,1356
823.813354,1337
823.931885,1322
824.050354,1359
824.168884,1348
824.287354,1355
824.405823,1349
824.524353,1358
824.642822,1375
824.761353,1400
824.879822,1344
824.998291,1327
825.116699,1321
825.235291,1336
825.353699,1347
825.472168,1329
825.590637,1363
825.709106,1333
825.827576,1337
825.946045,1337
826.064453,1350
826.182983,1365
826.301392,1302
826.4198,1340
826.53833,1319
826.656738,1337
826.775208,1301
826.893677,1411
827.012024,1344
827.130493,1348
827.248962,1316
827.36731,1300
827.485779,1329
827.604248,1323
827.722595,1347
827.841064,1360
827.959412,1310
828.077942,1348
828.196289,1368
828.314636,1319
828.433105,1276
828.551514,1347
828.669861,1331
828.78833,1344
828.906677,1291
829.025085,1337
829.143433,1284
829.261841,1299
829.38031,1288
829.498657,1294
829.617004,1301
829.735413,1340
829.85376,1342
829.972107,1321
830.090515,1321
830.208862,1314
830.327209,1277
830.445557,1331
830.563904,1338
830.682312,1316
830.800659,1271
830.919006,1311
831.037354,1267
831.155701,1336
831.274048,1316
831.392395,1318
831.51062,1326
831.629028,1319
831.747314,1305
831.865662,1321
831.984009,1325
832.102356,1315
832.220642,1295
832.338928,1324
832.457275,1333
832.575623,1313
832.693909,1310
832.812134,1324
832.930481,1303
833.048828,1299
833.167114,1321
833.2854,1304
833.403687,1332
833.521973,1318
833.640259,1272
833.758545,1321
833.876831,1295
833.995056,1313
834.113281,1305
834.231628,1310
834.349915,1286
834.468201,1304
834.586426,1281
834.704651,1333
834.822998,1296
834.941162,1346
835.059448,1330
835.177673,1347
835.295959,1303
835.414246,1318
835.53241,1287
835.650635,1329
835.768921,1286
835.887146,1339
836.005371,1321
836.123596,1305
836.241821,1273
836.360046,1343
836.478271,1307
836.596497,1307
836.714722,1323
836.832886,1331
836.95105,1313
837.069336,1304
837.1875,1327
837.305725,1307
837.423889,1303
837.542053,1306
837.660339,1328
837.778503,1347
837.896667,1361
838.014832,1318
838.132996,1338
838.25116,1323
838.369385,1326
838.487488,1314
838.605713,1311
838.723877,1311
838.84198,1283
838.960205,1324
839.078308,1292
839.196472,1312
839.314636,1325
839.4328,1303
839.550964,1317
839.669067,1317
839.787231,1298
839.905396,1270
840.023499,1294
840.141602,1277
840.259766,1309
840.377869,1355
840.495972,1353
840.614136,1314
840.732239,1307
840.850342,1311
840.968445,1320
841.086548,1318
841.204651,1330
841.322754,1407
841.440918,1273
841.55896,1308
841.677002,1341
841.795166,1317
841.913208,1289
842.031311,1308
842.149353,1290
842.267456,1300
842.385498,1322
842.503601,1310
842.621643,1276
842.739746,1299
842.857788,1291
842.97583,1337
843.093933,1298
843.211975,1305
843.330017,1320
843.44812,1302
843.566101,1309
843.684204,1299
843.802246,1297
843.920227,1291
844.038269,1344
844.156311,1330
844.274292,1261
844.392395,1324
844.510376,1278
844.628357,1295
844.74646,1287
844.864441,1303
844.982422,1314
845.100403,1314
845.218384,1333
845.336426,1318
845.454468,1274
845.572449,1318
845.69043,1327
845.808411,1277
845.926453,1313
846.044373,1280
846.162354,1269
846.280396,1310
846.398315,1297
846.516296,1274
846.634216,1282
846.752197,1286
846.870178,1274
846.988098,1307
847.106079,1266
847.22406,1310
847.34198,1285
847.4599,1256
847.577881,1336
847.695801,1296
847.813782,1295
847.931641,1275
848.049561,1294
848.167603,1312
848.285461,1309
848.403381,1316
848.521362,1293
848.639221,1278
848.75708,1301
848.875,1322
848.99292,1295
849.110901,1339
849.22876,1320
849.34668,1336
849.464539,1322
849.582458,1297
849.700317,1310
849.818176,1330
849.936096,1281
850.053955,1301
850.171875,1264
850.289673,1337
850.407593,1288
850.525452,1301
850.643311,1285
850.761169,1260
850.878967,1319
850.996887,1294
851.114746,1345
851.232544,1273
851.350403,1297
851.468262,1295
851.58606,1249
851.703979,1320
851.821777,1280
851.939636,1297
852.057434,1311
852.175232,1318
852.293091,1286
852.410889,1351
852.528687,1304
852.646545,1353
852.764343,1306
852.88208,1277
852.999939,1306
853.117676,1307
853.235535,1313
853.353271,1324
853.471069,1344
853.588928,1326
853.706604,1269
853.824402,1318
853.9422,1299
854.059998,1316
854.177734,1305
854.295532,1320
854.413269,1294
854.531006,1334
854.648804,1309
854.766541,1283
854.884277,1282
855.002014,1289
855.119751,1307
855.237549,1355
855.355225,1314
855.473022,1309
855.590698,1325
855.708435,1335
855.826172,1327
855.943848,1284
856.061646,1304
856.179321,1359
856.296997,1282
856.414795,1302
856.53241,1317
856.650085,1342
856.767822,1321
856.885559,1303
857.003174,1331
857.120911,1311
857.238586,1326
857.356201,1303
857.473938,1304
857.591614,1297
857.709351,1306
857.826965,1307
857.944641,1300
858.062317,1298
858.179993,1328
858.297668,1245
858.415283,1337
858.532959,1340
858.650574,1293
858.768188,1365
858.885803,1308
859.003479,1329
859.121094,1313
859.23877,1336
859.356384,1329
859.473999,1285
859.591675,1321
859.709229,1265
859.826843,1314
859.944458,1317
860.062012,1282
860.179626,1318
860.297302,1317
860.414856,1361
860.532471,1278
860.650024,1274
860.767639,1322
860.885193,1321
861.002808,1342
861.120361,1327
861.237976,1253
861.35553,1319
861.473022,1298
861.590698,1342
861.708191,1339
861.825745,1321
861.943298,1326
862.060852,1327
862.178406,1321
862.295959,1320
862.413513,1292
862.531006,1305
862.64856,1331
862.766113,1301
862.883667,1334
863.00116,1314
863.118713,1284
863.236206,1320
863.353699,1307
863.471252,1295
863.588745,1333
863.706177,1330
863.82373,1325
863.941162,1265
864.058716,1284
864.176208,1343
864.29364,1307
864.411194,1288
864.528687,1298
864.646118,1338
864.763611,1299
864.881042,1277
864.998535,1352
865.116028,1311
865.233459,1317
865.350891,1295
865.468384,1354
865.585754,1314
865.703308,1284
865.820679,1343
865.938171,1300
866.055542,1334
866.173035,1334
866.290466,1328
866.407837,1325
866.52533,1320
866.6427,1307
866.760071,1315
866.877563,1295
866.994934,1344
867.112305,1331
867.229736,1276
867.347107,1346
867.464539,1317
867.58197,1310
867.699341,1357
867.81665,1312
867.934082,1340
868.051453,1320
868.168823,1354
868.286194,1323
868.403564,1324
868.520935,1320
868.638306,1318
868.755676,1329
868.872986,1333
868.990295,1301
869.107727,1336
869.225037,1330
869.342346,1358
869.459717,1340
869.577026,1340
869.694336,1342
869.811707,1328
869.929016,1303
870.046326,1332
870.163635,1310
870.280945,1334
870.398254,1339
870.515564,1328
870.632812,1345
870.750183,1345
870.867432,1366
870.984741,1330
871.102051,1349
871.219299,1354
871.336609,1304
871.453918,1353
871.571106,1362
871.688416,1364
871.805664,1328
871.922852,1337
872.040222,1369
872.157471,1355
872.274719,1312
872.391968,1338
872.509155,1320
872.626465,1368
872.743652,1347
872.860962,1325
872.978149,1351
873.095337,1341
873.212646,1360
873.329834,1338
873.44696,1334
873.564209,1335
873.681396,1341
873.798645,1368
873.915894,1333
874.03302,1338
874.150208,1318
874.267456,1348
874.384583,1341
874.501831,1369
874.618958,1381
874.736145,1366
874.853333,1319
874.970459,1365
875.087646,1327
875.204834,1351
875.32196,1384
875.439148,1333
875.556274,1348
875.673401,1346
875.790527,1380
875.907715,1315
876.024841,1315
876.141968,1335
876.259094,1339
876.376282,1282
876.493347,1371
876.610474,1335
876.7276,1371
876.844727,1347
876.961853,1372
877.078918,1346
877.195984,1324
877.313171,1342
877.430237,1359
877.547302,1364
877.664368,1350
877.781433,1324
877.898499,1355
878.015625,1324
878.13269,1374
878.249695,1332
878.366821,1334
878.483887,1319
878.600952,1361
878.717957,1307
878.834961,1337
878.952087,1338
879.069092,1335
879.186157,1380
879.303162,1342
879.420227,1321
879.537231,1315
879.654236,1316
879.77124,1327
879.888306,1373
880.005249,1329
880.122314,1349
880.239319,1355
880.356323,1320
880.473328,1360
880.590271,1302
880.707275,1377
880.824341,1332
880.941284,1369
881.058228,1345
881.175232,1351
881.292236,1357
881.40918,1303
881.526123,1352
881.643066,1272
881.760071,1342
881.877014,1335
881.993958,1368
882.11084,1354
882.227783,1356
882.344727,1294
882.46167,1345
882.578613,1340
882.695618,1343
882.812439,1365
882.929382,1358
883.046326,1372
883.163208,1389
883.280151,1291
883.397034,1345
883.513916,1324
883.630798,1371
883.747742,1334
883.864563,1342
883.981506,1319
884.098389,1357
884.21521,1356
884.332153,1376
884.448975,1326
884.565796,1396
884.682678,1396
884.7995,1395
884.916443,1363
885.033264,1384
885.150085,1409
885.266968,1424
885.383789,1371
885.500671,1385
885.617493,1395
885.734314,1420
885.851196,1390
885.967896,1421
886.084717,1371
886.201599,1385
886.318359,1365
886.435181,1346
886.552002,1385
886.668762,1355
886.785645,1427
886.902344,1398
887.019165,1421
887.135925,1402
887.252747,1419
887.369446,1378
887.486267,1371
887.603027,1350
887.719788,1399
887.836548,1309
887.953247,1366
888.070068,1388
888.186829,1341
888.303528,1347
888.420288,1375
888.536987,1363
888.653687,1369
888.770447,1405
888.887146,1362
889.003967,1350
889.120667,1354
889.237305,1388
889.354065,1386
889.470703,1372
889.587463,1356
889.704163,1370
889.820862,1358
889.937561,1378
890.054199,1357
890.170837,1404
890.287598,1371
890.404236,1349
890.520874,1408
890.637634,1352
890.754211,1345
890.87085,1366
890.987549,1367
891.104187,1356
891.220886,1357
891.337463,1368
891.454102,1379
891.57074,1382
891.687378,1396
891.804077,1376
891.920654,1405
892.037231,1378
892.15387,1365
892.270447,1360
892.387085,1378
892.503723,1370
892.6203,1440
892.736877,1417
892.853516,1340
892.970032,1358
893.08667,1384
893.203186,1401
893.319763,1357
893.43634,1382
893.552917,1384
893.669556,1402
893.786011,1388
893.902588,1377
894.019165,1344
894.135681,1371
894.252197,1402
894.368835,1460
894.485291,1390
894.601868,1387
894.718384,1433
894.8349,1384
894.951355,1421
895.067932,1381
895.184448,1405
895.300964,1366
895.417419,1389
895.533936,1373
895.650452,1436
895.766907,1393
895.883423,1369
895.999878,1384
896.116333,1413
896.232849,1385
896.349304,1383
896.465759,1343
896.582214,1380
896.698669,1402
896.815125,1382
896.931641,1399
897.048035,1395
897.164551,1374
897.280884,1372
897.397339,1366
897.513794,1383
897.630249,1392
897.746582,1410
897.863098,1425
897.979431,1395
898.095886,1376
898.212341,1352
898.328674,1408
898.445129,1411
898.561462,1371
898.677795,1399
898.794312,1381
898.910645,1395
899.026978,1401
899.143433,1430
899.259766,1402
899.37616,1382
899.492493,1399
899.608765,1384
899.725159,1387
899.841553,1402
899.957947,1396
900.07428,1412
900.190552,1410
900.306946,1467
900.423157,1371
900.53949,1387
900.655884,1382
900.772156,1385
900.888489,1407
901.004822,1421
901.121033,1386
901.237366,1387
901.353699,1407
901.46991,1409
901.586304,1422
901.702515,1419
901.818787,1439
901.93512,1358
902.051331,1406
902.167603,1440
902.283875,1452
902.400085,1418
902.516418,1393
902.632629,1440
902.74884,1395
902.865112,1457
902.981384,1450
903.097595,1430
903.213867,1485
903.330017,1444
903.446289,1404
903.5625,1420
903.67865,1431
903.794922,1433
903.911072,1429
904.027344,1437
904.143494,1429
904.259705,1459
904.375916,1395
904.492065,1427
904.608215,1415
904.724426,1385
904.840576,1414
904.956726,1423
905.072876,1419
905.189087,1483
905.305176,1475
905.421387,1431
905.537537,1410
905.653687,1405
905.769775,1400
905.885925,1434
906.002014,1402
906.118164,1448
906.234314,1432
906.350403,1399
906.466492,1422
906.582642,1432
906.69873,1400
906.814758,1402
906.930908,1414
907.046936,1418
907.163086,1424
907.279175,1396
907.395264,1490
907.511353,1399
907.62738,1446
907.743408,1442
907.859497,1462
907.975525,1425
908.091553,1418
908.207703,1419
908.32373,1424
908.439758,1438
908.555786,1424
908.671814,1456
908.787842,1387
908.90387,1441
909.019775,1407
909.135864,1441
909.251892,1410
909.367859,1423
909.483826,1436
909.599854,1448
909.715881,1421
909.831848,1394
909.947815,1474
910.063782,1402
910.179749,1444
910.295776,1414
910.411743,1415
910.527649,1417
910.643616,1449
910.759583,1431
910.875488,1403
910.991455,1420
911.107361,1415
911.223267,1478
911.339294,1438
911.4552,1481
911.571106,1462
911.687073,1421
911.802979,1436
911.918823,1417
912.034729,1443
912.150635,1408
912.266602,1414
912.382446,1415
912.498352,1405
912.614197,1384
912.730103,1453
912.846008,1415
792.44574,1895
792.56488,1872
792.68396,1897
792.80304,1860
792.92218,1802
793.041199,1759
793.160339,1761
793.279419,1768
793.398499,1716
793.517578,1713
793.636658,1762
793.755737,1757
793.874817,1740
793.993896,1697
794.112976,1680
794.232056,1709
794.351074,1672
794.470215,1713
794.589233,1680
794.708313,1638
794.827393,1680
794.946411,1669
795.065552,1630
795.18457,1670
795.303589,1635
795.422668,1630
795.541687,1631
795.660767,1639
795.779846,1619
795.898865,1605
796.017883,1601
796.136963,1561
796.255981,1621
796.375061,1610
796.49408,1573
796.613037,1635
796.732117,1593
796.851135,1551
796.970154,1580
797.089233,1606
797.208191,1577
797.327271,1593
797.446228,1594
797.565186,1592
797.684265,1564
797.803223,1550
797.922241,1544
798.04126,1594
798.160278,1583
798.279297,1547
798.398315,1559
798.517273,1564
798.636292,1558
798.75531,1572
798.874268,1599
798.993286,1558
799.112244,1564
799.231323,1516
799.350281,1599
799.469238,1565
799.588257,1538
799.707153,1525
799.826111,1518
799.945129,1608
800.064087,1558
800.183044,1523
800.302063,1546
800.421021,1541
800.539978,1548
800.658936,1529
800.777893,1509
800.896912,1532
801.015747,1532
801.134705,1541
801.253723,1565
801.37262,1555
801.491638,1535
801.610535,1588
801.729492,1543
801.84845,1532
801.967407,1545
802.086243,1573
802.205261,1511
802.324158,1518
802.443115,1537
802.562073,1527
802.680969,1508
802.799927,1526
802.918762,1557
803.037659,1547
803.156677,1544
803.275574,1537
803.39447,1537
803.513428,1558
803.632263,1517
803.751221,1534
803.870117,1487
803.989014,1504
804.107971,1529
804.226746,1538
804.345642,1514
804.4646,1564
804.583496,1544
804.702393,1481
804.821228,1523
804.940125,1565
805.059021,1502
805.177917,1517
805.296814,1577
805.415649,1487
805.534546,1561
805.653442,1505
805.772278,1552
805.891113,1549
806.01001,1552
806.128906,1541
806.247742,1523
806.366577,1503
806.485413,1548
806.604309,1537
806.723145,1522
806.84198,1484
806.960876,1504
807.079712,1522
807.198486,1488
807.317383,1532
807.436218,1521
807.554993,1484
807.673889,1528
807.792725,1508
807.91156,1536
808.030396,1498
808.14917,1524
808.268005,1556
808.386841,1536
808.505676,1514
808.624451,1532
808.743286,1535
808.862122,1494
808.980896,1549
809.099731,1503
809.218506,1526
809.337341,1541
809.456116,1486
809.57489,1570
809.693726,1528
809.8125,1542
809.931274,1532
810.050049,1546
810.168884,1486
810.287659,1524
810.406372,1496
810.525269,1547
810.643982,1499
810.762756,1494
810.881531,1538
811.000305,1526
811.11908,1499
811.237854,1507
811.356567,1507
811.475403,1502
811.594116,1525
811.71283,1550
811.831604,1478
811.950378,1571
812.069153,1525
812.187927,1546
812.30658,1531
812.425415,1519
812.544128,1529
812.662781,1482
812.781616,1540
812.900269,1522
813.019043,1503
813.137756,1522
813.256531,1486
813.375244,1495
813.493896,1478
813.612671,1516
813.731384,1526
813.850037,1508
813.96875,1526
814.087524,1502
814.206238,1534
814.324951,1502
814.443604,1499
814.562256,1468
814.68103,1480
814.799683,1506
814.918335,1521
815.037109,1522
815.155762,1503
815.274475,1445
815.393188,1542
815.511841,1511
815.630554,1525
815.749146,1468
815.867859,1470
815.986572,1510
816.105164,1502
816.223877,1463
816.342529,1457
816.461182,1474
816.579895,1470
816.698486,1500
816.817139,1487
816.935791,1523
817.054504,1483
817.173096,1495
817.291748,1521
817.4104,1497
817.529053,1488
817.647644,1474
817.766235,1418
817.884949,1494
818.00354,1481
818.122192,1475
818.240845,1386
818.359436,1432
818.478088,1408
818.59668,1411
818.715271,1421
818.833923,1458
818.952515,1441
819.071106,1423
819.189758,1399
819.30835,1398
819.426941,1418
819.545532,1409
819.664124,1396
819.782715,1418
819.901306,1438
820.019897,1391
820.138489,1397
820.25708,1412
820.375671,1402
820.494202,1399
820.612732,1304
820.731384,1378
820.849915,1386
820.968506,1413
821.087097,1393
821.205627,1402
821.324158,1380
821.442749,1433
821.561279,1404
821.679871,1351
821.798401,1377
821.916931,1362
822.035461,1379
822.154053,1367
822.272583,1386
822.391174,1367
822.509583,1325
822.628174,1379
822.746704,1348
822.865234,1382
822.983765,1350
823.102295,1363
823.220825,1336
823.339294,1340
823.457825,1392
823.576355,1392
823.694824,1420
823.813354,1375
823.931885,1398
824.050354,1373
824.168884,1348
824.287354,1358
824.405823,1368
824.524353,1378
824.642822,1360
824.761353,1340
824.879822,1404
824.998291,1339
825.116699,1352
825.235291,1329
825.353699,1350
825.472168,1337
825.590637,1335
825.709106,1382
825.827576,1326
825.946045,1364
826.064453,1322
826.182983,1329
826.301392,1369
826.4198,1329
826.53833,1339
826.656738,1349
826.775208,1353
826.893677,1360
827.012024,1362
827.130493,1352
827.248962,1309
827.36731,1380
827.485779,1353
827.604248,1373
827.722595,1352
827.841064,1332
827.959412,1289
828.077942,1281
828.196289,1350
828.314636,1344
828.433105,1324
828.551514,1344
828.669861,1301
828.78833,1317
828.906677,1312
829.025085,1308
829.143433,1361
829.261841,1349
829.38031,1325
829.498657,1340
829.617004,1279
829.735413,1341
829.85376,1298
829.972107,1347
830.090515,1281
830.208862,1309
830.327209,1369
830.445557,1358
830.563904,1338
830.682312,1323
830.800659,1337
830.919006,1334
831.037354,1331
831.155701,1304
831.274048,1324
831.392395,1298
831.51062,1362
831.629028,1307
831.747314,1346
831.865662,1279
831.984009,1309
832.102356,1315
832.220642,1311
832.338928,1296
832.457275,1329
832.575623,1359
832.693909,1288
832.812134,1334
832.930481,1295
833.048828,1339
833.167114,1332
833.2854,1316
833.403687,1334
833.521973,1343
833.640259,1311
833.758545,1321
833.876831,1323
833.995056,1310
834.113281,1352
834.231628,1342
834.349915,1307
834.468201,1259
834.586426,1314
834.704651,1326
834.822998,1326
834.941162,1368
835.059448,1306
835.177673,1347
835.295959,1296
835.414246,1322
835.53241,1301
835.650635,1325
835.768921,1319
835.887146,1354
836.005371,1345
836.123596,1288
836.241821,1298
836.360046,1324
836.478271,1314
836.596497,1330
836.714722,1294
836.832886,1298
836.95105,1270
837.069336,1288
837.1875,1321
837.305725,1344
837.423889,1320
837.542053,1309
837.660339,1343
837.778503,1318
837.896667,1319
838.014832,1315
838.132996,1340
838.25116,1309
838.369385,1328
838.487488,1337
838.605713,1298
838.723877,1282
838.84198,1325
838.960205,1320
839.078308,1352
839.196472,1311
839.314636,1286
839.4328,1309
839.550964,1328
839.669067,1319
839.787231,1340
839.905396,1313
840.023499,1342
840.141602,1321
840.259766,1297
840.377869,1293
840.495972,1336
840.614136,1324
840.732239,1316
840.850342,1298
840.968445,1362
841.086548,1314
841.204651,1303
841.322754,1314
841.440918,1313
841.55896,1308
841.677002,1314
841.795166,1352
841.913208,1306
842.031311,1337
842.149353,1314
842.267456,1287
842.385498,1297
842.503601,1352
842.621643,1329
842.739746,1280
842.857788,1294
842.97583,1339
843.093933,1282
843.211975,1288
843.330017,1317
843.44812,1335
843.566101,1325
843.684204,1346
843.802246,1315
843.920227,1285
844.038269,1319
844.156311,1336
844.274292,1304
844.392395,1362
844.510376,1326
844.628357,1322
844.74646,1344
844.864441,1304
844.982422,1310
845.100403,1320
845.218384,1305
845.336426,1307
845.454468,1312
845.572449,1291
845.69043,1320
845.808411,1292
845.926453,1274
846.044373,1298
846.162354,1343
846.280396,1311
846.398315,1313
846.516296,1322
846.634216,1304
846.752197,1325
846.870178,1291
846.988098,1307
847.106079,1331
847.22406,1277
847.34198,1283
847.4599,1318
847.577881,1302
847.695801,1279
847.813782,1327
847.931641,1282
848.049561,1359
848.167603,1318
848.285461,1297
848.403381,1290
848.521362,1324
848.639221,1308
848.75708,1345
848.875,1299
848.99292,1304
849.110901,1326
849.22876,1297
849.34668,1354
849.464539,1292
849.582458,1327
849.700317,1327
849.818176,1269
849.936096,1326
850.053955,1335
850.171875,1333
850.289673,1315
850.407593,1344
850.525452,1322
850.643311,1314
850.761169,1277
850.878967,1294
850.996887,1348
851.114746,1314
851.232544,1291
851.350403,1299
851.468262,1285
851.58606,1361
851.703979,1292
851.821777,1325
851.939636,1305
852.057434,1303
852.175232,1278
852.293091,1305
852.410889,1332
852.528687,1312
852.646545,1320
852.764343,1300
852.88208,1360
852.999939,1296
853.117676,1317
853.235535,1322
853.353271,1313
853.471069,1324
853.588928,1342
853.706604,1299
853.824402,1301
853.9422,1263
854.059998,1320
854.177734,1315
854.295532,1342
854.413269,1296
854.531006,1359
854.648804,1330
854.766541,1317
854.884277,1326
855.002014,1288
855.119751,1324
855.237549,1298
855.355225,1346
855.473022,1350
855.590698,1349
855.708435,1325
855.826172,1308
855.943848,1335
856.061646,1337
856.179321,1347
856.296997,1297
856.414795,1334
856.53241,1305
856.650085,1302
856.767822,1333
856.885559,1339
857.003174,1281
857.120911,1348
857.238586,1317
857.356201,1323
857.473938,1305
857.591614,1332
857.709351,1350
857.826965,1314
857.944641,1333
858.062317,1330
858.179993,1324
858.297668,1348
858.415283,1307
858.532959,1353
858.650574,1341
858.768188,1334
858.885803,1325
859.003479,1321
859.121094,1326
859.23877,1329
859.356384,1300
859.473999,1333
859.591675,1321
859.709229,1379
859.826843,1341
859.944458,1334
860.062012,1315
860.179626,1327
860.297302,1258
860.414856,1344
860.532471,1328
860.650024,1340
860.767639,1350
860.885193,1351
861.002808,1324
861.120361,1329
861.237976,1303
861.35553,1363
861.473022,1297
861.590698,1354
861.708191,1285
861.825745,1368
861.943298,1325
862.060852,1349
862.178406,1296
862.295959,1329
862.413513,1309
862.531006,1326
862.64856,1325
862.766113,1331
862.883667,1323
863.00116,1343
863.118713,1353
863.236206,1294
863.353699,1303
863.471252,1321
863.588745,1300
863.706177,1317
863.82373,1340
863.941162,1344
864.058716,1332
864.176208,1309
864.29364,1303
864.411194,1327
864.528687,1324
864.646118,1331
864.763611,1273
864.881042,1374
864.998535,1330
865.116028,1369
865.233459,1298
865.350891,1283
865.468384,1365
865.585754,1266
865.703308,1335
865.820679,1331
865.938171,1344
866.055542,1345
866.173035,1329
866.290466,1323
866.407837,1336
866.52533,1298
866.6427,1308
866.760071,1356
866.877563,1327
866.994934,1326
867.112305,1295
867.229736,1367
867.347107,1318
867.464539,1344
867.58197,1279
867.699341,1332
867.81665,1378
867.934082,1360
868.051453,1334
868.168823,1335
868.286194,1340
868.403564,1351
868.520935,1316
868.638306,1334
868.755676,1365
868.872986,1348
868.990295,1322
869.107727,1328
869.225037,1311
869.342346,1385
869.459717,1324
869.577026,1338
869.694336,1332
869.811707,1346
869.929016,1424
870.046326,1334
870.163635,1328
870.280945,1342
870.398254,1351
870.515564,1331
870.632812,1414
870.750183,1335
870.867432,1344
870.984741,1359
871.102051,1347
871.219299,1344
871.336609,1353
871.453918,1328
871.571106,1356
871.688416,1359
871.805664,1342
871.922852,1369
872.040222,1374
872.157471,1347
872.274719,1366
872.391968,1357
872.509155,1375
872.626465,1345
872.743652,1360
872.860962,1373
872.978149,1316
873.095337,1358
873.212646,1352
873.329834,1300
873.44696,1353
873.564209,1348
873.681396,1391
873.798645,1313
873.915894,1330
874.03302,1336
874.150208,1336
874.267456,1322
874.384583,1328
874.501831,1360
874.618958,1305
874.736145,1350
874.853333,1341
874.970459,1378
875.087646,1373
875.204834,1338
875.32196,1372
875.439148,1346
875.556274,1359
875.673401,1398
875.790527,1347
875.907715,1335
876.024841,1333
876.141968,1356
876.259094,1366
876.376282,1369
876.493347,1364
876.610474,1330
876.7276,1406
876.844727,1339
876.961853,1345
877.078918,1376
877.195984,1332
877.313171,1364
877.430237,1371
877.547302,1366
877.664368,1364
877.781433,1322
877.898499,1356
878.015625,1326
878.13269,1334
878.249695,1351
878.366821,1321
878.483887,1332
878.600952,1323
878.717957,1369
878.834961,1372
878.952087,1364
879.069092,1355
879.186157,1341
879.303162,1368
879.420227,1367
879.537231,1344
879.654236,1368
879.77124,1361
879.888306,1358
880.005249,1368
880.122314,1360
880.239319,1335
880.356323,1341
880.473328,1357
880.590271,1358
880.707275,1340
880.824341,1373
880.941284,1342
881.058228,1337
881.175232,1374
881.292236,1322
881.40918,1330
881.526123,1326
881.643066,1326
881.760071,1368
881.877014,1343
881.993958,1352
882.11084,1365
882.227783,1325
882.344727,1361
882.46167,1320
882.578613,1319
882.695618,1347
882.812439,1309
882.929382,1342
883.046326,1402
883.163208,1374
883.280151,1363
883.397034,1342
883.513916,1333
883.630798,1323
883.747742,1326
883.864563,1328
883.981506,1329
884.098389,1355
884.21521,1354
884.332153,1403
884.448975,1339
884.565796,1396
884.682678,1347
884.7995,1384
884.916443,1401
885.033264,1408
885.150085,1392
885.266968,1395
885.383789,1401
885.500671,1381
885.617493,1399
885.734314,1448
885.851196,1451
885.967896,1401
886.084717,1421
886.201599,1399
886.318359,1439
886.435181,1399
886.552002,1398
886.668762,1411
886.785645,1419
886.902344,1389
887.019165,1418
887.135925,1415
887.252747,1416
887.369446,1392
887.486267,1396
887.603027,1412
887.719788,1341
887.836548,1404
887.953247,1392
888.070068,1394
888.186829,1341
888.303528,1415
888.420288,1374
888.536987,1388
888.653687,1395
888.770447,1332
888.887146,1392
889.003967,1405
889.120667,1371
889.237305,1382
889.354065,1368
889.470703,1377
889.587463,1361
889.704163,1371
889.820862,1370
889.937561,1380
890.054199,1385
890.170837,1385
890.287598,1434
890.404236,1398
890.520874,1377
890.637634,1358
890.754211,1392
890.87085,1357
890.987549,1343
891.104187,1398
891.220886,1409
891.337463,1389
891.454102,1399
891.57074,1404
891.687378,1378
891.804077,1366
891.920654,1396
892.037231,1375
892.15387,1404
892.270447,1386
892.387085,1385
892.503723,1389
892.6203,1372
892.736877,1406
892.853516,1390
892.970032,1395
893.08667,1395
893.203186,1411
893.319763,1361
893.43634,1377
893.552917,1413
893.669556,1409
893.786011,1443
893.902588,1330
894.019165,1411
894.135681,1347
894.252197,1400
894.368835,1376
894.485291,1406
894.601868,1411
894.718384,1420
894.8349,1401
894.951355,1394
895.067932,1427
895.184448,1339
895.300964,1447
895.417419,1384
895.533936,1403
895.650452,1393
895.766907,1422
895.883423,1394
895.999878,1367
896.116333,1422
896.232849,1419
896.349304,1394
896.465759,1407
896.582214,1364
896.698669,1389
896.815125,1391
896.931641,1414
897.048035,1388
897.164551,1396
897.280884,1402
897.397339,1406
897.513794,1382
897.630249,1426
897.746582,1348
897.863098,1450
897.979431,1389
898.095886,1391
898.212341,1353
898.328674,1405
898.445129,1367
898.561462,1394
898.677795,1416
898.794312,1415
898.910645,1451
899.026978,1363
899.143433,1430
899.259766,1432
899.37616,1429
899.492493,1399
899.608765,1388
899.725159,1451
899.841553,1406
899.957947,1434
900.07428,1421
900.190552,1409
900.306946,1414
900.423157,1412
900.53949,1406
900.655884,1420
900.772156,1378
900.888489,1455
901.004822,1415
901.121033,1395
901.237366,1453
901.353699,1409
901.46991,1431
901.586304,1380
901.702515,1433
901.818787,1427
901.93512,1417
902.051331,1422
902.167603,1449
902.283875,1465
902.400085,1482
902.516418,1397
902.632629,1422
902.74884,1425
902.865112,1425
902.981384,1455
903.097595,1428
903.213867,1437
903.330017,1413
903.446289,1453
903.5625,1463
903.67865,1450
903.794922,1493
903.911072,1459
904.027344,1452
904.143494,1460
904.259705,1459
904.375916,1441
904.492065,1448
904.608215,1461
904.724426,1380
904.840576,1480
904.956726,1444
905.072876,1426
905.189087,1445
905.305176,1450
905.421387,1470
905.537537,1431
905.653687,1441
905.769775,1433
905.885925,1473
906.002014,1442
906.118164,1412
906.234314,1449
906.350403,1419
906.466492,1480
906.582642,1382
906.69873,1418
906.814758,1421
906.930908,1467
907.046936,1403
907.163086,1475
907.279175,1408
907.395264,1467
907.511353,1457
907.62738,1413
907.743408,1405
907.859497,1467
907.975525,1452
908.091553,1453
908.207703,1387
908.32373,1496
908.439758,1473
908.555786,1417
908.671814,1431
908.787842,1423
908.90387,1486
909.019775,1417
909.135864,1436
909.251892,1444
909.367859,1460
909.483826,1417
909.599854,1463
909.715881,1444
909.831848,1484
909.947815,1436
910.063782,1442
910.179749,1467
910.295776,1440
910.411743,1455
910.527649,1430
910.643616,1449
910.759583,1469
910.875488,1442
910.991455,1427
911.107361,1468
911.223267,1418
911.339294,1505
911.4552,1416
911.571106,1432
911.687073,1418
911.802979,1448
911.918823,1481
912.034729,1445
912.150635,1416
912.266602,1450
912.382446,1384
912.498352,1419
912.614197,1450
912.730103,1466
912.846008,1448
