792.44574,2162
792.56488,2141
792.68396,2151
792.80304,2102
792.92218,2064
793.041199,2083
793.160339,2073
793.279419,2078
793.398499,2098
793.517578,2005
793.636658,2043
793.755737,2084
793.874817,2078
793.993896,1993
794.112976,2047
794.232056,1946
794.351074,2028
794.470215,1985
794.589233,1978
794.708313,1963
794.827393,1965
794.946411,1963
795.065552,1933
795.18457,1981
795.303589,1963
795.422668,1971
795.541687,1988
795.660767,1947
795.779846,1954
795.898865,1952
796.017883,1943
796.136963,1901
796.255981,1960
796.375061,1958
796.49408,1988
796.613037,1947
796.732117,1924
796.851135,1876
796.970154,1967
797.089233,1909
797.208191,1906
797.327271,1903
797.446228,1899
797.565186,1918
797.684265,1882
797.803223,1889
797.922241,1894
798.04126,1823
798.160278,1912
798.279297,1915
798.398315,1954
798.517273,1888
798.636292,1896
798.75531,1874
798.874268,1869
798.993286,1937
799.112244,1865
799.231323,1916
799.350281,1897
799.469238,1884
799.588257,1855
799.707153,1879
799.826111,1922
799.945129,1923
800.064087,1947
800.183044,1901
800.302063,1894
800.421021,1909
800.539978,1894
800.658936,1903
800.777893,1934
800.896912,1914
801.015747,1927
801.134705,1900
801.253723,1899
801.37262,1934
801.491638,1903
801.610535,1951
801.729492,1899
801.84845,1922
801.967407,1927
802.086243,1938
802.205261,1932
802.324158,1930
802.443115,1941
802.562073,1962
802.680969,1975
802.799927,1971
802.918762,1983
803.037659,1970
803.156677,1967
803.275574,1971
803.39447,1972
803.513428,1971
803.632263,2000
803.751221,2004
803.870117,2012
803.989014,2043
804.107971,2012
804.226746,2039
804.345642,2002
804.4646,2002
804.583496,2044
804.702393,2013
804.821228,2042
804.940125,2051
805.059021,2073
805.177917,2022
805.296814,2049
805.415649,2056
805.534546,2072
805.653442,2006
805.772278,2063
805.891113,2083
806.01001,2065
806.128906,2041
806.247742,2068
806.366577,2039
806.485413,2106
806.604309,2043
806.723145,2053
806.84198,2077
806.960876,2058
807.079712,2085
807.198486,2094
807.317383,2072
807.436218,2133
807.554993,2109
807.673889,2069
807.792725,2162
807.91156,2074
808.030396,2106
808.14917,2105
808.268005,2166
808.386841,2118
808.505676,2140
808.624451,2143
808.743286,2144
808.862122,2108
808.980896,2162
809.099731,2086
809.218506,2143
809.337341,2161
809.456116,2123
809.57489,2128
809.693726,2159
809.8125,2175
809.931274,2099
810.050049,2084
810.168884,2144
810.287659,2172
810.406372,2130
810.525269,2140
810.643982,2160
810.762756,2190
810.881531,2193
811.000305,2112
811.11908,2173
811.237854,2113
811.356567,2156
811.475403,2190
811.594116,2090
811.71283,2163
811.831604,2152
811.950378,2167
812.069153,2157
812.187927,2187
812.30658,2225
812.425415,2189
812.544128,2174
812.662781,2177
812.781616,2171
812.900269,2195
813.019043,2213
813.137756,2136
813.256531,2197
813.375244,2147
813.493896,2170
813.612671,2225
813.731384,2175
813.850037,2126
813.96875,2207
814.087524,2161
814.206238,2154
814.324951,2141
814.443604,2125
814.562256,2166
814.68103,2132
814.799683,2111
814.918335,2155
815.037109,2140
815.155762,2142
815.274475,2157
815.393188,2118
815.511841,2074
815.630554,2063
815.749146,2060
815.867859,2057
815.986572,2048
816.105164,2053
816.223877,2084
816.342529,2078
816.461182,2081
816.579895,2096
816.698486,2099
816.817139,2103
816.935791,2088
817.054504,2101
817.173096,2075
817.291748,2076
817.4104,2070
817.529053,1980
817.647644,1965
817.766235,1922
817.884949,1913
818.00354,1913
818.122192,1867
818.240845,1829
818.359436,1798
818.478088,1799
818.59668,1734
818.715271,1717
818.833923,1685
818.952515,1681
819.071106,1621
819.189758,1598
819.30835,1585
819.426941,1609
819.545532,1612
819.664124,1574
819.782715,1524
819.901306,1543
820.019897,1562
820.138489,1541
820.25708,1568
820.375671,1490
820.494202,1544
820.612732,1520
820.731384,1498
820.849915,1521
820.968506,1522
821.087097,1456
821.205627,1479
821.324158,1473
821.442749,1469
821.561279,1519
821.679871,1483
821.798401,1457
821.916931,1489
822.035461,1487
822.154053,1492
822.272583,1457
822.391174,1472
822.509583,1474
822.628174,1433
822.746704,1485
822.865234,1453
822.983765,1471
823.102295,1436
823.220825,1480
823.339294,1381
823.457825,1483
823.576355,1420
823.694824,1453
823.813354,1431
823.931885,1496
824.050354,1436
824.168884,1547
824.287354,1524
824.405823,1489
824.524353,1485
824.642822,1515
824.761353,1517
824.879822,1465
824.998291,1480
825.116699,1461
825.235291,1479
825.353699,1493
825.472168,1402
825.590637,1441
825.709106,1482
825.827576,1437
825.946045,1441
826.064453,1411
826.182983,1378
826.301392,1446
826.4198,1383
826.53833,1421
826.656738,1399
826.775208,1362
826.893677,1397
827.012024,1370
827.130493,1362
827.248962,1388
827.36731,1348
827.485779,1381
827.604248,1361
827.722595,1375
827.841064,1366
827.959412,1334
828.077942,1392
828.196289,1346
828.314636,1379
828.433105,1358
828.551514,1368
828.669861,1387
828.78833,1392
828.906677,1383
829.025085,1336
829.143433,1339
829.261841,1305
829.38031,1340
829.498657,1295
829.617004,1354
829.735413,1343
829.85376,1342
829.972107,1385
830.090515,1364
830.208862,1350
830.327209,1330
830.445557,1348
830.563904,1323
830.682312,1318
830.800659,1359
830.919006,1335
831.037354,1363
831.155701,1300
831.274048,1320
831.392395,1336
831.51062,1357
831.629028,1358
831.747314,1334
831.865662,1326
831.984009,1305
832.102356,1344
832.220642,1327
832.338928,1382
832.457275,1339
832.575623,1337
832.693909,1364
832.812134,1350
832.930481,1368
833.048828,1332
833.167114,1332
833.2854,1326
833.403687,1353
833.521973,1348
833.640259,1341
833.758545,1347
833.876831,1378
833.995056,1333
834.113281,1334
834.231628,1336
834.349915,1341
834.468201,1329
834.586426,1328
834.704651,1375
834.822998,1315
834.941162,1378
835.059448,1337
835.177673,1363
835.295959,1338
835.414246,1321
835.53241,1338
835.650635,1380
835.768921,1340
835.887146,1383
836.005371,1362
836.123596,1368
836.241821,1357
836.360046,1383
836.478271,1431
836.596497,1380
836.714722,1414
836.832886,1398
836.95105,1416
837.069336,1459
837.1875,1476
837.305725,1459
837.423889,1442
837.542053,1464
837.660339,1446
837.778503,1462
837.896667,1437
838.014832,1448
838.132996,1388
838.25116,1422
838.369385,1468
838.487488,1439
838.605713,1433
838.723877,1397
838.84198,1459
838.960205,1377
839.078308,1423
839.196472,1423
839.314636,1430
839.4328,1379
839.550964,1391
839.669067,1376
839.787231,1403
839.905396,1436
840.023499,1422
840.141602,1427
840.259766,1385
840.377869,1403
840.495972,1403
840.614136,1400
840.732239,1388
840.850342,1348
840.968445,1411
841.086548,1365
841.204651,1393
841.322754,1396
841.440918,1384
841.55896,1381
841.677002,1305
841.795166,1360
841.913208,1350
842.031311,1347
842.149353,1366
842.267456,1372
842.385498,1327
842.503601,1286
842.621643,1334
842.739746,1330
842.857788,1346
842.97583,1319
843.093933,1320
843.211975,1319
843.330017,1347
843.44812,1356
843.566101,1332
843.684204,1325
843.802246,1270
843.920227,1332
844.038269,1291
844.156311,1308
844.274292,1286
844.392395,1285
844.510376,1309
844.628357,1334
844.74646,1323
844.864441,1338
844.982422,1347
845.100403,1302
845.218384,1348
845.336426,1302
845.454468,1295
845.572449,1290
845.69043,1283
845.808411,1295
845.926453,1299
846.044373,1279
846.162354,1336
846.280396,1291
846.398315,1325
846.516296,1314
846.634216,1311
846.752197,1343
846.870178,1319
846.988098,1289
847.106079,1305
847.22406,1363
847.34198,1335
847.4599,1304
847.577881,1315
847.695801,1308
847.813782,1283
847.931641,1345
848.049561,1314
848.167603,1284
848.285461,1274
848.403381,1324
848.521362,1280
848.639221,1338
848.75708,1288
848.875,1304
848.99292,1335
849.110901,1304
849.22876,1328
849.34668,1322
849.464539,1300
849.582458,1316
849.700317,1308
849.818176,1295
849.936096,1338
850.053955,1329
850.171875,1314
850.289673,1295
850.407593,1320
850.525452,1322
850.643311,1318
850.761169,1333
850.878967,1290
850.996887,1314
851.114746,1317
851.232544,1318
851.350403,1296
851.468262,1299
851.58606,1328
851.703979,1326
851.821777,1286
851.939636,1300
852.057434,1323
852.175232,1307
852.293091,1330
852.410889,1313
852.528687,1320
852.646545,1300
852.764343,1318
852.88208,1326
852.999939,1349
853.117676,1335
853.235535,1322
853.353271,1330
853.471069,1335
853.588928,1358
853.706604,1345
853.824402,1288
853.9422,1343
854.059998,1320
854.177734,1298
854.295532,1339
854.413269,1311
854.531006,1369
854.648804,1354
854.766541,1344
854.884277,1346
855.002014,1353
855.119751,1394
855.237549,1410
855.355225,1337
855.473022,1355
855.590698,1358
855.708435,1395
855.826172,1374
855.943848,1364
856.061646,1347
856.179321,1383
856.296997,1327
856.414795,1416
856.53241,1379
856.650085,1371
856.767822,1337
856.885559,1371
857.003174,1334
857.120911,1415
857.238586,1367
857.356201,1392
857.473938,1367
857.591614,1350
857.709351,1353
857.826965,1361
857.944641,1346
858.062317,1364
858.179993,1332
858.297668,1338
858.415283,1346
858.532959,1375
858.650574,1369
858.768188,1346
858.885803,1382
859.003479,1346
859.121094,1397
859.23877,1362
859.356384,1313
859.473999,1317
859.591675,1354
859.709229,1368
859.826843,1350
859.944458,1347
860.062012,1291
860.179626,1331
860.297302,1373
860.414856,1342
860.532471,1342
860.650024,1352
860.767639,1350
860.885193,1389
861.002808,1354
861.120361,1341
861.237976,1330
861.35553,1375
861.473022,1341
861.590698,1325
861.708191,1329
861.825745,1393
861.943298,1340
862.060852,1317
862.178406,1346
862.295959,1362
862.413513,1352
862.531006,1341
862.64856,1344
862.766113,1386
862.883667,1331
863.00116,1325
863.118713,1353
863.236206,1356
863.353699,1332
863.471252,1369
863.588745,1348
863.706177,1401
863.82373,1359
863.941162,1365
864.058716,1384
864.176208,1351
864.29364,1381
864.411194,1378
864.528687,1366
864.646118,1382
864.763611,1301
864.881042,1343
864.998535,1391
865.116028,1396
865.233459,1405
865.350891,1350
865.468384,1337
865.585754,1383
865.703308,1325
865.820679,1402
865.938171,1405
866.055542,1421
866.173035,1374
866.290466,1378
866.407837,1318
866.52533,1397
866.6427,1345
866.760071,1382
866.877563,1394
866.994934,1349
867.112305,1390
867.229736,1377
867.347107,1362
867.464539,1390
867.58197,1378
867.699341,1382
867.81665,1397
867.934082,1388
868.051453,1365
868.168823,1386
868.286194,1338
868.403564,1400
868.520935,1379
868.638306,1385
868.755676,1391
868.872986,1329
868.990295,1356
869.107727,1409
869.225037,1386
869.342346,1376
869.459717,1394
869.577026,1356
869.694336,1367
869.811707,1386
869.929016,1375
870.046326,1376
870.163635,1389
870.280945,1350
870.398254,1390
870.515564,1353
870.632812,1356
870.750183,1390
870.867432,1383
870.984741,1363
871.102051,1374
871.219299,1328
871.336609,1370
871.453918,1371
871.571106,1375
871.688416,1371
871.805664,1343
871.922852,1335
872.040222,1381
872.157471,1353
872.274719,1400
872.391968,1394
872.509155,1404
872.626465,1344
872.743652,1373
872.860962,1372
872.978149,1373
873.095337,1403
873.212646,1339
873.329834,1378
873.44696,1364
873.564209,1365
873.681396,1376
873.798645,1324
873.915894,1388
874.03302,1346
874.150208,1383
874.267456,1357
874.384583,1340
874.501831,1334
874.618958,1368
874.736145,1333
874.853333,1374
874.970459,1376
875.087646,1372
875.204834,1382
875.32196,1401
875.439148,1386
875.556274,1402
875.673401,1384
875.790527,1403
875.907715,1398
876.024841,1403
876.141968,1362
876.259094,1376
876.376282,1372
876.493347,1411
876.610474,1364
876.7276,1346
876.844727,1363
876.961853,1392
877.078918,1368
877.195984,1374
877.313171,1384
877.430237,1385
877.547302,1403
877.664368,1414
877.781433,1392
877.898499,1413
878.015625,1335
878.13269,1400
878.249695,1400
878.366821,1310
878.483887,1433
878.600952,1427
878.717957,1341
878.834961,1407
878.952087,1410
879.069092,1377
879.186157,1405
879.303162,1401
879.420227,1405
879.537231,1390
879.654236,1373
879.77124,1384
879.888306,1394
880.005249,1403
880.122314,1371
880.239319,1396
880.356323,1354
880.473328,1410
880.590271,1386
880.707275,1377
880.824341,1405
880.941284,1425
881.058228,1381
881.175232,1423
881.292236,1426
881.40918,1367
881.526123,1430
881.643066,1358
881.760071,1403
881.877014,1423
881.993958,1393
882.11084,1430
882.227783,1434
882.344727,1369
882.46167,1416
882.578613,1400
882.695618,1366
882.812439,1378
882.929382,1414
883.046326,1424
883.163208,1378
883.280151,1411
883.397034,1392
883.513916,1403
883.630798,1382
883.747742,1432
883.864563,1436
883.981506,1389
884.098389,1405
884.21521,1444
884.332153,1446
884.448975,1391
884.565796,1416
884.682678,1401
884.7995,1397
884.916443,1424
885.033264,1427
885.150085,1448
885.266968,1415
885.383789,1435
885.500671,1400
885.617493,1395
885.734314,1415
885.851196,1423
885.967896,1409
886.084717,1418
886.201599,1431
886.318359,1435
886.435181,1446
886.552002,1429
886.668762,1453
886.785645,1386
886.902344,1424
887.019165,1461
887.135925,1427
887.252747,1433
887.369446,1422
887.486267,1463
887.603027,1439
887.719788,1414
887.836548,1450
887.953247,1411
888.070068,1451
888.186829,1442
888.303528,1444
888.420288,1422
888.536987,1438
888.653687,1473
888.770447,1349
888.887146,1410
889.003967,1445
889.120667,1428
889.237305,1390
889.354065,1463
889.470703,1457
889.587463,1380
889.704163,1436
889.820862,1461
889.937561,1425
890.054199,1440
890.170837,1447
890.287598,1430
890.404236,1440
890.520874,1446
890.637634,1461
890.754211,1450
890.87085,1461
890.987549,1449
891.104187,1439
891.220886,1417
891.337463,1484
891.454102,1461
891.57074,1457
891.687378,1433
891.804077,1477
891.920654,1464
892.037231,1448
892.15387,1467
892.270447,1455
892.387085,1409
892.503723,1445
892.6203,1436
892.736877,1479
892.853516,1466
892.970032,1461
893.08667,1490
893.203186,1467
893.319763,1481
893.43634,1466
893.552917,1465
893.669556,1476
893.786011,1432
893.902588,1478
894.019165,1457
894.135681,1468
894.252197,1484
894.368835,1470
894.485291,1419
894.601868,1490
894.718384,1433
894.8349,1489
894.951355,1496
895.067932,1470
895.184448,1482
895.300964,1473
895.417419,1490
895.533936,1452
895.650452,1479
895.766907,1488
895.883423,1441
895.999878,1466
896.116333,1471
896.232849,1463
896.349304,1462
896.465759,1483
896.582214,1479
896.698669,1502
896.815125,1433
896.931641,1473
897.048035,1470
897.164551,1498
897.280884,1484
897.397339,1490
897.513794,1432
897.630249,1480
897.746582,1504
897.863098,1479
897.979431,1461
898.095886,1477
898.212341,1496
898.328674,1474
898.445129,1511
898.561462,1474
898.677795,1513
898.794312,1476
898.910645,1462
899.026978,1441
899.143433,1494
899.259766,1490
899.37616,1486
899.492493,1479
899.608765,1472
899.725159,1497
899.841553,1453
899.957947,1465
900.07428,1542
900.190552,1485
900.306946,1463
900.423157,1512
900.53949,1451
900.655884,1521
900.772156,1445
900.888489,1553
901.004822,1497
901.121033,1482
901.237366,1466
901.353699,1486
901.46991,1486
901.586304,1526
901.702515,1460
901.818787,1484
901.93512,1438
902.051331,1516
902.167603,1491
902.283875,1498
902.400085,1488
902.516418,1477
902.632629,1510
902.74884,1486
902.865112,1495
902.981384,1549
903.097595,1482
903.213867,1522
903.330017,1521
903.446289,1503
903.5625,1496
903.67865,1474
903.794922,1534
903.911072,1517
904.027344,1487
904.143494,1509
904.259705,1514
904.375916,1513
904.492065,1526
904.608215,1473
904.724426,1511
904.840576,1502
904.956726,1511
905.072876,1490
905.189087,1443
905.305176,1512
905.421387,1486
905.537537,1545
905.653687,1480
905.769775,1495
905.885925,1533
906.002014,1514
906.118164,1487
906.234314,1528
906.350403,1520
906.466492,1525
906.582642,1487
906.69873,1550
906.814758,1522
906.930908,1550
907.046936,1489
907.163086,1513
907.279175,1512
907.395264,1440
907.511353,1503
907.62738,1459
907.743408,1544
907.859497,1505
907.975525,1527
908.091553,1519
908.207703,1498
908.32373,1529
908.439758,1533
908.555786,1488
908.671814,1505
908.787842,1558
908.90387,1535
909.019775,1534
909.135864,1469
909.251892,1552
909.367859,1535
909.483826,1538
909.599854,1537
909.715881,1507
909.831848,1526
909.947815,1518
910.063782,1509
910.179749,1552
910.295776,1501
910.411743,1557
910.527649,1472
910.643616,1601
910.759583,1501
910.875488,1539
910.991455,1521
911.107361,1486
911.223267,1505
911.339294,1525
911.4552,1532
911.571106,1516
911.687073,1544
911.802979,1540
911.918823,1556
912.034729,1525
912.150635,1485
912.266602,1559
912.382446,1527
912.498352,1480
912.614197,1498
912.730103,1528
912.846008,1504
792.44574,2161
792.56488,2175
792.68396,2165
792.80304,2188
792.92218,2102
793.041199,2063
793.160339,2103
793.279419,2155
793.398499,2068
793.517578,2071
793.636658,2069
793.755737,2055
793.874817,2093
793.993896,2035
794.112976,2030
794.232056,2049
794.351074,2027
794.470215,2030
794.589233,2032
794.708313,2004
794.827393,2033
794.946411,1988
795.065552,1968
795.18457,2015
795.303589,2020
795.422668,1965
795.541687,1995
795.660767,1972
795.779846,1910
795.898865,2012
796.017883,2000
796.136963,1938
796.255981,2015
796.375061,2005
796.49408,1996
796.613037,1930
796.732117,1959
796.851135,1943
796.970154,1909
797.089233,1946
797.208191,1964
797.327271,1949
797.446228,1914
797.565186,1949
797.684265,1972
797.803223,1963
797.922241,1938
798.04126,1912
798.160278,1924
798.279297,1942
798.398315,1962
798.517273,1920
798.636292,1918
798.75531,1902
798.874268,1993
798.993286,1922
799.112244,1881
799.231323,1910
799.350281,1891
799.469238,1963
799.588257,1938
799.707153,1960
799.826111,1953
799.945129,1976
800.064087,1941
800.183044,1965
800.302063,1948
800.421021,1935
800.539978,1953
800.658936,1945
800.777893,1944
800.896912,1945
801.015747,1979
801.134705,1881
801.253723,1980
801.37262,1914
801.491638,1978
801.610535,1982
801.729492,1968
801.84845,2001
801.967407,1996
802.086243,2012
802.205261,2003
802.324158,2009
802.443115,2014
802.562073,2010
802.680969,2025
802.799927,2058
802.918762,2031
803.037659,2007
803.156677,2020
803.275574,2035
803.39447,2074
803.513428,2050
803.632263,1971
803.751221,1973
803.870117,2049
803.989014,2065
804.107971,1995
804.226746,2064
804.345642,2027
804.4646,2027
804.583496,2033
804.702393,2022
804.821228,2011
804.940125,2063
805.059021,2046
805.177917,2058
805.296814,2076
805.415649,2080
805.534546,2076
805.653442,2102
805.772278,2081
805.891113,2145
806.01001,2047
806.128906,2133
806.247742,2063
806.366577,2097
806.485413,2123
806.604309,2129
806.723145,2076
806.84198,2125
806.960876,2110
807.079712,2121
807.198486,2109
807.317383,2034
807.436218,2128
807.554993,2102
807.673889,2090
807.792725,2174
807.91156,2121
808.030396,2153
808.14917,2114
808.268005,2110
808.386841,2144
808.505676,2169
808.624451,2142
808.743286,2186
808.862122,2145
808.980896,2151
809.099731,2162
809.218506,2141
809.337341,2182
809.456116,2153
809.57489,2184
809.693726,2163
809.8125,2194
809.931274,2209
810.050049,2185
810.168884,2178
810.287659,2213
810.406372,2180
810.525269,2142
810.643982,2230
810.762756,2175
810.881531,2209
811.000305,2232
811.11908,2187
811.237854,2223
811.356567,2173
811.475403,2180
811.594116,2215
811.71283,2193
811.831604,2207
811.950378,2185
812.069153,2192
812.187927,2177
812.30658,2231
812.425415,2186
812.544128,2236
812.662781,2201
812.781616,2200
812.900269,2223
813.019043,2209
813.137756,2238
813.256531,2243
813.375244,2173
813.493896,2219
813.612671,2197
813.731384,2234
813.850037,2182
813.96875,2205
814.087524,2203
814.206238,2157
814.324951,2170
814.443604,2154
814.562256,2175
814.68103,2190
814.799683,2124
814.918335,2167
815.037109,2151
815.155762,2158
815.274475,2201
815.393188,2101
815.511841,2137
815.630554,2096
815.749146,2119
815.867859,2077
815.986572,2086
816.105164,2040
816.223877,2072
816.342529,2143
816.461182,2116
816.579895,2105
816.698486,2185
816.817139,2167
816.935791,2185
817.054504,2162
817.173096,2155
817.291748,2067
817.4104,2091
817.529053,1987
817.647644,2026
817.766235,1974
817.884949,1979
818.00354,1887
818.122192,1889
818.240845,1772
818.359436,1825
818.478088,1774
818.59668,1761
818.715271,1742
818.833923,1709
818.952515,1687
819.071106,1704
819.189758,1643
819.30835,1658
819.426941,1619
819.545532,1615
819.664124,1577
819.782715,1579
819.901306,1585
820.019897,1539
820.138489,1533
820.25708,1544
820.375671,1502
820.494202,1539
820.612732,1553
820.731384,1515
820.849915,1552
820.968506,1524
821.087097,1490
821.205627,1520
821.324158,1463
821.442749,1473
821.561279,1484
821.679871,1574
821.798401,1506
821.916931,1520
822.035461,1508
822.154053,1502
822.272583,1445
822.391174,1501
822.509583,1470
822.628174,1521
822.746704,1463
822.865234,1445
822.983765,1472
823.102295,1450
823.220825,1470
823.339294,1492
823.457825,1487
823.576355,1467
823.694824,1468
823.813354,1497
823.931885,1489
824.050354,1472
824.168884,1527
824.287354,1503
824.405823,1501
824.524353,1525
824.642822,1527
824.761353,1534
824.879822,1492
824.998291,1498
825.116699,1490
825.235291,1494
825.353699,1493
825.472168,1438
825.590637,1452
825.709106,1463
825.827576,1447
825.946045,1467
826.064453,1431
826.182983,1465
826.301392,1441
826.4198,1412
826.53833,1439
826.656738,1375
826.775208,1450
826.893677,1402
827.012024,1370
827.130493,1426
827.248962,1371
827.36731,1443
827.485779,1376
827.604248,1381
827.722595,1412
827.841064,1363
827.959412,1372
828.077942,1369
828.196289,1376
828.314636,1346
828.433105,1373
828.551514,1387
828.669861,1383
828.78833,1394
828.906677,1386
829.025085,1407
829.143433,1350
829.261841,1404
829.38031,1423
829.498657,1347
829.617004,1400
829.735413,1385
829.85376,1362
829.972107,1365
830.090515,1375
830.208862,1374
830.327209,1327
830.445557,1356
830.563904,1390
830.682312,1361
830.800659,1365
830.919006,1384
831.037354,1360
831.155701,1354
831.274048,1363
831.392395,1347
831.51062,1373
831.629028,1365
831.747314,1375
831.865662,1343
831.984009,1329
832.102356,1404
832.220642,1343
832.338928,1394
832.457275,1359
832.575623,1341
832.693909,1320
832.812134,1321
832.930481,1362
833.048828,1382
833.167114,1386
833.2854,1383
833.403687,1385
833.521973,1356
833.640259,1378
833.758545,1363
833.876831,1380
833.995056,1363
834.113281,1343
834.231628,1384
834.349915,1387
834.468201,1391
834.586426,1347
834.704651,1348
834.822998,1373
834.941162,1377
835.059448,1357
835.177673,1362
835.295959,1365
835.414246,1385
835.53241,1387
835.650635,1387
835.768921,1369
835.887146,1375
836.005371,1383
836.123596,1388
836.241821,1405
836.360046,1430
836.478271,1426
836.596497,1458
836.714722,1456
836.832886,1461
836.95105,1498
837.069336,1442
837.1875,1468
837.305725,1419
837.423889,1459
837.542053,1451
837.660339,1453
837.778503,1489
837.896667,1428
838.014832,1463
838.132996,1493
838.25116,1446
838.369385,1441
838.487488,1465
838.605713,1467
838.723877,1465
838.84198,1450
838.960205,1452
839.078308,1443
839.196472,1453
839.314636,1441
839.4328,1432
839.550964,1456
839.669067,1404
839.787231,1384
839.905396,1411
840.023499,1429
840.141602,1421
840.259766,1406
840.377869,1425
840.495972,1418
840.614136,1438
840.732239,1431
840.850342,1435
840.968445,1357
841.086548,1382
841.204651,1398
841.322754,1448
841.440918,1352
841.55896,1416
841.677002,1407
841.795166,1384
841.913208,1401
842.031311,1381
842.149353,1373
842.267456,1303
842.385498,1335
842.503601,1363
842.621643,1366
842.739746,1350
842.857788,1349
842.97583,1357
843.093933,1401
843.211975,1325
843.330017,1339
843.44812,1365
843.566101,1318
843.684204,1322
843.802246,1325
843.920227,1348
844.038269,1386
844.156311,1326
844.274292,1343
844.392395,1345
844.510376,1343
844.628357,1299
844.74646,1332
844.864441,1364
844.982422,1335
845.100403,1352
845.218384,1400
845.336426,1328
845.454468,1402
845.572449,1337
845.69043,1396
845.808411,1300
845.926453,1343
846.044373,1339
846.162354,1350
846.280396,1344
846.398315,1323
846.516296,1322
846.634216,1317
846.752197,1339
846.870178,1365
846.988098,1297
847.106079,1374
847.22406,1331
847.34198,1353
847.4599,1335
847.577881,1347
847.695801,1317
847.813782,1364
847.931641,1337
848.049561,1364
848.167603,1328
848.285461,1358
848.403381,1324
848.521362,1336
848.639221,1342
848.75708,1322
848.875,1349
848.99292,1325
849.110901,1357
849.22876,1332
849.34668,1349
849.464539,1326
849.582458,1345
849.700317,1354
849.818176,1347
849.936096,1314
850.053955,1325
850.171875,1360
850.289673,1386
850.407593,1318
850.525452,1349
850.643311,1337
850.761169,1350
850.878967,1351
850.996887,1336
851.114746,1360
851.232544,1353
851.350403,1358
851.468262,1352
851.58606,1318
851.703979,1364
851.821777,1369
851.939636,1344
852.057434,1334
852.175232,1326
852.293091,1368
852.410889,1402
852.528687,1332
852.646545,1328
852.764343,1390
852.88208,1353
852.999939,1332
853.117676,1355
853.235535,1338
853.353271,1326
853.471069,1322
853.588928,1392
853.706604,1375
853.824402,1355
853.9422,1365
854.059998,1311
854.177734,1357
854.295532,1333
854.413269,1386
854.531006,1384
854.648804,1355
854.766541,1383
854.884277,1346
855.002014,1381
855.119751,1378
855.237549,1386
855.355225,1363
855.473022,1406
855.590698,1378
855.708435,1393
855.826172,1384
855.943848,1366
856.061646,1379
856.179321,1368
856.296997,1389
856.414795,1383
856.53241,1385
856.650085,1379
856.767822,1400
856.885559,1370
857.003174,1393
857.120911,1389
857.238586,1403
857.356201,1399
857.473938,1403
857.591614,1360
857.709351,1368
857.826965,1403
857.944641,1366
858.062317,1354
858.179993,1394
858.297668,1380
858.415283,1356
858.532959,1414
858.650574,1383
858.768188,1387
858.885803,1384
859.003479,1332
859.121094,1390
859.23877,1399
859.356384,1388
859.473999,1386
859.591675,1388
859.709229,1375
859.826843,1339
859.944458,1356
860.062012,1386
860.179626,1368
860.297302,1411
860.414856,1424
860.532471,1380
860.650024,1397
860.767639,1349
860.885193,1364
861.002808,1385
861.120361,1332
861.237976,1374
861.35553,1426
861.473022,1378
861.590698,1366
861.708191,1315
861.825745,1412
861.943298,1356
862.060852,1408
862.178406,1372
862.295959,1398
862.413513,1337
862.531006,1360
862.64856,1390
862.766113,1371
862.883667,1388
863.00116,1400
863.118713,1376
863.236206,1382
863.353699,1404
863.471252,1377
863.588745,1384
863.706177,1391
863.82373,1360
863.941162,1382
864.058716,1349
864.176208,1380
864.29364,1399
864.411194,1372
864.528687,1380
864.646118,1374
864.763611,1366
864.881042,1424
864.998535,1370
865.116028,1399
865.233459,1394
865.350891,1385
865.468384,1400
865.585754,1381
865.703308,1413
865.820679,1455
865.938171,1416
866.055542,1394
866.173035,1402
866.290466,1395
866.407837,1406
866.52533,1402
866.6427,1428
866.760071,1364
866.877563,1388
866.994934,1406
867.112305,1413
867.229736,1393
867.347107,1389
867.464539,1424
867.58197,1390
867.699341,1416
867.81665,1407
867.934082,1391
868.051453,1402
868.168823,1398
868.286194,1386
868.403564,1384
868.520935,1394
868.638306,1387
868.755676,1381
868.872986,1434
868.990295,1432
869.107727,1434
869.225037,1377
869.342346,1400
869.459717,1425
869.577026,1366
869.694336,1413
869.811707,1462
869.929016,1365
870.046326,1404
870.163635,1392
870.280945,1411
870.398254,1415
870.515564,1398
870.632812,1399
870.750183,1336
870.867432,1411
870.984741,1393
871.102051,1401
871.219299,1403
871.336609,1371
871.453918,1433
871.571106,1424
871.688416,1411
871.805664,1403
871.922852,1401
872.040222,1418
872.157471,1370
872.274719,1359
872.391968,1414
872.509155,1429
872.626465,1396
872.743652,1367
872.860962,1412
872.978149,1383
873.095337,1416
873.212646,1408
873.329834,1404
873.44696,1405
873.564209,1378
873.681396,1369
873.798645,1410
873.915894,1422
874.03302,1353
874.150208,1372
874.267456,1385
874.384583,1401
874.501831,1388
874.618958,1415
874.736145,1362
874.853333,1363
874.970459,1392
875.087646,1428
875.204834,1427
875.32196,1417
875.439148,1405
875.556274,1392
875.673401,1402
875.790527,1445
875.907715,1415
876.024841,1378
876.141968,1444
876.259094,1395
876.376282,1444
876.493347,1382
876.610474,1411
876.7276,1401
876.844727,1445
876.961853,1384
877.078918,1447
877.195984,1421
877.313171,1399
877.430237,1407
877.547302,1395
877.664368,1406
877.781433,1475
877.898499,1440
878.015625,1396
878.13269,1426
878.249695,1460
878.366821,1383
878.483887,1424
878.600952,1413
878.717957,1436
878.834961,1410
878.952087,1396
879.069092,1420
879.186157,1423
879.303162,1431
879.420227,1405
879.537231,1387
879.654236,1446
879.77124,1431
879.888306,1367
880.005249,1423
880.122314,1413
880.239319,1434
880.356323,1428
880.473328,1400
880.590271,1433
880.707275,1416
880.824341,1459
880.941284,1417
881.058228,1435
881.175232,1398
881.292236,1429
881.40918,1407
881.526123,1413
881.643066,1400
881.760071,1420
881.877014,1432
881.993958,1405
882.11084,1432
882.227783,1394
882.344727,1401
882.46167,1453
882.578613,1428
882.695618,1436
882.812439,1483
882.929382,1417
883.046326,1410
883.163208,1427
883.280151,1427
883.397034,1433
883.513916,1469
883.630798,1455
883.747742,1474
883.864563,1474
883.981506,1441
884.098389,1420
884.21521,1417
884.332153,1450
884.448975,1422
884.565796,1447
884.682678,1417
884.7995,1456
884.916443,1426
885.033264,1418
885.150085,1466
885.266968,1415
885.383789,1449
885.500671,1474
885.617493,1435
885.734314,1421
885.851196,1453
885.967896,1455
886.084717,1446
886.201599,1421
886.318359,1416
886.435181,1461
886.552002,1464
886.668762,1453
886.785645,1478
886.902344,1482
887.019165,1485
887.135925,1428
887.252747,1470
887.369446,1435
887.486267,1467
887.603027,1458
887.719788,1442
887.836548,1445
887.953247,1488
888.070068,1460
888.186829,1443
888.303528,1469
888.420288,1477
888.536987,1457
888.653687,1475
888.770447,1484
888.887146,1451
889.003967,1506
889.120667,1481
889.237305,1483
889.354065,1495
889.470703,1485
889.587463,1425
889.704163,1484
889.820862,1457
889.937561,1421
890.054199,1457
890.170837,1498
890.287598,1468
890.404236,1474
890.520874,1493
890.637634,1445
890.754211,1459
890.87085,1493
890.987549,1472
891.104187,1484
891.220886,1488
891.337463,1465
891.454102,1520
891.57074,1472
891.687378,1468
891.804077,1464
891.920654,1482
892.037231,1484
892.15387,1508
892.270447,1445
892.387085,1516
892.503723,1533
892.6203,1477
892.736877,1491
892.853516,1454
892.970032,1481
893.08667,1491
893.203186,1484
893.319763,1476
893.43634,1514
893.552917,1485
893.669556,1524
893.786011,1491
893.902588,1485
894.019165,1521
894.135681,1479
894.252197,1496
894.368835,1487
894.485291,1509
894.601868,1472
894.718384,1506
894.8349,1499
894.951355,1510
895.067932,1490
895.184448,1486
895.300964,1509
895.417419,1528
895.533936,1507
895.650452,1495
895.766907,1470
895.883423,1562
895.999878,1480
896.116333,1490
896.232849,1459
896.349304,1458
896.465759,1523
896.582214,1489
896.698669,1523
896.815125,1503
896.931641,1450
897.048035,1511
897.164551,1481
897.280884,1531
897.397339,1531
897.513794,1498
897.630249,1542
897.746582,1494
897.863098,1494
897.979431,1526
898.095886,1510
898.212341,1502
898.328674,1496
898.445129,1543
898.561462,1474
898.677795,1525
898.794312,1547
898.910645,1483
899.026978,1544
899.143433,1517
899.259766,1480
899.37616,1495
899.492493,1511
899.608765,1532
899.725159,1531
899.841553,1505
899.957947,1524
900.07428,1538
900.190552,1499
900.306946,1515
900.423157,1533
900.53949,1537
900.655884,1530
900.772156,1534
900.888489,1495
901.004822,1539
901.121033,1495
901.237366,1516
901.353699,1504
901.46991,1528
901.586304,1533
901.702515,1524
901.818787,1504
901.93512,1545
902.051331,1590
902.167603,1501
902.283875,1544
902.400085,1532
902.516418,1532
902.632629,1525
902.74884,1522
902.865112,1524
902.981384,1516
903.097595,1521
903.213867,1547
903.330017,1511
903.446289,1509
903.5625,1582
903.67865,1528
903.794922,1530
903.911072,1513
904.027344,1518
904.143494,1566
904.259705,1514
904.375916,1532
904.492065,1545
904.608215,1557
904.724426,1527
904.840576,1513
904.956726,1542
905.072876,1557
905.189087,1520
905.305176,1564
905.421387,1542
905.537537,1557
905.653687,1553
905.769775,1556
905.885925,1557
906.002014,1505
906.118164,1560
906.234314,1563
906.350403,1603
906.466492,1532
906.582642,1538
906.69873,1556
906.814758,1542
906.930908,1536
907.046936,1549
907.163086,1563
907.279175,1541
907.395264,1557
907.511353,1516
907.62738,1572
907.743408,1608
907.859497,1538
907.975525,1543
908.091553,1538
908.207703,1521
908.32373,1564
908.439758,1554
908.555786,1567
908.671814,1518
908.787842,1552
908.90387,1562
909.019775,1568
909.135864,1515
909.251892,1564
909.367859,1592
909.483826,1547
909.599854,1553
909.715881,1561
909.831848,1509
909.947815,1545
910.063782,1549
910.179749,1594
910.295776,1504
910.411743,1612
910.527649,1579
910.643616,1576
910.759583,1504
910.875488,1566
910.991455,1595
911.107361,1581
911.223267,1566
911.339294,1607
911.4552,1588
911.571106,1570
911.687073,1577
911.802979,1589
911.918823,1545
912.034729,1560
912.150635,1568
912.266602,1573
912.382446,1545
912.498352,1581
912.614197,1529
912.730103,1579
912.846008,1546
792.44574,2235
792.56488,2174
792.68396,2206
792.80304,2165
792.92218,2139
793.041199,2107
793.160339,2127
793.279419,2090
793.398499,2091
793.517578,2075
793.636658,2085
793.755737,2102
793.874817,2109
793.993896,2099
794.112976,2049
794.232056,2045
794.351074,2032
794.470215,2026
794.589233,2032
794.708313,2000
794.827393,2064
794.946411,1994
795.065552,1998
795.18457,2030
795.303589,2010
795.422668,2002
795.541687,1993
795.660767,2007
795.779846,1979
795.898865,1957
796.017883,1990
796.136963,1976
796.255981,1994
796.375061,2059
796.49408,1937
796.613037,1982
796.732117,1925
796.851135,2024
796.970154,1976
797.089233,1918
797.208191,1949
797.327271,1943
797.446228,1972
797.565186,1989
797.684265,1946
797.803223,1958
797.922241,1931
798.04126,1969
798.160278,1934
798.279297,1941
798.398315,1981
798.517273,1928
798.636292,1962
798.75531,1974
798.874268,1961
798.993286,1953
799.112244,1936
799.231323,1958
799.350281,1967
799.469238,1950
799.588257,1977
799.707153,1936
799.826111,1973
799.945129,1987
800.064087,1984
800.183044,1964
800.302063,1956
800.421021,1985
800.539978,1981
800.658936,1926
800.777893,1928
800.896912,1958
801.015747,1937
801.134705,1939
801.253723,1987
801.37262,1958
801.491638,2004
801.610535,2004
801.729492,2002
801.84845,1970
801.967407,2005
802.086243,2016
802.205261,2002
802.324158,1941
802.443115,2001
802.562073,1986
802.680969,1976
802.799927,2073
802.918762,2027
803.037659,1967
803.156677,2032
803.275574,2016
803.39447,2060
803.513428,2037
803.632263,2024
803.751221,2003
803.870117,2046
803.989014,2076
804.107971,2026
804.226746,2088
804.345642,2092
804.4646,2077
804.583496,2053
804.702393,2106
804.821228,2073
804.940125,2120
805.059021,2084
805.177917,2041
805.296814,2159
805.415649,2037
805.534546,2072
805.653442,2104
805.772278,2141
805.891113,2115
806.01001,2098
806.128906,2086
806.247742,2135
806.366577,2130
806.485413,2103
806.604309,2090
806.723145,2117
806.84198,2123
806.960876,2134
807.079712,2089
807.198486,2138
807.317383,2154
807.436218,2140
807.554993,2160
807.673889,2202
807.792725,2126
807.91156,2182
808.030396,2096
808.14917,2146
808.268005,2126
808.386841,2156
808.505676,2157
808.624451,2136
808.743286,2163
808.862122,2141
808.980896,2138
809.099731,2166
809.218506,2175
809.337341,2244
809.456116,2160
809.57489,2184
809.693726,2219
809.8125,2194
809.931274,2230
810.050049,2261
810.168884,2192
810.287659,2222
810.406372,2219
810.525269,2216
810.643982,2238
810.762756,2163
810.881531,2175
811.000305,2203
811.11908,2185
811.237854,2237
811.356567,2225
811.475403,2206
811.594116,2252
811.71283,2187
811.831604,2285
811.950378,2225
812.069153,2223
812.187927,2254
812.30658,2225
812.425415,2223
812.544128,2223
812.662781,2193
812.781616,2238
812.900269,2206
813.019043,2201
813.137756,2212
813.256531,2240
813.375244,2194
813.493896,2230
813.612671,2190
813.731384,2214
813.850037,2226
813.96875,2193
814.087524,2225
814.206238,2135
814.324951,2234
814.443604,2171
814.562256,2247
814.68103,2128
814.799683,2190
814.918335,2196
815.037109,2208
815.155762,2191
815.274475,2211
815.393188,2168
815.511841,2154
815.630554,2163
815.749146,2124
815.867859,2068
815.986572,2119
816.105164,2034
816.223877,2130
816.342529,2064
816.461182,2087
816.579895,2121
816.698486,2132
816.817139,2147
816.935791,2154
817.054504,2126
817.173096,2186
817.291748,2056
817.4104,2125
817.529053,2095
817.647644,2020
817.766235,1983
817.884949,1964
818.00354,1900
818.122192,1910
818.240845,1842
818.359436,1816
818.478088,1817
818.59668,1804
818.715271,1719
818.833923,1742
818.952515,1660
819.071106,1709
819.189758,1699
819.30835,1625
819.426941,1634
819.545532,1667
819.664124,1585
819.782715,1614
819.901306,1610
820.019897,1576
820.138489,1593
820.25708,1592
820.375671,1583
820.494202,1582
820.612732,1593
820.731384,1574
820.849915,1477
820.968506,1554
821.087097,1535
821.205627,1541
821.324158,1568
821.442749,1493
821.561279,1523
821.679871,1491
821.798401,1540
821.916931,1521
822.035461,1525
822.154053,1484
822.272583,1494
822.391174,1485
822.509583,1490
822.628174,1514
822.746704,1456
822.865234,1483
822.983765,1456
823.102295,1460
823.220825,1486
823.339294,1462
823.457825,1493
823.576355,1483
823.694824,1505
823.813354,1477
823.931885,1502
824.050354,1534
824.168884,1521
824.287354,1563
824.405823,1502
824.524353,1531
824.642822,1474
824.761353,1496
824.879822,1523
824.998291,1492
825.116699,1506
825.235291,1520
825.353699,1509
825.472168,1463
825.590637,1478
825.709106,1470
825.827576,1447
825.946045,1414
826.064453,1424
826.182983,1475
826.301392,1430
826.4198,1422
826.53833,1417
826.656738,1406
826.775208,1428
826.893677,1400
827.012024,1417
827.130493,1448
827.248962,1392
827.36731,1423
827.485779,1436
827.604248,1413
827.722595,1401
827.841064,1387
827.959412,1361
828.077942,1416
828.196289,1373
828.314636,1360
828.433105,1440
828.551514,1376
828.669861,1398
828.78833,1399
828.906677,1427
829.025085,1434
829.143433,1418
829.261841,1388
829.38031,1369
829.498657,1395
829.617004,1391
829.735413,1380
829.85376,1393
829.972107,1394
830.090515,1401
830.208862,1379
830.327209,1359
830.445557,1385
830.563904,1429
830.682312,1411
830.800659,1377
830.919006,1353
831.037354,1368
831.155701,1385
831.274048,1357
831.392395,1377
831.51062,1378
831.629028,1407
831.747314,1380
831.865662,1401
831.984009,1362
832.102356,1397
832.220642,1397
832.338928,1344
832.457275,1391
832.575623,1344
832.693909,1331
832.812134,1352
832.930481,1408
833.048828,1371
833.167114,1416
833.2854,1401
833.403687,1364
833.521973,1380
833.640259,1366
833.758545,1387
833.876831,1407
833.995056,1340
834.113281,1376
834.231628,1404
834.349915,1376
834.468201,1397
834.586426,1419
834.704651,1367
834.822998,1411
834.941162,1382
835.059448,1376
835.177673,1385
835.295959,1389
835.414246,1389
835.53241,1378
835.650635,1403
835.768921,1390
835.887146,1417
836.005371,1403
836.123596,1405
836.241821,1398
836.360046,1424
836.478271,1465
836.596497,1413
836.714722,1454
836.832886,1441
836.95105,1486
837.069336,1467
837.1875,1489
837.305725,1477
837.423889,1447
837.542053,1454
837.660339,1480
837.778503,1466
837.896667,1461
838.014832,1480
838.132996,1467
838.25116,1464
838.369385,1459
838.487488,1471
838.605713,1491
838.723877,1459
838.84198,1470
838.960205,1492
839.078308,1446
839.196472,1466
839.314636,1456
839.4328,1433
839.550964,1467
839.669067,1468
839.787231,1477
839.905396,1426
840.023499,1431
840.141602,1436
840.259766,1463
840.377869,1428
840.495972,1403
840.614136,1414
840.732239,1448
840.850342,1422
840.968445,1422
841.086548,1381
841.204651,1423
841.322754,1423
841.440918,1391
841.55896,1384
841.677002,1370
841.795166,1391
841.913208,1431
842.031311,1418
842.149353,1355
842.267456,1364
842.385498,1365
842.503601,1365
842.621643,1380
842.739746,1379
842.857788,1337
842.97583,1376
843.093933,1386
843.211975,1357
843.330017,1363
843.44812,1356
843.566101,1361
843.684204,1332
843.802246,1345
843.920227,1349
844.038269,1378
844.156311,1368
844.274292,1328
844.392395,1350
844.510376,1394
844.628357,1350
844.74646,1328
844.864441,1307
844.982422,1361
845.100403,1349
845.218384,1357
845.336426,1360
845.454468,1380
845.572449,1320
845.69043,1364
845.808411,1359
845.926453,1353
846.044373,1336
846.162354,1344
846.280396,1341
846.398315,1338
846.516296,1351
846.634216,1306
846.752197,1361
846.870178,1328
846.988098,1356
847.106079,1329
847.22406,1361
847.34198,1358
847.4599,1342
847.577881,1374
847.695801,1347
847.813782,1307
847.931641,1333
848.049561,1350
848.167603,1333
848.285461,1356
848.403381,1361
848.521362,1336
848.639221,1324
848.75708,1368
848.875,1359
848.99292,1340
849.110901,1363
849.22876,1373
849.34668,1338
849.464539,1348
849.582458,1324
849.700317,1320
849.818176,1340
849.936096,1331
850.053955,1378
850.171875,1321
850.289673,1380
850.407593,1335
850.525452,1373
850.643311,1306
850.761169,1373
850.878967,1301
850.996887,1362
851.114746,1356
851.232544,1382
851.350403,1331
851.468262,1374
851.58606,1343
851.703979,1411
851.821777,1397
851.939636,1342
852.057434,1371
852.175232,1360
852.293091,1346
852.410889,1348
852.528687,1343
852.646545,1359
852.764343,1369
852.88208,1383
852.999939,1415
853.117676,1339
853.235535,1343
853.353271,1366
853.471069,1381
853.588928,1341
853.706604,1383
853.824402,1359
853.9422,1393
854.059998,1396
854.177734,1388
854.295532,1369
854.413269,1374
854.531006,1393
854.648804,1343
854.766541,1375
854.884277,1388
855.002014,1364
855.119751,1374
855.237549,1430
855.355225,1372
855.473022,1375
855.590698,1394
855.708435,1404
855.826172,1360
855.943848,1421
856.061646,1376
856.179321,1392
856.296997,1412
856.414795,1373
856.53241,1396
856.650085,1371
856.767822,1404
856.885559,1403
857.003174,1405
857.120911,1344
857.238586,1411
857.356201,1407
857.473938,1393
857.591614,1414
857.709351,1418
857.826965,1424
857.944641,1383
858.062317,1404
858.179993,1394
858.297668,1366
858.415283,1420
858.532959,1386
858.650574,1405
858.768188,1403
858.885803,1399
859.003479,1379
859.121094,1411
859.23877,1364
859.356384,1394
859.473999,1386
859.591675,1367
859.709229,1377
859.826843,1373
859.944458,1375
860.062012,1362
860.179626,1370
860.297302,1398
860.414856,1384
860.532471,1371
860.650024,1363
860.767639,1368
860.885193,1378
861.002808,1397
861.120361,1398
861.237976,1336
861.35553,1398
861.473022,1379
861.590698,1399
861.708191,1372
861.825745,1380
861.943298,1427
862.060852,1398
862.178406,1350
862.295959,1408
862.413513,1376
862.531006,1408
862.64856,1379
862.766113,1338
862.883667,1400
863.00116,1407
863.118713,1369
863.236206,1373
863.353699,1359
863.471252,1365
863.588745,1416
863.706177,1386
863.82373,1363
863.941162,1406
864.058716,1422
864.176208,1406
864.29364,1407
864.411194,1402
864.528687,1391
864.646118,1388
864.763611,1445
864.881042,1365
864.998535,1394
865.116028,1351
865.233459,1394
865.350891,1405
865.468384,1397
865.585754,1377
865.703308,1418
865.820679,1395
865.938171,1391
866.055542,1410
866.173035,1407
866.290466,1398
866.407837,1426
866.52533,1415
866.6427,1372
866.760071,1450
866.877563,1422
866.994934,1397
867.112305,1379
867.229736,1415
867.347107,1374
867.464539,1408
867.58197,1408
867.699341,1414
867.81665,1418
867.934082,1414
868.051453,1399
868.168823,1382
868.286194,1442
868.403564,1415
868.520935,1412
868.638306,1421
868.755676,1425
868.872986,1436
868.990295,1418
869.107727,1437
869.225037,1411
869.342346,1385
869.459717,1400
869.577026,1367
869.694336,1402
869.811707,1429
869.929016,1433
870.046326,1424
870.163635,1428
870.280945,1418
870.398254,1415
870.515564,1404
870.632812,1419
870.750183,1416
870.867432,1422
870.984741,1405
871.102051,1394
871.219299,1456
871.336609,1427
871.453918,1390
871.571106,1406
871.688416,1409
871.805664,1437
871.922852,1400
872.040222,1435
872.157471,1438
872.274719,1419
872.391968,1403
872.509155,1350
872.626465,1417
872.743652,1452
872.860962,1434
872.978149,1378
873.095337,1411
873.212646,1378
873.329834,1386
873.44696,1426
873.564209,1429
873.681396,1412
873.798645,1407
873.915894,1398
874.03302,1401
874.150208,1423
874.267456,1389
874.384583,1419
874.501831,1431
874.618958,1390
874.736145,1432
874.853333,1458
874.970459,1433
875.087646,1398
875.204834,1420
875.32196,1379
875.439148,1375
875.556274,1377
875.673401,1413
875.790527,1420
875.907715,1452
876.024841,1389
876.141968,1419
876.259094,1413
876.376282,1422
876.493347,1419
876.610474,1376
876.7276,1401
876.844727,1428
876.961853,1407
877.078918,1393
877.195984,1418
877.313171,1426
877.430237,1413
877.547302,1445
877.664368,1434
877.781433,1449
877.898499,1466
878.015625,1440
878.13269,1457
878.249695,1385
878.366821,1440
878.483887,1430
878.600952,1397
878.717957,1391
878.834961,1410
878.952087,1417
879.069092,1407
879.186157,1426
879.303162,1482
879.420227,1411
879.537231,1438
879.654236,1377
879.77124,1453
879.888306,1453
880.005249,1491
880.122314,1466
880.239319,1452
880.356323,1403
880.473328,1479
880.590271,1435
880.707275,1415
880.824341,1451
880.941284,1437
881.058228,1452
881.175232,1463
881.292236,1421
881.40918,1453
881.526123,1454
881.643066,1387
881.760071,1431
881.877014,1471
881.993958,1466
882.11084,1448
882.227783,1422
882.344727,1392
882.46167,1428
882.578613,1378
882.695618,1450
882.812439,1408
882.929382,1452
883.046326,1445
883.163208,1431
883.280151,1438
883.397034,1422
883.513916,1445
883.630798,1484
883.747742,1441
883.864563,1461
883.981506,1427
884.098389,1418
884.21521,1471
884.332153,1451
884.448975,1457
884.565796,1456
884.682678,1440
884.7995,1437
884.916443,1467
885.033264,1465
885.150085,1443
885.266968,1442
885.383789,1413
885.500671,1462
885.617493,1445
885.734314,1466
885.851196,1444
885.967896,1487
886.084717,1455
886.201599,1493
886.318359,1421
886.435181,1512
886.552002,1447
886.668762,1448
886.785645,1460
886.902344,1479
887.019165,1458
887.135925,1436
887.252747,1474
887.369446,1410
887.486267,1494
887.603027,1452
887.719788,1466
887.836548,1499
887.953247,1467
888.070068,1476
888.186829,1461
888.303528,1453
888.420288,1446
888.536987,1486
888.653687,1463
888.770447,1479
888.887146,1424
889.003967,1471
889.120667,1461
889.237305,1506
889.354065,1485
889.470703,1501
889.587463,1443
889.704163,1482
889.820862,1465
889.937561,1519
890.054199,1469
890.170837,1432
890.287598,1486
890.404236,1437
890.520874,1496
890.637634,1476
890.754211,1476
890.87085,1527
890.987549,1476
891.104187,1484
891.220886,1492
891.337463,1507
891.454102,1477
891.57074,1532
891.687378,1468
891.804077,1521
891.920654,1489
892.037231,1497
892.15387,1500
892.270447,1496
892.387085,1537
892.503723,4324
892.6203,1483
892.736877,1470
892.853516,1491
892.970032,1520
893.08667,1475
893.203186,1479
893.319763,1514
893.43634,1505
893.552917,1476
893.669556,1491
893.786011,1488
893.902588,1506
894.019165,1548
894.135681,1499
894.252197,1523
894.368835,1474
894.485291,1533
894.601868,1479
894.718384,1501
894.8349,1484
894.951355,1509
895.067932,1535
895.184448,1493
895.300964,1516
895.417419,1495
895.533936,1536
895.650452,1497
895.766907,1532
895.883423,1534
895.999878,1535
896.116333,1521
896.232849,1486
896.349304,1473
896.465759,1485
896.582214,1470
896.698669,1507
896.815125,1575
896.931641,1538
897.048035,1475
897.164551,1506
897.280884,1528
897.397339,1527
897.513794,1504
897.630249,1547
897.746582,1516
897.863098,1513
897.979431,1519
898.095886,1526
898.212341,1503
898.328674,1522
898.445129,1527
898.561462,1506
898.677795,1522
898.794312,1547
898.910645,1516
899.026978,1534
899.143433,1555
899.259766,1537
899.37616,1542
899.492493,1516
899.608765,1474
899.725159,1521
899.841553,1549
899.957947,1552
900.07428,1500
900.190552,1524
900.306946,1588
900.423157,1523
900.53949,1562
900.655884,1493
900.772156,1515
900.888489,1533
901.004822,1516
901.121033,1562
901.237366,1489
901.353699,1508
901.46991,1509
901.586304,1534
901.702515,1499
901.818787,1514
901.93512,1547
902.051331,1567
902.167603,1549
902.283875,1564
902.400085,1506
902.516418,1531
902.632629,1515
902.74884,1531
902.865112,1561
902.981384,1551
903.097595,1564
903.213867,1548
903.330017,1585
903.446289,1542
903.5625,1525
903.67865,1534
903.794922,1588
903.911072,1565
904.027344,1525
904.143494,1604
904.259705,1547
904.375916,1528
904.492065,1516
904.608215,1540
904.724426,1571
904.840576,1530
904.956726,1544
905.072876,1569
905.189087,1531
905.305176,1553
905.421387,1519
905.537537,1562
905.653687,1586
905.769775,1562
905.885925,1562
906.002014,1521
906.118164,1558
906.234314,1582
906.350403,1546
906.466492,1579
906.582642,1519
906.69873,1557
906.814758,1626
906.930908,1530
907.046936,1567
907.163086,1573
907.279175,1555
907.395264,1554
907.511353,1571
907.62738,1554
907.743408,1570
907.859497,1564
907.975525,1595
908.091553,1552
908.207703,1619
908.32373,1591
908.439758,1578
908.555786,1600
908.671814,1565
908.787842,1591
908.90387,1567
909.019775,1546
909.135864,1540
909.251892,1559
909.367859,1530
909.483826,1606
909.599854,1561
909.715881,1551
909.831848,1552
909.947815,1575
910.063782,1553
910.179749,1568
910.295776,1529
910.411743,1584
910.527649,1537
910.643616,1568
910.759583,1570
910.875488,1588
910.991455,1530
911.107361,1589
911.223267,1581
911.339294,1604
911.4552,1549
911.571106,1562
911.687073,1578
911.802979,1606
911.918823,1550
912.034729,1593
912.150635,1578
912.266602,1545
912.382446,1624
912.498352,1569
912.614197,1569
912.730103,1530
912.846008,1579
