792.44574,1772
792.56488,1712
792.68396,1774
792.80304,1736
792.92218,1667
793.041199,1666
793.160339,1655
793.279419,1703
793.398499,1705
793.517578,1687
793.636658,1583
793.755737,1675
793.874817,1632
793.993896,1621
794.112976,1684
794.232056,1606
794.351074,1631
794.470215,1603
794.589233,1553
794.708313,1634
794.827393,1591
794.946411,1607
795.065552,1569
795.18457,1609
795.303589,1599
795.422668,1567
795.541687,1618
795.660767,1596
795.779846,1557
795.898865,1580
796.017883,1546
796.136963,1545
796.255981,1573
796.375061,1545
796.49408,1536
796.613037,1527
796.732117,1566
796.851135,1518
796.970154,1575
797.089233,1519
797.208191,1524
797.327271,1511
797.446228,1556
797.565186,1534
797.684265,1538
797.803223,1536
797.922241,1517
798.04126,1513
798.160278,1536
798.279297,1515
798.398315,1534
798.517273,1539
798.636292,1524
798.75531,1530
798.874268,1496
798.993286,1519
799.112244,1455
799.231323,1517
799.350281,1466
799.469238,1516
799.588257,1531
799.707153,1500
799.826111,1473
799.945129,1504
800.064087,1471
800.183044,1540
800.302063,1513
800.421021,1504
800.539978,1503
800.658936,1493
800.777893,1517
800.896912,1491
801.015747,1510
801.134705,1486
801.253723,1515
801.37262,1491
801.491638,1508
801.610535,1485
801.729492,1446
801.84845,1514
801.967407,1474
802.086243,1480
802.205261,1479
802.324158,1480
802.443115,1505
802.562073,1465
802.680969,1443
802.799927,1481
802.918762,1545
803.037659,1454
803.156677,1483
803.275574,1437
803.39447,1483
803.513428,1479
803.632263,1495
803.751221,1460
803.870117,1449
803.989014,1480
804.107971,1467
804.226746,1471
804.345642,1429
804.4646,1454
804.583496,1463
804.702393,1429
804.821228,1479
804.940125,1457
805.059021,1488
805.177917,1513
805.296814,1456
805.415649,1500
805.534546,1461
805.653442,1472
805.772278,1453
805.891113,1445
806.01001,1486
806.128906,1467
806.247742,1484
806.366577,1444
806.485413,1471
806.604309,1447
806.723145,1495
806.84198,1500
806.960876,1472
807.079712,1457
807.198486,1482
807.317383,1507
807.436218,1431
807.554993,1468
807.673889,1446
807.792725,1471
807.91156,1475
808.030396,1455
808.14917,1423
808.268005,1477
808.386841,1436
808.505676,1464
808.624451,1434
808.743286,1451
808.862122,1496
808.980896,1459
809.099731,1463
809.218506,1460
809.337341,1471
809.456116,1494
809.57489,1452
809.693726,1470
809.8125,1471
809.931274,1458
810.050049,1473
810.168884,1441
810.287659,1489
810.406372,1475
810.525269,1504
810.643982,1444
810.762756,1444
810.881531,1490
811.000305,1424
811.11908,1467
811.237854,1454
811.356567,1496
811.475403,1469
811.594116,1427
811.71283,1507
811.831604,1500
811.950378,1427
812.069153,1480
812.187927,1455
812.30658,1442
812.425415,1427
812.544128,1474
812.662781,1446
812.781616,1422
812.900269,1444
813.019043,1427
813.137756,1448
813.256531,1417
813.375244,1433
813.493896,1414
813.612671,1484
813.731384,1449
813.850037,1412
813.96875,1433
814.087524,1445
814.206238,1436
814.324951,1437
814.443604,1405
814.562256,1454
814.68103,1472
814.799683,1400
814.918335,1438
815.037109,1440
815.155762,1440
815.274475,1434
815.393188,1448
815.511841,1461
815.630554,1453
815.749146,1425
815.867859,1388
815.986572,1435
816.105164,1414
816.223877,1440
816.342529,1392
816.461182,1436
816.579895,1435
816.698486,1416
816.817139,1445
816.935791,1419
817.054504,1455
817.173096,1450
817.291748,1395
817.4104,1416
817.529053,1404
817.647644,1382
817.766235,1413
817.884949,1399
818.00354,1388
818.122192,1405
818.240845,1399
818.359436,1368
818.478088,1409
818.59668,1355
818.715271,1398
818.833923,1385
818.952515,1366
819.071106,1389
819.189758,1361
819.30835,1412
819.426941,1340
819.545532,1383
819.664124,1361
819.782715,1401
819.901306,1396
820.019897,1385
820.138489,1382
820.25708,1415
820.375671,1401
820.494202,1363
820.612732,1358
820.731384,1375
820.849915,1343
820.968506,1394
821.087097,1338
821.205627,1381
821.324158,1384
821.442749,1398
821.561279,1348
821.679871,1357
821.798401,1402
821.916931,1355
822.035461,1366
822.154053,1338
822.272583,1337
822.391174,1343
822.509583,1317
822.628174,1366
822.746704,1342
822.865234,1349
822.983765,1328
823.102295,1310
823.220825,1311
823.339294,1349
823.457825,1345
823.576355,1367
823.694824,1342
823.813354,1355
823.931885,1349
824.050354,1313
824.168884,1340
824.287354,1348
824.405823,1332
824.524353,1311
824.642822,1365
824.761353,1314
824.879822,1342
824.998291,1351
825.116699,1320
825.235291,1332
825.353699,1342
825.472168,1322
825.590637,1342
825.709106,1317
825.827576,1345
825.946045,1318
826.064453,1301
826.182983,1312
826.301392,1338
826.4198,1359
826.53833,1336
826.656738,1315
826.775208,1350
826.893677,1295
827.012024,1333
827.130493,1319
827.248962,1322
827.36731,1359
827.485779,1378
827.604248,1332
827.722595,1301
827.841064,1326
827.959412,1361
828.077942,1311
828.196289,1305
828.314636,1343
828.433105,1288
828.551514,1331
828.669861,1335
828.78833,1297
828.906677,1331
829.025085,1324
829.143433,1288
829.261841,1292
829.38031,1273
829.498657,1261
829.617004,1290
829.735413,1323
829.85376,1315
829.972107,1315
830.090515,1308
830.208862,1286
830.327209,1308
830.445557,1312
830.563904,1299
830.682312,1326
830.800659,1315
830.919006,1319
831.037354,1295
831.155701,1295
831.274048,1283
831.392395,1305
831.51062,1313
831.629028,1292
831.747314,1322
831.865662,1316
831.984009,1280
832.102356,1270
832.220642,1286
832.338928,1289
832.457275,1305
832.575623,1288
832.693909,1333
832.812134,1302
832.930481,1323
833.048828,1303
833.167114,1325
833.2854,1318
833.403687,1320
833.521973,1347
833.640259,1286
833.758545,1309
833.876831,1300
833.995056,1294
834.113281,1326
834.231628,1287
834.349915,1276
834.468201,1310
834.586426,1301
834.704651,1320
834.822998,1315
834.941162,1269
835.059448,1256
835.177673,1320
835.295959,1320
835.414246,1312
835.53241,1299
835.650635,1343
835.768921,1266
835.887146,1285
836.005371,1299
836.123596,1326
836.241821,1316
836.360046,1284
836.478271,1320
836.596497,1334
836.714722,1283
836.832886,1354
836.95105,1265
837.069336,1315
837.1875,1303
837.305725,1301
837.423889,1266
837.542053,1335
837.660339,1309
837.778503,1258
837.896667,1324
838.014832,1295
838.132996,1306
838.25116,1284
838.369385,1334
838.487488,1307
838.605713,1317
838.723877,1307
838.84198,1300
838.960205,1278
839.078308,1315
839.196472,1277
839.314636,1264
839.4328,1313
839.550964,1281
839.669067,1323
839.787231,1307
839.905396,1342
840.023499,1295
840.141602,1296
840.259766,1301
840.377869,1299
840.495972,1322
840.614136,1316
840.732239,1289
840.850342,1291
840.968445,1309
841.086548,1292
841.204651,1279
841.322754,1284
841.440918,1308
841.55896,1323
841.677002,1274
841.795166,1280
841.913208,1291
842.031311,1326
842.149353,1350
842.267456,1290
842.385498,1329
842.503601,1311
842.621643,1317
842.739746,1316
842.857788,1312
842.97583,1334
843.093933,1343
843.211975,1307
843.330017,1252
843.44812,1292
843.566101,1327
843.684204,1290
843.802246,1287
843.920227,1303
844.038269,1290
844.156311,1310
844.274292,1308
844.392395,1332
844.510376,1311
844.628357,1290
844.74646,1319
844.864441,1317
844.982422,1300
845.100403,1289
845.218384,1286
845.336426,1286
845.454468,1279
845.572449,1300
845.69043,1295
845.808411,1320
845.926453,1276
846.044373,1311
846.162354,1291
846.280396,1270
846.398315,1280
846.516296,1276
846.634216,1276
846.752197,1314
846.870178,1258
846.988098,1303
847.106079,1267
847.22406,1275
847.34198,1301
847.4599,1307
847.577881,1295
847.695801,1274
847.813782,1317
847.931641,1291
848.049561,1275
848.167603,1358
848.285461,1348
848.403381,1322
848.521362,1335
848.639221,1306
848.75708,1324
848.875,1293
848.99292,1327
849.110901,1349
849.22876,1321
849.34668,1317
849.464539,1321
849.582458,1308
849.700317,1309
849.818176,1324
849.936096,1321
850.053955,1328
850.171875,1295
850.289673,1310
850.407593,1322
850.525452,1347
850.643311,1311
850.761169,1331
850.878967,1330
850.996887,1298
851.114746,1317
851.232544,1328
851.350403,1312
851.468262,1331
851.58606,1316
851.703979,1287
851.821777,1310
851.939636,1308
852.057434,1288
852.175232,1313
852.293091,1317
852.410889,1355
852.528687,1316
852.646545,1366
852.764343,1333
852.88208,1355
852.999939,1268
853.117676,1303
853.235535,1295
853.353271,1353
853.471069,1309
853.588928,1244
853.706604,1301
853.824402,1329
853.9422,1312
854.059998,1274
854.177734,1291
854.295532,1294
854.413269,1279
854.531006,1303
854.648804,1313
854.766541,1302
854.884277,1328
855.002014,1318
855.119751,1300
855.237549,1273
855.355225,1333
855.473022,1317
855.590698,1290
855.708435,1344
855.826172,1304
855.943848,1318
856.061646,1320
856.179321,1294
856.296997,1293
856.414795,1312
856.53241,1280
856.650085,1305
856.767822,1303
856.885559,1290
857.003174,1314
857.120911,1306
857.238586,1332
857.356201,1319
857.473938,1317
857.591614,1288
857.709351,1334
857.826965,1275
857.944641,1305
858.062317,1296
858.179993,1312
858.297668,1317
858.415283,1293
858.532959,1319
858.650574,1317
858.768188,1303
858.885803,1301
859.003479,1309
859.121094,1285
859.23877,1326
859.356384,1297
859.473999,1307
859.591675,1316
859.709229,1300
859.826843,1315
859.944458,1361
860.062012,1284
860.179626,1335
860.297302,1287
860.414856,1301
860.532471,1317
860.650024,1318
860.767639,1314
860.885193,1303
861.002808,1286
861.120361,1336
861.237976,1318
861.35553,1301
861.473022,1320
861.590698,1302
861.708191,1303
861.825745,1304
861.943298,1312
862.060852,1297
862.178406,1299
862.295959,1303
862.413513,1298
862.531006,1324
862.64856,1284
862.766113,1259
862.883667,1295
863.00116,1258
863.118713,1277
863.236206,1295
863.353699,1308
863.471252,1288
863.588745,1310
863.706177,1325
863.82373,1295
863.941162,1313
864.058716,1338
864.176208,1291
864.29364,1349
864.411194,1313
864.528687,1317
864.646118,1289
864.763611,1292
864.881042,1277
864.998535,1275
865.116028,1299
865.233459,1297
865.350891,1354
865.468384,1291
865.585754,1314
865.703308,1304
865.820679,1291
865.938171,1305
866.055542,1298
866.173035,1303
866.290466,1346
866.407837,1258
866.52533,1266
866.6427,1301
866.760071,1324
866.877563,1286
866.994934,1277
867.112305,1315
867.229736,1318
867.347107,1269
867.464539,1293
867.58197,1305
867.699341,1297
867.81665,1287
867.934082,1293
868.051453,1278
868.168823,1346
868.286194,1316
868.403564,1348
868.520935,1306
868.638306,1316
868.755676,1307
868.872986,1323
868.990295,1295
869.107727,1298
869.225037,1288
869.342346,1318
869.459717,1314
869.577026,1334
869.694336,1259
869.811707,1351
869.929016,1321
870.046326,1291
870.163635,1300
870.280945,1326
870.398254,1305
870.515564,1320
870.632812,1291
870.750183,1324
870.867432,1315
870.984741,1292
871.102051,1330
871.219299,1305
871.336609,1329
871.453918,1354
871.571106,1301
871.688416,1326
871.805664,1308
871.922852,1278
872.040222,1306
872.157471,1354
872.274719,1306
872.391968,1344
872.509155,1299
872.626465,1339
872.743652,1312
872.860962,1299
872.978149,1342
873.095337,1286
873.212646,1323
873.329834,1324
873.44696,1312
873.564209,1311
873.681396,1328
873.798645,1326
873.915894,1336
874.03302,1309
874.150208,1325
874.267456,1310
874.384583,1312
874.501831,1294
874.618958,1283
874.736145,1313
874.853333,1303
874.970459,1314
875.087646,1333
875.204834,1310
875.32196,1328
875.439148,1312
875.556274,1324
875.673401,1336
875.790527,1308
875.907715,1334
876.024841,1269
876.141968,1327
876.259094,1318
876.376282,1371
876.493347,1293
876.610474,1337
876.7276,1354
876.844727,1304
876.961853,1349
877.078918,1361
877.195984,1317
877.313171,1311
877.430237,1336
877.547302,1297
877.664368,1320
877.781433,1344
877.898499,1359
878.015625,1334
878.13269,1288
878.249695,1315
878.366821,1266
878.483887,1340
878.600952,1307
878.717957,1322
878.834961,1283
878.952087,1271
879.069092,1349
879.186157,1343
879.303162,1280
879.420227,1350
879.537231,1320
879.654236,1291
879.77124,1271
879.888306,1297
880.005249,1294
880.122314,1331
880.239319,1269
880.356323,1330
880.473328,1338
880.590271,1302
880.707275,1335
880.824341,1321
880.941284,1348
881.058228,1306
881.175232,1360
881.292236,1305
881.40918,1288
881.526123,1343
881.643066,1305
881.760071,1296
881.877014,1333
881.993958,1327
882.11084,1340
882.227783,1307
882.344727,1335
882.46167,1361
882.578613,1292
882.695618,1299
882.812439,1308
882.929382,1309
883.046326,1337
883.163208,1295
883.280151,1340
883.397034,1325
883.513916,1312
883.630798,1319
883.747742,1303
883.864563,1313
883.981506,1337
884.098389,1332
884.21521,1334
884.332153,1322
884.448975,1309
884.565796,1349
884.682678,1343
884.7995,1351
884.916443,1388
885.033264,1379
885.150085,1360
885.266968,1381
885.383789,1375
885.500671,1354
885.617493,1408
885.734314,1350
885.851196,1382
885.967896,1343
886.084717,1359
886.201599,1365
886.318359,1357
886.435181,1357
886.552002,1321
886.668762,1400
886.785645,1345
886.902344,1335
887.019165,1356
887.135925,1328
887.252747,1368
887.369446,1340
887.486267,1368
887.603027,1367
887.719788,1376
887.836548,1326
887.953247,1360
888.070068,1356
888.186829,1328
888.303528,1395
888.420288,1329
888.536987,1345
888.653687,1344
888.770447,1332
888.887146,1329
889.003967,1363
889.120667,1342
889.237305,1374
889.354065,1327
889.470703,1329
889.587463,1323
889.704163,1403
889.820862,1276
889.937561,1338
890.054199,1328
890.170837,1364
890.287598,1340
890.404236,1318
890.520874,1344
890.637634,1365
890.754211,1329
890.87085,1358
890.987549,1310
891.104187,1361
891.220886,1355
891.337463,1359
891.454102,1376
891.57074,1381
891.687378,1330
891.804077,1355
891.920654,1378
892.037231,1366
892.15387,1336
892.270447,1339
892.387085,1352
892.503723,1382
892.6203,1379
892.736877,1354
892.853516,1331
892.970032,1352
893.08667,1338
893.203186,1358
893.319763,1379
893.43634,1380
893.552917,1329
893.669556,1378
893.786011,1372
893.902588,1390
894.019165,1356
894.135681,1372
894.252197,1371
894.368835,1382
894.485291,1388
894.601868,1360
894.718384,1396
894.8349,1346
894.951355,1322
895.067932,1375
895.184448,1339
895.300964,1383
895.417419,1354
895.533936,1329
895.650452,1362
895.766907,1342
895.883423,1355
895.999878,1414
896.116333,1356
896.232849,1384
896.349304,1326
896.465759,1394
896.582214,1349
896.698669,1348
896.815125,1377
896.931641,1373
897.048035,1358
897.164551,1397
897.280884,1366
897.397339,1309
897.513794,1369
897.630249,1331
897.746582,1374
897.863098,1386
897.979431,1384
898.095886,1378
898.212341,1343
898.328674,1367
898.445129,1400
898.561462,1355
898.677795,1321
898.794312,1393
898.910645,1349
899.026978,1391
899.143433,1371
899.259766,1382
899.37616,1412
899.492493,1351
899.608765,1388
899.725159,1357
899.841553,1372
899.957947,1338
900.07428,1362
900.190552,1387
900.306946,1364
900.423157,1364
900.53949,1392
900.655884,1346
900.772156,1415
900.888489,1368
901.004822,1374
901.121033,1352
901.237366,1420
901.353699,1403
901.46991,1369
901.586304,1364
901.702515,1343
901.818787,1402
901.93512,1352
902.051331,1377
902.167603,1371
902.283875,1405
902.400085,1393
902.516418,1407
902.632629,1398
902.74884,1413
902.865112,1405
902.981384,1412
903.097595,1380
903.213867,1370
903.330017,1413
903.446289,1388
903.5625,1395
903.67865,1396
903.794922,1409
903.911072,1350
904.027344,1375
904.143494,1400
904.259705,1397
904.375916,1383
904.492065,1394
904.608215,1402
904.724426,1377
904.840576,1433
904.956726,1328
905.072876,1354
905.189087,1407
905.305176,1420
905.421387,1410
905.537537,1381
905.653687,1388
905.769775,1401
905.885925,1400
906.002014,1409
906.118164,1415
906.234314,1419
906.350403,1367
906.466492,1374
906.582642,1376
906.69873,1413
906.814758,1403
906.930908,1373
907.046936,1394
907.163086,1424
907.279175,1457
907.395264,1416
907.511353,1382
907.62738,1414
907.743408,1355
907.859497,1412
907.975525,1416
908.091553,1368
908.207703,1393
908.32373,1367
908.439758,1378
908.555786,1424
908.671814,1377
908.787842,1393
908.90387,1378
909.019775,1412
909.135864,1377
909.251892,1411
909.367859,1387
909.483826,1401
909.599854,1394
909.715881,1419
909.831848,1418
909.947815,1352
910.063782,1393
910.179749,1392
910.295776,1407
910.411743,1412
910.527649,1400
910.643616,1417
910.759583,1383
910.875488,1422
910.991455,1350
911.107361,1425
911.223267,1357
911.339294,1425
911.4552,1404
911.571106,1405
911.687073,1414
911.802979,1359
911.918823,1427
912.034729,1406
912.150635,1386
912.266602,1365
912.382446,1419
912.498352,1389
912.614197,1382
912.730103,1429
912.846008,1376
792.44574,1830
792.56488,1740
792.68396,1774
792.80304,1764
792.92218,1767
793.041199,1648
793.160339,1728
793.279419,1698
793.398499,1719
793.517578,1667
793.636658,1662
793.755737,1688
793.874817,1686
793.993896,1659
794.112976,1669
794.232056,1650
794.351074,1616
794.470215,1653
794.589233,1637
794.708313,1585
794.827393,1629
794.946411,1594
795.065552,1621
795.18457,1596
795.303589,1606
795.422668,1615
795.541687,1609
795.660767,1626
795.779846,1627
795.898865,1568
796.017883,1591
796.136963,1599
796.255981,1561
796.375061,1591
796.49408,1601
796.613037,1579
796.732117,1549
796.851135,1577
796.970154,1499
797.089233,1514
797.208191,1550
797.327271,1572
797.446228,1552
797.565186,1566
797.684265,1584
797.803223,1531
797.922241,1585
798.04126,1533
798.160278,1556
798.279297,1521
798.398315,1552
798.517273,1534
798.636292,1531
798.75531,1547
798.874268,1504
798.993286,1537
799.112244,1498
799.231323,1475
799.350281,1518
799.469238,1523
799.588257,1510
799.707153,1555
799.826111,1548
799.945129,1532
800.064087,1519
800.183044,1513
800.302063,1522
800.421021,1538
800.539978,1489
800.658936,1506
800.777893,1532
800.896912,1541
801.015747,1481
801.134705,1508
801.253723,1508
801.37262,1550
801.491638,1508
801.610535,1498
801.729492,1528
801.84845,1522
801.967407,1540
802.086243,1477
802.205261,1554
802.324158,1491
802.443115,1554
802.562073,1519
802.680969,1511
802.799927,1479
802.918762,1517
803.037659,1525
803.156677,1535
803.275574,1477
803.39447,1492
803.513428,1472
803.632263,1477
803.751221,1493
803.870117,1547
803.989014,1533
804.107971,1479
804.226746,1534
804.345642,1481
804.4646,1487
804.583496,1474
804.702393,1533
804.821228,1528
804.940125,1500
805.059021,1493
805.177917,1541
805.296814,1532
805.415649,1495
805.534546,1500
805.653442,1481
805.772278,1487
805.891113,1495
806.01001,1499
806.128906,1504
806.247742,1490
806.366577,1499
806.485413,1471
806.604309,1515
806.723145,1449
806.84198,1516
806.960876,1535
807.079712,1476
807.198486,1507
807.317383,1498
807.436218,1477
807.554993,1491
807.673889,1492
807.792725,1484
807.91156,1476
808.030396,1481
808.14917,1487
808.268005,1501
808.386841,1508
808.505676,1472
808.624451,1510
808.743286,1491
808.862122,1455
808.980896,1472
809.099731,1511
809.218506,1491
809.337341,1507
809.456116,1449
809.57489,1510
809.693726,1517
809.8125,1493
809.931274,1498
810.050049,1505
810.168884,1457
810.287659,1517
810.406372,1476
810.525269,1504
810.643982,1491
810.762756,1535
810.881531,1451
811.000305,1472
811.11908,1485
811.237854,1486
811.356567,1483
811.475403,1467
811.594116,1460
811.71283,1517
811.831604,1464
811.950378,1548
812.069153,1526
812.187927,1494
812.30658,1506
812.425415,1464
812.544128,1477
812.662781,1490
812.781616,1403
812.900269,1477
813.019043,1477
813.137756,1479
813.256531,1488
813.375244,1456
813.493896,1478
813.612671,1482
813.731384,1449
813.850037,1468
813.96875,1478
814.087524,1496
814.206238,1461
814.324951,1399
814.443604,1456
814.562256,1441
814.68103,1476
814.799683,1436
814.918335,1457
815.037109,1450
815.155762,1485
815.274475,1440
815.393188,1471
815.511841,1457
815.630554,1457
815.749146,1452
815.867859,1464
815.986572,1465
816.105164,1433
816.223877,1402
816.342529,1414
816.461182,1459
816.579895,1444
816.698486,1453
816.817139,1425
816.935791,1472
817.054504,1457
817.173096,1440
817.291748,1433
817.4104,1456
817.529053,1454
817.647644,1431
817.766235,1414
817.884949,1382
818.00354,1446
818.122192,1387
818.240845,1421
818.359436,1406
818.478088,1401
818.59668,1423
818.715271,1351
818.833923,1391
818.952515,1379
819.071106,1463
819.189758,1404
819.30835,1407
819.426941,1413
819.545532,1394
819.664124,1389
819.782715,1393
819.901306,1408
820.019897,1448
820.138489,1392
820.25708,1406
820.375671,1433
820.494202,1385
820.612732,1367
820.731384,1385
820.849915,1406
820.968506,1383
821.087097,1392
821.205627,1407
821.324158,1355
821.442749,1351
821.561279,1397
821.679871,1371
821.798401,1379
821.916931,1402
822.035461,1413
822.154053,1382
822.272583,1351
822.391174,1341
822.509583,1360
822.628174,1371
822.746704,1376
822.865234,1359
822.983765,1355
823.102295,1368
823.220825,1337
823.339294,1315
823.457825,1367
823.576355,1353
823.694824,1347
823.813354,1373
823.931885,1367
824.050354,1385
824.168884,1385
824.287354,1365
824.405823,1379
824.524353,1347
824.642822,1387
824.761353,1428
824.879822,1361
824.998291,1404
825.116699,1367
825.235291,1362
825.353699,1365
825.472168,1347
825.590637,1362
825.709106,1361
825.827576,1347
825.946045,1297
826.064453,1343
826.182983,1320
826.301392,1332
826.4198,1348
826.53833,1343
826.656738,1325
826.775208,1345
826.893677,1336
827.012024,1351
827.130493,1357
827.248962,1338
827.36731,1351
827.485779,1333
827.604248,1348
827.722595,1377
827.841064,1317
827.959412,1336
828.077942,1382
828.196289,1347
828.314636,1320
828.433105,1336
828.551514,1317
828.669861,1339
828.78833,1333
828.906677,1347
829.025085,1327
829.143433,1375
829.261841,1372
829.38031,1343
829.498657,1329
829.617004,1365
829.735413,1338
829.85376,1343
829.972107,1307
830.090515,1358
830.208862,1316
830.327209,1332
830.445557,1324
830.563904,1336
830.682312,1350
830.800659,1310
830.919006,1307
831.037354,1325
831.155701,1316
831.274048,1318
831.392395,1335
831.51062,1338
831.629028,1339
831.747314,1356
831.865662,1326
831.984009,1334
832.102356,1345
832.220642,1308
832.338928,1337
832.457275,1347
832.575623,1319
832.693909,1329
832.812134,1317
832.930481,1374
833.048828,1352
833.167114,1361
833.2854,1303
833.403687,1330
833.521973,1343
833.640259,1339
833.758545,1346
833.876831,1339
833.995056,1317
834.113281,1315
834.231628,1334
834.349915,1329
834.468201,1296
834.586426,1332
834.704651,1312
834.822998,1332
834.941162,1309
835.059448,1324
835.177673,1337
835.295959,1319
835.414246,1355
835.53241,1338
835.650635,1314
835.768921,1343
835.887146,1343
836.005371,1322
836.123596,1328
836.241821,1320
836.360046,1317
836.478271,1343
836.596497,1330
836.714722,1294
836.832886,1326
836.95105,1342
837.069336,1324
837.1875,1327
837.305725,1315
837.423889,1323
837.542053,1316
837.660339,1328
837.778503,1301
837.896667,1336
838.014832,1331
838.132996,1321
838.25116,1317
838.369385,1329
838.487488,1326
838.605713,1304
838.723877,1311
838.84198,1314
838.960205,1348
839.078308,1340
839.196472,1322
839.314636,1289
839.4328,1319
839.550964,1317
839.669067,1334
839.787231,1287
839.905396,1316
840.023499,1318
840.141602,1327
840.259766,1320
840.377869,1290
840.495972,1381
840.614136,1330
840.732239,1317
840.850342,1303
840.968445,1286
841.086548,1321
841.204651,1311
841.322754,1316
841.440918,1319
841.55896,1364
841.677002,1323
841.795166,1334
841.913208,1324
842.031311,1314
842.149353,1338
842.267456,1311
842.385498,1328
842.503601,1278
842.621643,1309
842.739746,1343
842.857788,1326
842.97583,1343
843.093933,1310
843.211975,1349
843.330017,1333
843.44812,1324
843.566101,1318
843.684204,1341
843.802246,1278
843.920227,1329
844.038269,1329
844.156311,1339
844.274292,1336
844.392395,1343
844.510376,1306
844.628357,1334
844.74646,1316
844.864441,1299
844.982422,1345
845.100403,1335
845.218384,1324
845.336426,1329
845.454468,1310
845.572449,1308
845.69043,1284
845.808411,1330
845.926453,1289
846.044373,1323
846.162354,1313
846.280396,1328
846.398315,1314
846.516296,1294
846.634216,1321
846.752197,1330
846.870178,1330
846.988098,1336
847.106079,1307
847.22406,1306
847.34198,1320
847.4599,1334
847.577881,1365
847.695801,1328
847.813782,1314
847.931641,1317
848.049561,1330
848.167603,1332
848.285461,1324
848.403381,1317
848.521362,1380
848.639221,1328
848.75708,1332
848.875,1307
848.99292,1358
849.110901,1307
849.22876,1340
849.34668,1358
849.464539,1352
849.582458,1304
849.700317,1359
849.818176,1341
849.936096,1337
850.053955,1354
850.171875,1361
850.289673,1334
850.407593,1352
850.525452,1376
850.643311,1348
850.761169,1322
850.878967,1325
850.996887,1352
851.114746,1293
851.232544,1361
851.350403,1337
851.468262,1310
851.58606,1342
851.703979,1325
851.821777,1325
851.939636,1356
852.057434,1307
852.175232,1340
852.293091,1309
852.410889,1281
852.528687,1325
852.646545,1354
852.764343,1301
852.88208,1323
852.999939,1304
853.117676,1316
853.235535,1346
853.353271,1333
853.471069,1330
853.588928,1320
853.706604,1337
853.824402,1312
853.9422,1340
854.059998,1297
854.177734,1277
854.295532,1358
854.413269,1326
854.531006,1344
854.648804,1322
854.766541,1348
854.884277,1318
855.002014,1345
855.119751,1320
855.237549,1331
855.355225,1323
855.473022,1318
855.590698,1275
855.708435,1312
855.826172,1306
855.943848,1338
856.061646,1308
856.179321,1311
856.296997,1350
856.414795,1303
856.53241,1319
856.650085,1335
856.767822,1326
856.885559,1321
857.003174,1328
857.120911,1344
857.238586,1347
857.356201,1339
857.473938,1345
857.591614,1292
857.709351,1349
857.826965,1318
857.944641,1323
858.062317,1320
858.179993,1349
858.297668,1332
858.415283,1297
858.532959,1338
858.650574,1322
858.768188,1359
858.885803,1295
859.003479,1403
859.121094,1336
859.23877,1366
859.356384,1350
859.473999,1291
859.591675,1320
859.709229,1337
859.826843,1315
859.944458,1329
860.062012,1326
860.179626,1326
860.297302,1291
860.414856,1340
860.532471,1306
860.650024,1347
860.767639,1329
860.885193,1346
861.002808,1321
861.120361,1311
861.237976,1344
861.35553,1319
861.473022,1295
861.590698,1304
861.708191,1338
861.825745,1342
861.943298,1351
862.060852,1321
862.178406,1321
862.295959,1352
862.413513,1290
862.531006,1395
862.64856,1316
862.766113,1339
862.883667,1343
863.00116,1285
863.118713,1355
863.236206,1314
863.353699,1330
863.471252,1325
863.588745,1314
863.706177,1275
863.82373,1315
863.941162,1311
864.058716,1301
864.176208,1371
864.29364,1301
864.411194,1365
864.528687,1296
864.646118,1362
864.763611,1287
864.881042,1310
864.998535,1322
865.116028,1291
865.233459,1317
865.350891,1333
865.468384,1322
865.585754,1360
865.703308,1333
865.820679,1334
865.938171,1314
866.055542,1310
866.173035,1334
866.290466,1388
866.407837,1268
866.52533,1290
866.6427,1348
866.760071,1342
866.877563,1356
866.994934,1307
867.112305,1311
867.229736,1349
867.347107,1396
867.464539,1312
867.58197,1328
867.699341,1328
867.81665,1335
867.934082,1352
868.051453,1311
868.168823,1319
868.286194,1311
868.403564,1363
868.520935,1327
868.638306,1327
868.755676,1323
868.872986,1356
868.990295,1310
869.107727,1349
869.225037,1316
869.342346,1317
869.459717,1337
869.577026,1340
869.694336,1344
869.811707,1342
869.929016,1356
870.046326,1343
870.163635,1355
870.280945,1328
870.398254,1318
870.515564,1364
870.632812,1362
870.750183,1384
870.867432,1302
870.984741,1316
871.102051,1331
871.219299,1361
871.336609,1328
871.453918,1338
871.571106,1302
871.688416,1383
871.805664,1338
871.922852,1309
872.040222,1339
872.157471,1336
872.274719,1347
872.391968,1399
872.509155,1346
872.626465,1324
872.743652,1382
872.860962,1356
872.978149,1357
873.095337,1334
873.212646,1384
873.329834,1339
873.44696,1356
873.564209,1371
873.681396,1360
873.798645,1327
873.915894,1360
874.03302,1346
874.150208,1367
874.267456,1334
874.384583,1364
874.501831,1334
874.618958,1358
874.736145,1380
874.853333,1330
874.970459,1378
875.087646,1323
875.204834,1338
875.32196,1344
875.439148,1327
875.556274,1343
875.673401,1361
875.790527,1348
875.907715,1321
876.024841,1329
876.141968,1376
876.259094,1349
876.376282,1306
876.493347,1357
876.610474,1358
876.7276,1308
876.844727,1359
876.961853,1358
877.078918,1361
877.195984,1354
877.313171,1357
877.430237,1328
877.547302,1348
877.664368,1365
877.781433,1328
877.898499,1338
878.015625,1345
878.13269,1305
878.249695,1324
878.366821,1338
878.483887,1356
878.600952,1337
878.717957,1390
878.834961,1373
878.952087,1345
879.069092,1375
879.186157,1331
879.303162,1345
879.420227,1378
879.537231,1368
879.654236,1359
879.77124,1349
879.888306,1318
880.005249,1361
880.122314,1314
880.239319,1334
880.356323,1346
880.473328,1344
880.590271,1317
880.707275,1391
880.824341,1350
880.941284,1330
881.058228,1361
881.175232,1348
881.292236,1330
881.40918,1354
881.526123,1379
881.643066,1348
881.760071,1339
881.877014,1378
881.993958,1389
882.11084,1347
882.227783,1327
882.344727,1365
882.46167,1348
882.578613,1309
882.695618,1359
882.812439,1369
882.929382,1329
883.046326,1325
883.163208,1345
883.280151,1322
883.397034,1335
883.513916,1340
883.630798,1345
883.747742,1359
883.864563,1317
883.981506,1360
884.098389,1372
884.21521,1360
884.332153,1356
884.448975,1393
884.565796,1337
884.682678,1364
884.7995,1376
884.916443,1400
885.033264,1388
885.150085,1373
885.266968,1395
885.383789,1379
885.500671,1381
885.617493,1415
885.734314,1394
885.851196,1403
885.967896,1390
886.084717,1398
886.201599,1377
886.318359,1435
886.435181,1364
886.552002,1386
886.668762,1398
886.785645,1382
886.902344,1410
887.019165,1371
887.135925,1395
887.252747,1384
887.369446,1360
887.486267,1387
887.603027,1339
887.719788,1393
887.836548,1400
887.953247,1379
888.070068,1413
888.186829,1391
888.303528,1396
888.420288,1359
888.536987,1343
888.653687,1416
888.770447,1339
888.887146,1387
889.003967,1376
889.120667,1383
889.237305,1421
889.354065,1346
889.470703,1430
889.587463,1348
889.704163,1399
889.820862,1368
889.937561,1420
890.054199,1377
890.170837,1392
890.287598,1410
890.404236,1368
890.520874,1372
890.637634,1437
890.754211,1390
890.87085,1379
890.987549,1355
891.104187,1415
891.220886,1378
891.337463,1359
891.454102,1381
891.57074,1372
891.687378,1420
891.804077,1419
891.920654,1392
892.037231,1359
892.15387,1379
892.270447,1360
892.387085,1408
892.503723,1360
892.6203,1386
892.736877,1377
892.853516,1391
892.970032,1401
893.08667,1398
893.203186,1388
893.319763,1395
893.43634,1373
893.552917,1418
893.669556,1360
893.786011,1380
893.902588,1358
894.019165,1387
894.135681,1353
894.252197,1354
894.368835,1415
894.485291,1373
894.601868,1407
894.718384,1386
894.8349,1435
894.951355,1373
895.067932,1420
895.184448,1357
895.300964,1385
895.417419,1385
895.533936,1393
895.650452,1363
895.766907,1392
895.883423,1404
895.999878,1373
896.116333,1406
896.232849,1395
896.349304,1383
896.465759,1374
896.582214,1427
896.698669,1422
896.815125,1410
896.931641,1351
897.048035,1396
897.164551,1406
897.280884,1411
897.397339,1388
897.513794,1388
897.630249,1403
897.746582,1368
897.863098,1400
897.979431,1422
898.095886,1369
898.212341,1409
898.328674,1395
898.445129,1373
898.561462,1429
898.677795,1381
898.794312,1431
898.910645,1384
899.026978,1403
899.143433,1422
899.259766,1401
899.37616,1413
899.492493,1397
899.608765,1412
899.725159,1397
899.841553,1409
899.957947,1391
900.07428,1382
900.190552,1397
900.306946,1424
900.423157,1403
900.53949,1372
900.655884,1378
900.772156,1417
900.888489,1409
901.004822,1389
901.121033,1419
901.237366,1401
901.353699,1442
901.46991,1398
901.586304,1459
901.702515,1403
901.818787,1448
901.93512,1368
902.051331,1421
902.167603,1462
902.283875,1434
902.400085,1412
902.516418,1440
902.632629,1419
902.74884,1398
902.865112,1477
902.981384,1394
903.097595,1439
903.213867,1477
903.330017,1433
903.446289,1440
903.5625,1399
903.67865,1422
903.794922,1426
903.911072,1368
904.027344,1447
904.143494,1420
904.259705,1416
904.375916,1443
904.492065,1409
904.608215,1433
904.724426,1466
904.840576,1414
904.956726,1465
905.072876,1432
905.189087,1358
905.305176,1428
905.421387,1419
905.537537,1437
905.653687,1395
905.769775,1478
905.885925,1405
906.002014,1455
906.118164,1421
906.234314,1420
906.350403,1381
906.466492,1443
906.582642,1426
906.69873,1383
906.814758,1408
906.930908,1449
907.046936,1414
907.163086,1489
907.279175,1424
907.395264,1422
907.511353,1443
907.62738,1464
907.743408,1420
907.859497,1413
907.975525,1406
908.091553,1442
908.207703,1463
908.32373,1419
908.439758,1400
908.555786,1457
908.671814,1425
908.787842,1443
908.90387,1452
909.019775,1405
909.135864,1458
909.251892,1433
909.367859,1433
909.483826,1454
909.599854,1419
909.715881,1403
909.831848,1467
909.947815,1441
910.063782,1433
910.179749,1439
910.295776,1430
910.411743,1404
910.527649,1446
910.643616,1428
910.759583,1410
910.875488,1443
910.991455,1421
911.107361,1419
911.223267,1388
911.339294,1414
911.4552,1433
911.571106,1414
911.687073,1423
911.802979,1472
911.918823,1406
912.034729,1457
912.150635,1432
912.266602,1426
912.382446,1381
912.498352,1425
912.614197,1412
912.730103,1414
912.846008,1412
792.44574,1796
792.56488,1785
792.68396,1831
792.80304,1762
792.92218,1674
793.041199,1708
793.160339,1751
793.279419,1699
793.398499,1721
793.517578,1679
793.636658,1691
793.755737,1695
793.874817,1685
793.993896,1704
794.112976,1743
794.232056,1645
794.351074,1650
794.470215,1688
794.589233,1670
794.708313,1646
794.827393,1612
794.946411,1611
795.065552,1632
795.18457,1620
795.303589,1619
795.422668,1590
795.541687,1658
795.660767,1641
795.779846,1637
795.898865,1598
796.017883,1604
796.136963,1629
796.255981,1614
796.375061,1607
796.49408,1611
796.613037,1601
796.732117,1572
796.851135,1589
796.970154,1583
797.089233,1607
797.208191,1563
797.327271,1594
797.446228,1588
797.565186,1559
797.684265,1542
797.803223,1562
797.922241,1575
798.04126,1562
798.160278,1552
798.279297,1579
798.398315,1527
798.517273,1581
798.636292,1550
798.75531,1569
798.874268,1547
798.993286,1581
799.112244,1543
799.231323,1517
799.350281,1549
799.469238,1550
799.588257,1544
799.707153,1597
799.826111,1501
799.945129,1536
800.064087,1540
800.183044,1499
800.302063,1504
800.421021,1536
800.539978,1569
800.658936,1494
800.777893,1531
800.896912,1561
801.015747,1536
801.134705,1513
801.253723,1550
801.37262,1559
801.491638,1506
801.610535,1560
801.729492,1595
801.84845,1513
801.967407,1553
802.086243,1553
802.205261,1510
802.324158,1532
802.443115,1543
802.562073,1521
802.680969,1526
802.799927,1494
802.918762,1540
803.037659,1510
803.156677,1506
803.275574,1472
803.39447,1494
803.513428,1508
803.632263,1538
803.751221,1509
803.870117,1535
803.989014,1521
804.107971,1473
804.226746,1505
804.345642,1531
804.4646,1496
804.583496,1485
804.702393,1530
804.821228,1497
804.940125,1516
805.059021,1451
805.177917,1533
805.296814,1499
805.415649,1519
805.534546,1528
805.653442,1537
805.772278,1524
805.891113,1521
806.01001,1534
806.128906,1510
806.247742,1511
806.366577,1533
806.485413,1474
806.604309,1520
806.723145,1512
806.84198,1554
806.960876,1541
807.079712,1518
807.198486,1517
807.317383,1519
807.436218,1495
807.554993,1494
807.673889,1568
807.792725,1525
807.91156,1499
808.030396,1519
808.14917,1474
808.268005,1513
808.386841,1491
808.505676,1500
808.624451,1508
808.743286,1480
808.862122,1507
808.980896,1488
809.099731,1516
809.218506,1455
809.337341,1507
809.456116,1503
809.57489,1437
809.693726,1519
809.8125,1535
809.931274,1506
810.050049,1526
810.168884,1488
810.287659,1482
810.406372,1536
810.525269,1468
810.643982,1483
810.762756,1491
810.881531,1512
811.000305,1488
811.11908,1490
811.237854,1483
811.356567,1503
811.475403,1496
811.594116,1527
811.71283,1495
811.831604,1481
811.950378,1474
812.069153,1515
812.187927,1527
812.30658,1486
812.425415,1503
812.544128,1493
812.662781,1467
812.781616,1472
812.900269,1462
813.019043,1473
813.137756,1495
813.256531,1470
813.375244,1487
813.493896,1482
813.612671,1436
813.731384,1514
813.850037,1479
813.96875,1449
814.087524,1456
814.206238,1457
814.324951,1491
814.443604,1471
814.562256,1483
814.68103,1506
814.799683,1431
814.918335,1484
815.037109,1435
815.155762,1456
815.274475,1489
815.393188,1481
815.511841,1451
815.630554,1431
815.749146,1474
815.867859,1451
815.986572,1455
816.105164,1458
816.223877,1449
816.342529,1465
816.461182,1485
816.579895,1422
816.698486,1436
816.817139,1461
816.935791,1439
817.054504,1458
817.173096,1428
817.291748,1430
817.4104,1445
817.529053,1420
817.647644,1455
817.766235,1438
817.884949,1460
818.00354,1437
818.122192,1423
818.240845,1419
818.359436,1424
818.478088,1445
818.59668,1444
818.715271,1432
818.833923,1401
818.952515,1407
819.071106,1403
819.189758,1416
819.30835,1440
819.426941,1389
819.545532,1453
819.664124,1399
819.782715,1388
819.901306,1456
820.019897,1447
820.138489,1419
820.25708,1411
820.375671,1424
820.494202,1392
820.612732,1429
820.731384,1410
820.849915,1434
820.968506,1426
821.087097,1405
821.205627,1425
821.324158,1436
821.442749,1405
821.561279,1431
821.679871,1416
821.798401,1410
821.916931,1416
822.035461,1415
822.154053,1401
822.272583,1425
822.391174,1420
822.509583,1342
822.628174,1381
822.746704,1406
822.865234,1385
822.983765,1371
823.102295,1379
823.220825,1400
823.339294,1352
823.457825,1394
823.576355,1404
823.694824,1369
823.813354,1441
823.931885,1360
824.050354,1369
824.168884,1400
824.287354,1328
824.405823,1365
824.524353,1377
824.642822,1367
824.761353,1358
824.879822,1369
824.998291,1379
825.116699,1369
825.235291,1390
825.353699,1398
825.472168,1343
825.590637,1379
825.709106,1372
825.827576,1371
825.946045,1337
826.064453,1382
826.182983,1387
826.301392,1388
826.4198,1369
826.53833,1356
826.656738,1356
826.775208,1315
826.893677,1354
827.012024,1370
827.130493,1341
827.248962,1403
827.36731,1354
827.485779,1320
827.604248,1328
827.722595,1342
827.841064,1348
827.959412,1331
828.077942,1380
828.196289,1344
828.314636,1301
828.433105,1366
828.551514,1349
828.669861,1326
828.78833,1319
828.906677,1394
829.025085,1315
829.143433,1333
829.261841,1297
829.38031,1386
829.498657,1328
829.617004,1321
829.735413,1289
829.85376,1385
829.972107,1305
830.090515,1354
830.208862,1348
830.327209,1292
830.445557,1315
830.563904,1336
830.682312,1304
830.800659,1354
830.919006,1323
831.037354,1353
831.155701,1347
831.274048,1339
831.392395,1316
831.51062,1335
831.629028,1372
831.747314,1334
831.865662,1311
831.984009,1336
832.102356,1343
832.220642,1345
832.338928,1361
832.457275,1333
832.575623,1351
832.693909,1278
832.812134,1324
832.930481,1351
833.048828,1327
833.167114,1357
833.2854,1313
833.403687,1346
833.521973,1341
833.640259,1344
833.758545,1323
833.876831,1316
833.995056,1334
834.113281,1357
834.231628,1323
834.349915,1305
834.468201,1321
834.586426,1366
834.704651,1351
834.822998,1290
834.941162,1320
835.059448,1322
835.177673,1344
835.295959,1309
835.414246,1375
835.53241,1337
835.650635,1331
835.768921,1289
835.887146,1324
836.005371,1353
836.123596,1349
836.241821,1336
836.360046,1338
836.478271,1308
836.596497,1333
836.714722,1354
836.832886,1304
836.95105,1348
837.069336,1317
837.1875,1338
837.305725,1332
837.423889,1311
837.542053,1333
837.660339,1347
837.778503,1336
837.896667,1327
838.014832,1294
838.132996,1344
838.25116,1328
838.369385,1332
838.487488,1346
838.605713,1292
838.723877,1341
838.84198,1343
838.960205,1324
839.078308,1364
839.196472,1359
839.314636,1326
839.4328,1352
839.550964,1297
839.669067,1305
839.787231,1314
839.905396,1371
840.023499,1308
840.141602,1362
840.259766,1356
840.377869,1356
840.495972,1350
840.614136,1325
840.732239,1322
840.850342,1323
840.968445,1363
841.086548,1329
841.204651,1350
841.322754,1297
841.440918,1343
841.55896,1368
841.677002,1332
841.795166,1354
841.913208,1328
842.031311,1316
842.149353,1331
842.267456,1314
842.385498,1339
842.503601,1359
842.621643,1320
842.739746,1311
842.857788,1327
842.97583,1338
843.093933,1351
843.211975,1339
843.330017,1381
843.44812,1338
843.566101,1345
843.684204,1362
843.802246,1341
843.920227,1345
844.038269,1367
844.156311,1344
844.274292,1336
844.392395,1339
844.510376,1332
844.628357,1318
844.74646,1318
844.864441,1374
844.982422,1309
845.100403,1391
845.218384,1355
845.336426,1304
845.454468,1337
845.572449,1352
845.69043,1334
845.808411,1317
845.926453,1352
846.044373,1328
846.162354,1336
846.280396,1320
846.398315,1349
846.516296,1288
846.634216,1326
846.752197,1312
846.870178,1367
846.988098,1334
847.106079,1317
847.22406,1321
847.34198,1364
847.4599,1290
847.577881,1323
847.695801,1316
847.813782,1328
847.931641,1357
848.049561,1306
848.167603,1332
848.285461,1315
848.403381,1337
848.521362,1338
848.639221,1307
848.75708,1309
848.875,1359
848.99292,1315
849.110901,1330
849.22876,1327
849.34668,1339
849.464539,1368
849.582458,1366
849.700317,1331
849.818176,1369
849.936096,1334
850.053955,1320
850.171875,1336
850.289673,1354
850.407593,1352
850.525452,1331
850.643311,1354
850.761169,1345
850.878967,1353
850.996887,1358
851.114746,1356
851.232544,1342
851.350403,1367
851.468262,1322
851.58606,1325
851.703979,1328
851.821777,1342
851.939636,1311
852.057434,1359
852.175232,1365
852.293091,1335
852.410889,1356
852.528687,1306
852.646545,1344
852.764343,1326
852.88208,1359
852.999939,1342
853.117676,1360
853.235535,1307
853.353271,1341
853.471069,1316
853.588928,1306
853.706604,1346
853.824402,1348
853.9422,1332
854.059998,1348
854.177734,1325
854.295532,1341
854.413269,1333
854.531006,1343
854.648804,1305
854.766541,1340
854.884277,1302
855.002014,1347
855.119751,1323
855.237549,1328
855.355225,1365
855.473022,1306
855.590698,1301
855.708435,1333
855.826172,1300
855.943848,1355
856.061646,1342
856.179321,1314
856.296997,1324
856.414795,1351
856.53241,1317
856.650085,1350
856.767822,1306
856.885559,1375
857.003174,1308
857.120911,1316
857.238586,1367
857.356201,1349
857.473938,1308
857.591614,1317
857.709351,1295
857.826965,1365
857.944641,1335
858.062317,1336
858.179993,1330
858.297668,1340
858.415283,1341
858.532959,1349
858.650574,1342
858.768188,1365
858.885803,1344
859.003479,1339
859.121094,1358
859.23877,1356
859.356384,1350
859.473999,1337
859.591675,1317
859.709229,1327
859.826843,1339
859.944458,1319
860.062012,1317
860.179626,1357
860.297302,1291
860.414856,1367
860.532471,1297
860.650024,1303
860.767639,1369
860.885193,1304
861.002808,1340
861.120361,1343
861.237976,1386
861.35553,1338
861.473022,1311
861.590698,1349
861.708191,1278
861.825745,1361
861.943298,1371
862.060852,1341
862.178406,1308
862.295959,1321
862.413513,1330
862.531006,1325
862.64856,1329
862.766113,1327
862.883667,1358
863.00116,1317
863.118713,1324
863.236206,1343
863.353699,1333
863.471252,1353
863.588745,1286
863.706177,1341
863.82373,1333
863.941162,1300
864.058716,1326
864.176208,1344
864.29364,1317
864.411194,1336
864.528687,1327
864.646118,1366
864.763611,1354
864.881042,1328
864.998535,1340
865.116028,1301
865.233459,1340
865.350891,1317
865.468384,1356
865.585754,1369
865.703308,1358
865.820679,1375
865.938171,1322
866.055542,1334
866.173035,1331
866.290466,1345
866.407837,1337
866.52533,1385
866.6427,1350
866.760071,1347
866.877563,1334
866.994934,1301
867.112305,1359
867.229736,1338
867.347107,1314
867.464539,1313
867.58197,1294
867.699341,1347
867.81665,1329
867.934082,1333
868.051453,1372
868.168823,1324
868.286194,1320
868.403564,1326
868.520935,1344
868.638306,1340
868.755676,1307
868.872986,1308
868.990295,1331
869.107727,1366
869.225037,1352
869.342346,1380
869.459717,1357
869.577026,1362
869.694336,1345
869.811707,1356
869.929016,1342
870.046326,1360
870.163635,1366
870.280945,1371
870.398254,1363
870.515564,1317
870.632812,1355
870.750183,1355
870.867432,1341
870.984741,1351
871.102051,1354
871.219299,1374
871.336609,1339
871.453918,1383
871.571106,1332
871.688416,1368
871.805664,1361
871.922852,1369
872.040222,1401
872.157471,1322
872.274719,1362
872.391968,1326
872.509155,1377
872.626465,1367
872.743652,1377
872.860962,1387
872.978149,1330
873.095337,1352
873.212646,1348
873.329834,1355
873.44696,1310
873.564209,1350
873.681396,1371
873.798645,1390
873.915894,1353
874.03302,1380
874.150208,1356
874.267456,1346
874.384583,1356
874.501831,1374
874.618958,1335
874.736145,1371
874.853333,1384
874.970459,1371
875.087646,1375
875.204834,1387
875.32196,1382
875.439148,1335
875.556274,1352
875.673401,1400
875.790527,1354
875.907715,1358
876.024841,1366
876.141968,1388
876.259094,1336
876.376282,1308
876.493347,1330
876.610474,1391
876.7276,1352
876.844727,1376
876.961853,1355
877.078918,1387
877.195984,1337
877.313171,1339
877.430237,1371
877.547302,1346
877.664368,1375
877.781433,1344
877.898499,1349
878.015625,1334
878.13269,1358
878.249695,1412
878.366821,1324
878.483887,1368
878.600952,1353
878.717957,1359
878.834961,1363
878.952087,1380
879.069092,1369
879.186157,1350
879.303162,1361
879.420227,1382
879.537231,1377
879.654236,1354
879.77124,1339
879.888306,1398
880.005249,1342
880.122314,1372
880.239319,1357
880.356323,1363
880.473328,1351
880.590271,1363
880.707275,1378
880.824341,1323
880.941284,1384
881.058228,1352
881.175232,1407
881.292236,1335
881.40918,1372
881.526123,1349
881.643066,1355
881.760071,1382
881.877014,1397
881.993958,1400
882.11084,1373
882.227783,1325
882.344727,1385
882.46167,1379
882.578613,1396
882.695618,1338
882.812439,1356
882.929382,1385
883.046326,1345
883.163208,1378
883.280151,1386
883.397034,1347
883.513916,1372
883.630798,1342
883.747742,1351
883.864563,1348
883.981506,1373
884.098389,1344
884.21521,1359
884.332153,1380
884.448975,1353
884.565796,1380
884.682678,1376
884.7995,1382
884.916443,1387
885.033264,1414
885.150085,1391
885.266968,1404
885.383789,1405
885.500671,1366
885.617493,1389
885.734314,1452
885.851196,1411
885.967896,1428
886.084717,1363
886.201599,1393
886.318359,1401
886.435181,1413
886.552002,1411
886.668762,1397
886.785645,1415
886.902344,1431
887.019165,1380
887.135925,1396
887.252747,1413
887.369446,1393
887.486267,1406
887.603027,1405
887.719788,1391
887.836548,1402
887.953247,1383
888.070068,1411
888.186829,1375
888.303528,1406
888.420288,1414
888.536987,1372
888.653687,1379
888.770447,1325
888.887146,1385
889.003967,1398
889.120667,1387
889.237305,1386
889.354065,1366
889.470703,1374
889.587463,1324
889.704163,1403
889.820862,1384
889.937561,1408
890.054199,1375
890.170837,1377
890.287598,1434
890.404236,1356
890.520874,1405
890.637634,1413
890.754211,1385
890.87085,1389
890.987549,1390
891.104187,1391
891.220886,1400
891.337463,1376
891.454102,1402
891.57074,1413
891.687378,1356
891.804077,1464
891.920654,1412
892.037231,1398
892.15387,1375
892.270447,1369
892.387085,1392
892.503723,1398
892.6203,1394
892.736877,1389
892.853516,1369
892.970032,1394
893.08667,1427
893.203186,1427
893.319763,1374
893.43634,1387
893.552917,1416
893.669556,1389
893.786011,1413
893.902588,1413
894.019165,1388
894.135681,1419
894.252197,1381
894.368835,1436
894.485291,1410
894.601868,1437
894.718384,1385
894.8349,1403
894.951355,1414
895.067932,1398
895.184448,1387
895.300964,1374
895.417419,1437
895.533936,1415
895.650452,1377
895.766907,1407
895.883423,1422
895.999878,1404
896.116333,1400
896.232849,1422
896.349304,1425
896.465759,1428
896.582214,1387
896.698669,1429
896.815125,1398
896.931641,1422
897.048035,1423
897.164551,1363
897.280884,1408
897.397339,1445
897.513794,1403
897.630249,1434
897.746582,1429
897.863098,1396
897.979431,1424
898.095886,1425
898.212341,1406
898.328674,1442
898.445129,1402
898.561462,1407
898.677795,1434
898.794312,1392
898.910645,1441
899.026978,1427
899.143433,1426
899.259766,1420
899.37616,1444
899.492493,1370
899.608765,1431
899.725159,1453
899.841553,1395
899.957947,1445
900.07428,1421
900.190552,1432
900.306946,1398
900.423157,1443
900.53949,1409
900.655884,1411
900.772156,1459
900.888489,1429
901.004822,1405
901.121033,1455
901.237366,1435
901.353699,1471
901.46991,1424
901.586304,1390
901.702515,1418
901.818787,1399
901.93512,1366
902.051331,1414
902.167603,1412
902.283875,1457
902.400085,1398
902.516418,1419
902.632629,1417
902.74884,1416
902.865112,1434
902.981384,1445
903.097595,1463
903.213867,1488
903.330017,1387
903.446289,1452
903.5625,1373
903.67865,1454
903.794922,1424
903.911072,1431
904.027344,1465
904.143494,1461
904.259705,1457
904.375916,1478
904.492065,1413
904.608215,1471
904.724426,1450
904.840576,1439
904.956726,1434
905.072876,1453
905.189087,1427
905.305176,1417
905.421387,1428
905.537537,1446
905.653687,1439
905.769775,1403
905.885925,1407
906.002014,1458
906.118164,1422
906.234314,1406
906.350403,1455
906.466492,1478
906.582642,1375
906.69873,1409
906.814758,1421
906.930908,1473
907.046936,1415
907.163086,1471
907.279175,1358
907.395264,1478
907.511353,1400
907.62738,1423
907.743408,1466
907.859497,1482
907.975525,1463
908.091553,1433
908.207703,1416
908.32373,1428
908.439758,1411
908.555786,1420
908.671814,1454
908.787842,1414
908.90387,1460
909.019775,1432
909.135864,1418
909.251892,1457
909.367859,1452
909.483826,1449
909.599854,1455
909.715881,1453
909.831848,1432
909.947815,1463
910.063782,1465
910.179749,1438
910.295776,1418
910.411743,1432
910.527649,1462
910.643616,1478
910.759583,1461
910.875488,1448
910.991455,1421
911.107361,1441
911.223267,1452
911.339294,1444
911.4552,1403
911.571106,1440
911.687073,1405
911.802979,1438
911.918823,1427
912.034729,1446
912.150635,1442
912.266602,1450
912.382446,1414
912.498352,1446
912.614197,1426
912.730103,1487
912.846008,1441
