792.44574,2103
792.56488,2032
792.68396,2041
792.80304,1966
792.92218,1924
793.041199,1911
793.160339,1892
793.279419,1912
793.398499,1844
793.517578,1913
793.636658,1822
793.755737,1849
793.874817,1816
793.993896,1793
794.112976,1761
794.232056,1750
794.351074,1764
794.470215,1691
794.589233,1751
794.708313,1744
794.827393,1716
794.946411,1724
795.065552,1740
795.18457,1719
795.303589,1738
795.422668,1709
795.541687,1718
795.660767,1675
795.779846,1675
795.898865,1683
796.017883,1677
796.136963,1596
796.255981,1684
796.375061,1677
796.49408,1663
796.613037,1673
796.732117,1633
796.851135,1587
796.970154,1619
797.089233,1578
797.208191,1615
797.327271,1615
797.446228,1590
797.565186,1597
797.684265,1612
797.803223,1600
797.922241,1605
798.04126,1588
798.160278,1598
798.279297,1560
798.398315,1594
798.517273,1614
798.636292,1517
798.75531,1582
798.874268,1574
798.993286,1571
799.112244,1519
799.231323,1551
799.350281,1605
799.469238,1562
799.588257,1587
799.707153,1581
799.826111,1561
799.945129,1587
800.064087,1583
800.183044,1518
800.302063,1498
800.421021,1577
800.539978,1567
800.658936,1554
800.777893,1564
800.896912,1521
801.015747,1551
801.134705,1516
801.253723,1540
801.37262,1577
801.491638,1557
801.610535,1528
801.729492,1523
801.84845,1525
801.967407,1504
802.086243,1547
802.205261,1553
802.324158,1531
802.443115,1515
802.562073,1549
802.680969,1539
802.799927,1563
802.918762,1571
803.037659,1540
803.156677,1508
803.275574,1549
803.39447,1541
803.513428,1540
803.632263,1543
803.751221,1559
803.870117,1491
803.989014,1533
804.107971,1515
804.226746,1493
804.345642,1493
804.4646,1513
804.583496,1512
804.702393,1543
804.821228,1487
804.940125,1499
805.059021,1492
805.177917,1488
805.296814,1533
805.415649,1502
805.534546,1504
805.653442,1489
805.772278,1522
805.891113,1525
806.01001,1519
806.128906,1488
806.247742,1511
806.366577,1544
806.485413,1497
806.604309,1517
806.723145,1517
806.84198,1492
806.960876,1523
807.079712,1524
807.198486,1503
807.317383,1570
807.436218,1513
807.554993,1561
807.673889,1503
807.792725,1458
807.91156,1532
808.030396,1514
808.14917,1517
808.268005,1537
808.386841,1512
808.505676,1541
808.624451,1472
808.743286,1491
808.862122,1485
808.980896,1451
809.099731,1471
809.218506,1470
809.337341,1522
809.456116,1491
809.57489,1529
809.693726,1519
809.8125,1477
809.931274,1528
810.050049,1485
810.168884,1498
810.287659,1452
810.406372,1517
810.525269,1475
810.643982,1512
810.762756,1477
810.881531,1524
811.000305,1506
811.11908,1494
811.237854,1449
811.356567,1497
811.475403,1514
811.594116,1507
811.71283,1489
811.831604,1515
811.950378,1518
812.069153,1513
812.187927,1493
812.30658,1476
812.425415,1558
812.544128,1471
812.662781,1519
812.781616,1487
812.900269,1512
813.019043,1458
813.137756,1485
813.256531,1443
813.375244,1474
813.493896,1526
813.612671,1495
813.731384,1530
813.850037,1504
813.96875,1490
814.087524,1453
814.206238,1450
814.324951,1499
814.443604,1461
814.562256,1484
814.68103,1435
814.799683,1476
814.918335,1484
815.037109,1510
815.155762,1466
815.274475,1481
815.393188,1447
815.511841,1478
815.630554,1468
815.749146,1438
815.867859,1445
815.986572,1463
816.105164,1479
816.223877,1419
816.342529,1486
816.461182,1421
816.579895,1469
816.698486,1479
816.817139,1473
816.935791,1445
817.054504,1444
817.173096,1484
817.291748,1467
817.4104,1412
817.529053,1450
817.647644,1435
817.766235,1431
817.884949,1452
818.00354,1431
818.122192,1433
818.240845,1451
818.359436,1448
818.478088,1423
818.59668,1424
818.715271,1395
818.833923,1414
818.952515,1400
819.071106,1373
819.189758,1361
819.30835,1359
819.426941,1368
819.545532,1357
819.664124,1384
819.782715,1328
819.901306,1374
820.019897,1330
820.138489,1361
820.25708,1349
820.375671,1383
820.494202,1361
820.612732,1364
820.731384,1346
820.849915,1359
820.968506,1368
821.087097,1352
821.205627,1381
821.324158,1342
821.442749,1342
821.561279,1379
821.679871,1362
821.798401,1347
821.916931,1381
822.035461,1324
822.154053,1348
822.272583,1352
822.391174,1350
822.509583,1340
822.628174,1388
822.746704,1374
822.865234,1317
822.983765,1363
823.102295,1349
823.220825,1348
823.339294,1385
823.457825,1336
823.576355,1350
823.694824,1322
823.813354,1331
823.931885,1351
824.050354,1311
824.168884,1338
824.287354,1359
824.405823,1339
824.524353,1322
824.642822,1310
824.761353,1386
824.879822,1349
824.998291,1322
825.116699,1337
825.235291,1350
825.353699,1327
825.472168,1359
825.590637,1367
825.709106,1327
825.827576,1343
825.946045,1327
826.064453,1335
826.182983,1284
826.301392,1339
826.4198,1317
826.53833,1317
826.656738,1319
826.775208,1331
826.893677,1357
827.012024,1287
827.130493,1300
827.248962,1295
827.36731,1381
827.485779,1298
827.604248,1337
827.722595,1309
827.841064,1282
827.959412,1332
828.077942,1282
828.196289,1318
828.314636,1326
828.433105,1292
828.551514,1282
828.669861,1289
828.78833,1301
828.906677,1303
829.025085,1281
829.143433,1328
829.261841,1301
829.38031,1265
829.498657,1274
829.617004,1299
829.735413,1331
829.85376,1295
829.972107,1286
830.090515,1290
830.208862,1306
830.327209,1305
830.445557,1311
830.563904,1321
830.682312,1339
830.800659,1321
830.919006,1280
831.037354,1304
831.155701,1312
831.274048,1305
831.392395,1337
831.51062,1352
831.629028,1278
831.747314,1285
831.865662,1272
831.984009,1333
832.102356,1311
832.220642,1318
832.338928,1342
832.457275,1283
832.575623,1287
832.693909,1313
832.812134,1282
832.930481,1322
833.048828,1295
833.167114,1273
833.2854,1295
833.403687,1314
833.521973,1320
833.640259,1304
833.758545,1329
833.876831,1265
833.995056,1280
834.113281,1309
834.231628,1319
834.349915,1325
834.468201,1324
834.586426,1285
834.704651,1310
834.822998,1340
834.941162,1293
835.059448,1340
835.177673,1293
835.295959,1300
835.414246,1295
835.53241,1292
835.650635,1304
835.768921,1329
835.887146,1347
836.005371,1309
836.123596,1313
836.241821,1263
836.360046,1288
836.478271,1302
836.596497,1332
836.714722,1292
836.832886,1314
836.95105,1276
837.069336,1334
837.1875,1341
837.305725,1297
837.423889,1324
837.542053,1314
837.660339,1297
837.778503,1327
837.896667,1300
838.014832,1311
838.132996,1301
838.25116,1291
838.369385,1326
838.487488,1295
838.605713,1288
838.723877,1289
838.84198,1334
838.960205,1326
839.078308,1323
839.196472,1306
839.314636,1283
839.4328,1247
839.550964,1314
839.669067,1264
839.787231,1307
839.905396,1304
840.023499,1322
840.141602,1303
840.259766,1312
840.377869,1330
840.495972,1346
840.614136,1344
840.732239,1289
840.850342,1315
840.968445,1292
841.086548,1356
841.204651,1318
841.322754,1327
841.440918,1307
841.55896,1332
841.677002,1280
841.795166,1318
841.913208,1331
842.031311,1329
842.149353,1308
842.267456,1326
842.385498,1301
842.503601,1319
842.621643,1289
842.739746,1316
842.857788,1286
842.97583,1345
843.093933,1295
843.211975,1338
843.330017,1316
843.44812,1307
843.566101,1300
843.684204,1309
843.802246,1317
843.920227,1295
844.038269,1308
844.156311,1304
844.274292,1334
844.392395,1319
844.510376,1290
844.628357,1304
844.74646,1320
844.864441,1318
844.982422,1289
845.100403,1324
845.218384,1289
845.336426,1315
845.454468,1312
845.572449,1287
845.69043,1276
845.808411,1262
845.926453,1334
846.044373,1316
846.162354,1285
846.280396,1291
846.398315,1310
846.516296,1304
846.634216,1321
846.752197,1288
846.870178,1343
846.988098,1296
847.106079,1314
847.22406,1299
847.34198,1317
847.4599,1292
847.577881,1330
847.695801,1321
847.813782,1317
847.931641,1261
848.049561,1298
848.167603,1298
848.285461,1342
848.403381,1309
848.521362,1273
848.639221,1304
848.75708,1273
848.875,1320
848.99292,1277
849.110901,1310
849.22876,1287
849.34668,1329
849.464539,1277
849.582458,1266
849.700317,1338
849.818176,1314
849.936096,1302
850.053955,1313
850.171875,1316
850.289673,1323
850.407593,1303
850.525452,1286
850.643311,1336
850.761169,1312
850.878967,1283
850.996887,1308
851.114746,1294
851.232544,1295
851.350403,1299
851.468262,1337
851.58606,1305
851.703979,1310
851.821777,1323
851.939636,1311
852.057434,1271
852.175232,1299
852.293091,1325
852.410889,1325
852.528687,1288
852.646545,1290
852.764343,1309
852.88208,1369
852.999939,1373
853.117676,1297
853.235535,1325
853.353271,1331
853.471069,1344
853.588928,1333
853.706604,1312
853.824402,1311
853.9422,1338
854.059998,1311
854.177734,1325
854.295532,1312
854.413269,1283
854.531006,1312
854.648804,1295
854.766541,1275
854.884277,1339
855.002014,1328
855.119751,1317
855.237549,1299
855.355225,1320
855.473022,1318
855.590698,1318
855.708435,1327
855.826172,1306
855.943848,1339
856.061646,1332
856.179321,1286
856.296997,1329
856.414795,1324
856.53241,1329
856.650085,1330
856.767822,1350
856.885559,1356
857.003174,1306
857.120911,1363
857.238586,1314
857.356201,1298
857.473938,1328
857.591614,1344
857.709351,1347
857.826965,1297
857.944641,1333
858.062317,1348
858.179993,1333
858.297668,1371
858.415283,1348
858.532959,1310
858.650574,1308
858.768188,1378
858.885803,1296
859.003479,1319
859.121094,1315
859.23877,1312
859.356384,1302
859.473999,1337
859.591675,1314
859.709229,1301
859.826843,1314
859.944458,1272
860.062012,1317
860.179626,1292
860.297302,1321
860.414856,1292
860.532471,1342
860.650024,1332
860.767639,1308
860.885193,1328
861.002808,1300
861.120361,1297
861.237976,1320
861.35553,1341
861.473022,1299
861.590698,1352
861.708191,1315
861.825745,1323
861.943298,1303
862.060852,1312
862.178406,1321
862.295959,1303
862.413513,1330
862.531006,1316
862.64856,1288
862.766113,1302
862.883667,1318
863.00116,1291
863.118713,1322
863.236206,1313
863.353699,1312
863.471252,1298
863.588745,1343
863.706177,1285
863.82373,1309
863.941162,1330
864.058716,1353
864.176208,1315
864.29364,1365
864.411194,1331
864.528687,1318
864.646118,1306
864.763611,1298
864.881042,1309
864.998535,1339
865.116028,1262
865.233459,1311
865.350891,1274
865.468384,1334
865.585754,1331
865.703308,1316
865.820679,1301
865.938171,1300
866.055542,1282
866.173035,1301
866.290466,1341
866.407837,1309
866.52533,1311
866.6427,1325
866.760071,1307
866.877563,1302
866.994934,1288
867.112305,1330
867.229736,1322
867.347107,1328
867.464539,1307
867.58197,1320
867.699341,1314
867.81665,1305
867.934082,1332
868.051453,1302
868.168823,1317
868.286194,1324
868.403564,1331
868.520935,1319
868.638306,1338
868.755676,1291
868.872986,1329
868.990295,1357
869.107727,1349
869.225037,1346
869.342346,1359
869.459717,1314
869.577026,1349
869.694336,1349
869.811707,1298
869.929016,1352
870.046326,1323
870.163635,1361
870.280945,1335
870.398254,1325
870.515564,1324
870.632812,1334
870.750183,1366
870.867432,1361
870.984741,1285
871.102051,1378
871.219299,1364
871.336609,1396
871.453918,1341
871.571106,1365
871.688416,1385
871.805664,1396
871.922852,1364
872.040222,1361
872.157471,1386
872.274719,1361
872.391968,1347
872.509155,1386
872.626465,1346
872.743652,1390
872.860962,1356
872.978149,1339
873.095337,1363
873.212646,1404
873.329834,1368
873.44696,1358
873.564209,1336
873.681396,1390
873.798645,1341
873.915894,1375
874.03302,1338
874.150208,1336
874.267456,1332
874.384583,1377
874.501831,1309
874.618958,1351
874.736145,1358
874.853333,1396
874.970459,1396
875.087646,1358
875.204834,1345
875.32196,1361
875.439148,1363
875.556274,1326
875.673401,1336
875.790527,1318
875.907715,1347
876.024841,1356
876.141968,1336
876.259094,1328
876.376282,1395
876.493347,1379
876.610474,1353
876.7276,1357
876.844727,1326
876.961853,1343
877.078918,1341
877.195984,1375
877.313171,1327
877.430237,1362
877.547302,1346
877.664368,1363
877.781433,1348
877.898499,1345
878.015625,1368
878.13269,1354
878.249695,1327
878.366821,1309
878.483887,1307
878.600952,1364
878.717957,1345
878.834961,1370
878.952087,1334
879.069092,1362
879.186157,1335
879.303162,1340
879.420227,1300
879.537231,1340
879.654236,1327
879.77124,1285
879.888306,1330
880.005249,1354
880.122314,1318
880.239319,1345
880.356323,1334
880.473328,1304
880.590271,1312
880.707275,1308
880.824341,1322
880.941284,1269
881.058228,1308
881.175232,1365
881.292236,1291
881.40918,1305
881.526123,1312
881.643066,1344
881.760071,1336
881.877014,1360
881.993958,1309
882.11084,1311
882.227783,1323
882.344727,1339
882.46167,1313
882.578613,1301
882.695618,1291
882.812439,1339
882.929382,1349
883.046326,1335
883.163208,1309
883.280151,1312
883.397034,1303
883.513916,1361
883.630798,1344
883.747742,1312
883.864563,1330
883.981506,1379
884.098389,1336
884.21521,1356
884.332153,1350
884.448975,1304
884.565796,1358
884.682678,1417
884.7995,1410
884.916443,1380
885.033264,1380
885.150085,1398
885.266968,1421
885.383789,1439
885.500671,1439
885.617493,1443
885.734314,1422
885.851196,1475
885.967896,1436
886.084717,1430
886.201599,1428
886.318359,1429
886.435181,1404
886.552002,1377
886.668762,1420
886.785645,1410
886.902344,1402
887.019165,1383
887.135925,1368
887.252747,1353
887.369446,1383
887.486267,1417
887.603027,1370
887.719788,1384
887.836548,1373
887.953247,1379
888.070068,1295
888.186829,1345
888.303528,1334
888.420288,1387
888.536987,1385
888.653687,1345
888.770447,1315
888.887146,1348
889.003967,1335
889.120667,1343
889.237305,1337
889.354065,1382
889.470703,1362
889.587463,1310
889.704163,1337
889.820862,1302
889.937561,1358
890.054199,1333
890.170837,1362
890.287598,1359
890.404236,1357
890.520874,1383
890.637634,1370
890.754211,1380
890.87085,1335
890.987549,1341
891.104187,1376
891.220886,1295
891.337463,1375
891.454102,1314
891.57074,1378
891.687378,1326
891.804077,1363
891.920654,1344
892.037231,1344
892.15387,1352
892.270447,1316
892.387085,1379
892.503723,1377
892.6203,1385
892.736877,1313
892.853516,1367
892.970032,1392
893.08667,1349
893.203186,1363
893.319763,1352
893.43634,1324
893.552917,1355
893.669556,1315
893.786011,1398
893.902588,1367
894.019165,1390
894.135681,1372
894.252197,1359
894.368835,1394
894.485291,1359
894.601868,1346
894.718384,1409
894.8349,1375
894.951355,1358
895.067932,1349
895.184448,1359
895.300964,1393
895.417419,1346
895.533936,1353
895.650452,1351
895.766907,1397
895.883423,1355
895.999878,1401
896.116333,1357
896.232849,1373
896.349304,1336
896.465759,1372
896.582214,1377
896.698669,1354
896.815125,1412
896.931641,1330
897.048035,1344
897.164551,1361
897.280884,1347
897.397339,1347
897.513794,1383
897.630249,1362
897.746582,1364
897.863098,1401
897.979431,1395
898.095886,1394
898.212341,1312
898.328674,1377
898.445129,1370
898.561462,1398
898.677795,1370
898.794312,1357
898.910645,1372
899.026978,1380
899.143433,1359
899.259766,1362
899.37616,1364
899.492493,1404
899.608765,1367
899.725159,1339
899.841553,1387
899.957947,1370
900.07428,1390
900.190552,1337
900.306946,1421
900.423157,1377
900.53949,1355
900.655884,1326
900.772156,1398
900.888489,1366
901.004822,1366
901.121033,1398
901.237366,1388
901.353699,1397
901.46991,1392
901.586304,1379
901.702515,1363
901.818787,1383
901.93512,1413
902.051331,1400
902.167603,1429
902.283875,1404
902.400085,1399
902.516418,1415
902.632629,1410
902.74884,1391
902.865112,1450
902.981384,1405
903.097595,1450
903.213867,1423
903.330017,1427
903.446289,1423
903.5625,1404
903.67865,1412
903.794922,1449
903.911072,1419
904.027344,1399
904.143494,1416
904.259705,1387
904.375916,1387
904.492065,1381
904.608215,1417
904.724426,1377
904.840576,1402
904.956726,1370
905.072876,1373
905.189087,1363
905.305176,1387
905.421387,1371
905.537537,1375
905.653687,1404
905.769775,1392
905.885925,1352
906.002014,1388
906.118164,1366
906.234314,1378
906.350403,1379
906.466492,1423
906.582642,1378
906.69873,1419
906.814758,1362
906.930908,1441
907.046936,1375
907.163086,1376
907.279175,1416
907.395264,1378
907.511353,1389
907.62738,1408
907.743408,1317
907.859497,1393
907.975525,1371
908.091553,1369
908.207703,1385
908.32373,1413
908.439758,1393
908.555786,1383
908.671814,1369
908.787842,1393
908.90387,1375
909.019775,1414
909.135864,1389
909.251892,1410
909.367859,1395
909.483826,1437
909.599854,1380
909.715881,1436
909.831848,1407
909.947815,1400
910.063782,1379
910.179749,1394
910.295776,1392
910.411743,1391
910.527649,1407
910.643616,1459
910.759583,1420
910.875488,1401
910.991455,1397
911.107361,1409
911.223267,1424
911.339294,1381
911.4552,1394
911.571106,1415
911.687073,1343
911.802979,1376
911.918823,1397
912.034729,1411
912.150635,1382
912.266602,1443
912.382446,1389
912.498352,1362
912.614197,1398
912.730103,1437
912.846008,1347
792.44574,2065
792.56488,2020
792.68396,2055
792.80304,2009
792.92218,1975
793.041199,1960
793.160339,2007
793.279419,1935
793.398499,1881
793.517578,1886
793.636658,1811
793.755737,1850
793.874817,1875
793.993896,1840
794.112976,1860
794.232056,1817
794.351074,1755
794.470215,1819
794.589233,1782
794.708313,1774
794.827393,1757
794.946411,1762
795.065552,1772
795.18457,1772
795.303589,1720
795.422668,1731
795.541687,1695
795.660767,1736
795.779846,1686
795.898865,1687
796.017883,1706
796.136963,1658
796.255981,1691
796.375061,1691
796.49408,1670
796.613037,1701
796.732117,1712
796.851135,1639
796.970154,1685
797.089233,1631
797.208191,1639
797.327271,1668
797.446228,1653
797.565186,1633
797.684265,1659
797.803223,1628
797.922241,1607
798.04126,1613
798.160278,1604
798.279297,1620
798.398315,1618
798.517273,1641
798.636292,1649
798.75531,1616
798.874268,1609
798.993286,1623
799.112244,1572
799.231323,1578
799.350281,1586
799.469238,1598
799.588257,1577
799.707153,1614
799.826111,1555
799.945129,1580
800.064087,1630
800.183044,1555
800.302063,1605
800.421021,1550
800.539978,1565
800.658936,1595
800.777893,1565
800.896912,1558
801.015747,1549
801.134705,1591
801.253723,1606
801.37262,1603
801.491638,1566
801.610535,1543
801.729492,1562
801.84845,1562
801.967407,1552
802.086243,1550
802.205261,1578
802.324158,1572
802.443115,1551
802.562073,1571
802.680969,1606
802.799927,1478
802.918762,1583
803.037659,1555
803.156677,1570
803.275574,1522
803.39447,1561
803.513428,1519
803.632263,1524
803.751221,1538
803.870117,1539
803.989014,1558
804.107971,1571
804.226746,1508
804.345642,1594
804.4646,1557
804.583496,1580
804.702393,1546
804.821228,1552
804.940125,1513
805.059021,1541
805.177917,1518
805.296814,1553
805.415649,1555
805.534546,1506
805.653442,1530
805.772278,1561
805.891113,1531
806.01001,1534
806.128906,1559
806.247742,1501
806.366577,1538
806.485413,1573
806.604309,1559
806.723145,1527
806.84198,1526
806.960876,1513
807.079712,1588
807.198486,1552
807.317383,1554
807.436218,1504
807.554993,1512
807.673889,1504
807.792725,1575
807.91156,1497
808.030396,1527
808.14917,1504
808.268005,1535
808.386841,1538
808.505676,1548
808.624451,1514
808.743286,1517
808.862122,1528
808.980896,1529
809.099731,1557
809.218506,1493
809.337341,1545
809.456116,1496
809.57489,1563
809.693726,1528
809.8125,1555
809.931274,1518
810.050049,1557
810.168884,1490
810.287659,1485
810.406372,1550
810.525269,1498
810.643982,1524
810.762756,1527
810.881531,1504
811.000305,1497
811.11908,1476
811.237854,1523
811.356567,1518
811.475403,1564
811.594116,1494
811.71283,1544
811.831604,1507
811.950378,1561
812.069153,1494
812.187927,1553
812.30658,1506
812.425415,1504
812.544128,1530
812.662781,1505
812.781616,1519
812.900269,1535
813.019043,1518
813.137756,1540
813.256531,1517
813.375244,1532
813.493896,1517
813.612671,1534
813.731384,1507
813.850037,1510
813.96875,1474
814.087524,1485
814.206238,1505
814.324951,1468
814.443604,1497
814.562256,1496
814.68103,1545
814.799683,1499
814.918335,1476
815.037109,1472
815.155762,1510
815.274475,1517
815.393188,1519
815.511841,1483
815.630554,1509
815.749146,1486
815.867859,1492
815.986572,1522
816.105164,1465
816.223877,1501
816.342529,1500
816.461182,1483
816.579895,1501
816.698486,1495
816.817139,1444
816.935791,1489
817.054504,1507
817.173096,1488
817.291748,1481
817.4104,1481
817.529053,1454
817.647644,1494
817.766235,1448
817.884949,1442
818.00354,1432
818.122192,1474
818.240845,1452
818.359436,1432
818.478088,1485
818.59668,1462
818.715271,1391
818.833923,1435
818.952515,1419
819.071106,1397
819.189758,1395
819.30835,1417
819.426941,1419
819.545532,1429
819.664124,1377
819.782715,1385
819.901306,1398
820.019897,1408
820.138489,1391
820.25708,1324
820.375671,1432
820.494202,1389
820.612732,1405
820.731384,1361
820.849915,1365
820.968506,1352
821.087097,1381
821.205627,1375
821.324158,1413
821.442749,1365
821.561279,1394
821.679871,1371
821.798401,1355
821.916931,1353
822.035461,1379
822.154053,1307
822.272583,1378
822.391174,1363
822.509583,1357
822.628174,1360
822.746704,1371
822.865234,1384
822.983765,1353
823.102295,1379
823.220825,1358
823.339294,1338
823.457825,1373
823.576355,1371
823.694824,1375
823.813354,1407
823.931885,1395
824.050354,1382
824.168884,1386
824.287354,1344
824.405823,1370
824.524353,1391
824.642822,1388
824.761353,1362
824.879822,1374
824.998291,1391
825.116699,1374
825.235291,1356
825.353699,1333
825.472168,1340
825.590637,1356
825.709106,1402
825.827576,1346
825.946045,1369
826.064453,1354
826.182983,1338
826.301392,1404
826.4198,1378
826.53833,1293
826.656738,1331
826.775208,1357
826.893677,1353
827.012024,1343
827.130493,1333
827.248962,1355
827.36731,1302
827.485779,1360
827.604248,1336
827.722595,1327
827.841064,1338
827.959412,1340
828.077942,1368
828.196289,1319
828.314636,1323
828.433105,1340
828.551514,1369
828.669861,1339
828.78833,1301
828.906677,1326
829.025085,1331
829.143433,1346
829.261841,1288
829.38031,1332
829.498657,1311
829.617004,1366
829.735413,1336
829.85376,1299
829.972107,1330
830.090515,1319
830.208862,1328
830.327209,1338
830.445557,1330
830.563904,1345
830.682312,1297
830.800659,1340
830.919006,1336
831.037354,1290
831.155701,1322
831.274048,1343
831.392395,1349
831.51062,1322
831.629028,1332
831.747314,1319
831.865662,1318
831.984009,1346
832.102356,1291
832.220642,1350
832.338928,1325
832.457275,1349
832.575623,1378
832.693909,1298
832.812134,1360
832.930481,1343
833.048828,1311
833.167114,1286
833.2854,1355
833.403687,1337
833.521973,1324
833.640259,1296
833.758545,1273
833.876831,1347
833.995056,1337
834.113281,1334
834.231628,1327
834.349915,1355
834.468201,1319
834.586426,1355
834.704651,1345
834.822998,1364
834.941162,1310
835.059448,1323
835.177673,1369
835.295959,1334
835.414246,1317
835.53241,1325
835.650635,1293
835.768921,1321
835.887146,1280
836.005371,1367
836.123596,1326
836.241821,1295
836.360046,1298
836.478271,1328
836.596497,1333
836.714722,1318
836.832886,1279
836.95105,1341
837.069336,1296
837.1875,1333
837.305725,1344
837.423889,1303
837.542053,1334
837.660339,1316
837.778503,1338
837.896667,1315
838.014832,1315
838.132996,1285
838.25116,1352
838.369385,1324
838.487488,1346
838.605713,1337
838.723877,1341
838.84198,1356
838.960205,1357
839.078308,1321
839.196472,1317
839.314636,1341
839.4328,1343
839.550964,1336
839.669067,1327
839.787231,1333
839.905396,1336
840.023499,1325
840.141602,1335
840.259766,1325
840.377869,1381
840.495972,1328
840.614136,1355
840.732239,1337
840.850342,1305
840.968445,1348
841.086548,1351
841.204651,1351
841.322754,1362
841.440918,1368
841.55896,1350
841.677002,1326
841.795166,1338
841.913208,1326
842.031311,1323
842.149353,1340
842.267456,1328
842.385498,1349
842.503601,1325
842.621643,1300
842.739746,1353
842.857788,1326
842.97583,1324
843.093933,1337
843.211975,1323
843.330017,1325
843.44812,1340
843.566101,1325
843.684204,1332
843.802246,1315
843.920227,1325
844.038269,1322
844.156311,1336
844.274292,1329
844.392395,1378
844.510376,1350
844.628357,1328
844.74646,1342
844.864441,1330
844.982422,1354
845.100403,1290
845.218384,1343
845.336426,1300
845.454468,1353
845.572449,1327
845.69043,1330
845.808411,1312
845.926453,1321
846.044373,1324
846.162354,1312
846.280396,1324
846.398315,1273
846.516296,1367
846.634216,1321
846.752197,1310
846.870178,1353
846.988098,1354
847.106079,1314
847.22406,1344
847.34198,1344
847.4599,1341
847.577881,1361
847.695801,1291
847.813782,1320
847.931641,1332
848.049561,1344
848.167603,1319
848.285461,1390
848.403381,2906
848.521362,1291
848.639221,1338
848.75708,1324
848.875,1331
848.99292,1357
849.110901,1316
849.22876,1344
849.34668,1340
849.464539,1317
849.582458,1328
849.700317,1347
849.818176,1343
849.936096,1289
850.053955,1327
850.171875,1387
850.289673,1365
850.407593,1356
850.525452,1351
850.643311,1357
850.761169,1362
850.878967,1324
850.996887,1306
851.114746,1331
851.232544,1308
851.350403,1313
851.468262,1346
851.58606,1363
851.703979,1327
851.821777,1350
851.939636,1300
852.057434,1328
852.175232,1347
852.293091,1349
852.410889,1356
852.528687,1380
852.646545,1358
852.764343,1384
852.88208,1366
852.999939,1376
853.117676,1346
853.235535,1351
853.353271,1343
853.471069,1347
853.588928,1323
853.706604,1344
853.824402,1341
853.9422,1348
854.059998,1338
854.177734,1375
854.295532,1340
854.413269,1371
854.531006,1333
854.648804,1355
854.766541,1333
854.884277,1316
855.002014,1315
855.119751,1340
855.237549,1355
855.355225,1352
855.473022,1384
855.590698,1320
855.708435,1335
855.826172,1331
855.943848,1367
856.061646,1361
856.179321,1330
856.296997,1326
856.414795,1319
856.53241,1315
856.650085,1349
856.767822,1346
856.885559,1351
857.003174,1317
857.120911,1344
857.238586,1341
857.356201,1389
857.473938,1354
857.591614,1369
857.709351,1380
857.826965,1316
857.944641,1340
858.062317,1368
858.179993,1342
858.297668,1337
858.415283,1341
858.532959,1396
858.650574,1366
858.768188,1376
858.885803,1366
859.003479,1333
859.121094,1387
859.23877,1311
859.356384,1338
859.473999,1343
859.591675,1363
859.709229,1353
859.826843,1330
859.944458,1305
860.062012,1329
860.179626,1334
860.297302,1288
860.414856,1347
860.532471,1348
860.650024,1334
860.767639,1349
860.885193,1315
861.002808,1386
861.120361,1347
861.237976,1342
861.35553,1328
861.473022,1303
861.590698,1360
861.708191,1327
861.825745,1359
861.943298,1368
862.060852,1348
862.178406,1356
862.295959,1351
862.413513,1334
862.531006,1321
862.64856,1324
862.766113,1328
862.883667,1337
863.00116,1310
863.118713,1301
863.236206,1338
863.353699,1295
863.471252,1350
863.588745,1310
863.706177,1324
863.82373,1337
863.941162,1366
864.058716,1311
864.176208,1316
864.29364,1331
864.411194,1353
864.528687,1308
864.646118,1361
864.763611,1333
864.881042,1351
864.998535,1368
865.116028,1364
865.233459,1324
865.350891,1353
865.468384,1353
865.585754,1313
865.703308,1343
865.820679,1323
865.938171,1379
866.055542,1347
866.173035,1328
866.290466,1318
866.407837,1322
866.52533,1346
866.6427,1330
866.760071,1312
866.877563,1326
866.994934,1395
867.112305,1326
867.229736,1324
867.347107,1299
867.464539,1344
867.58197,1317
867.699341,1346
867.81665,1342
867.934082,1316
868.051453,1346
868.168823,1314
868.286194,1351
868.403564,1326
868.520935,1352
868.638306,1315
868.755676,1359
868.872986,1338
868.990295,1359
869.107727,1358
869.225037,1367
869.342346,1335
869.459717,1365
869.577026,1353
869.694336,1350
869.811707,1402
869.929016,1336
870.046326,1379
870.163635,1368
870.280945,1354
870.398254,1378
870.515564,1356
870.632812,1331
870.750183,1332
870.867432,1362
870.984741,1358
871.102051,1395
871.219299,1331
871.336609,1386
871.453918,1360
871.571106,1441
871.688416,1341
871.805664,1370
871.922852,1379
872.040222,1373
872.157471,1363
872.274719,1374
872.391968,1394
872.509155,1385
872.626465,1370
872.743652,1366
872.860962,1363
872.978149,1367
873.095337,1349
873.212646,1387
873.329834,1363
873.44696,1378
873.564209,1376
873.681396,1378
873.798645,1383
873.915894,1404
874.03302,1398
874.150208,1378
874.267456,1419
874.384583,1383
874.501831,1376
874.618958,1402
874.736145,1363
874.853333,1407
874.970459,1380
875.087646,1376
875.204834,1420
875.32196,1395
875.439148,1396
875.556274,1395
875.673401,1411
875.790527,1389
875.907715,1406
876.024841,1378
876.141968,1354
876.259094,1419
876.376282,1357
876.493347,1428
876.610474,1394
876.7276,1364
876.844727,1407
876.961853,1355
877.078918,1346
877.195984,1334
877.313171,1387
877.430237,1360
877.547302,1400
877.664368,1377
877.781433,1305
877.898499,1362
878.015625,1393
878.13269,1370
878.249695,1349
878.366821,1360
878.483887,1348
878.600952,1371
878.717957,1375
878.834961,1344
878.952087,1371
879.069092,1338
879.186157,1359
879.303162,1392
879.420227,1371
879.537231,1377
879.654236,1379
879.77124,1369
879.888306,1348
880.005249,1362
880.122314,1361
880.239319,1367
880.356323,1345
880.473328,1390
880.590271,1365
880.707275,1351
880.824341,1344
880.941284,1327
881.058228,1354
881.175232,1356
881.292236,1345
881.40918,1361
881.526123,1361
881.643066,1363
881.760071,1365
881.877014,1354
881.993958,1314
882.11084,1384
882.227783,1377
882.344727,1361
882.46167,1347
882.578613,1351
882.695618,1378
882.812439,1364
882.929382,1357
883.046326,1378
883.163208,1335
883.280151,1392
883.397034,1355
883.513916,1359
883.630798,1378
883.747742,1374
883.864563,1366
883.981506,1330
884.098389,1373
884.21521,1369
884.332153,1412
884.448975,1356
884.565796,1408
884.682678,1431
884.7995,1431
884.916443,1433
885.033264,1458
885.150085,1396
885.266968,1436
885.383789,1449
885.500671,1477
885.617493,1479
885.734314,1416
885.851196,1431
885.967896,1464
886.084717,1418
886.201599,1448
886.318359,1440
886.435181,1435
886.552002,1458
886.668762,1445
886.785645,1425
886.902344,1426
887.019165,1452
887.135925,1445
887.252747,1437
887.369446,1457
887.486267,1417
887.603027,1425
887.719788,1370
887.836548,1412
887.953247,1376
888.070068,1469
888.186829,1365
888.303528,1388
888.420288,1400
888.536987,1372
888.653687,1385
888.770447,1392
888.887146,1381
889.003967,1375
889.120667,1350
889.237305,1371
889.354065,1386
889.470703,1334
889.587463,1387
889.704163,1368
889.820862,1384
889.937561,1351
890.054199,1363
890.170837,1411
890.287598,1373
890.404236,1375
890.520874,1347
890.637634,1399
890.754211,1347
890.87085,1334
890.987549,1400
891.104187,1397
891.220886,1395
891.337463,1402
891.454102,1404
891.57074,1408
891.687378,1393
891.804077,1435
891.920654,1407
892.037231,1324
892.15387,1401
892.270447,1351
892.387085,1412
892.503723,1440
892.6203,1373
892.736877,1383
892.853516,1403
892.970032,1383
893.08667,1380
893.203186,1369
893.319763,1366
893.43634,1413
893.552917,1362
893.669556,1361
893.786011,1430
893.902588,1370
894.019165,1420
894.135681,1393
894.252197,1406
894.368835,1429
894.485291,1417
894.601868,1409
894.718384,1419
894.8349,1402
894.951355,1390
895.067932,1398
895.184448,1400
895.300964,1380
895.417419,1416
895.533936,1357
895.650452,1424
895.766907,1388
895.883423,1367
895.999878,1404
896.116333,1377
896.232849,1401
896.349304,1408
896.465759,1363
896.582214,1424
896.698669,1391
896.815125,1376
896.931641,1428
897.048035,1393
897.164551,1392
897.280884,1365
897.397339,1420
897.513794,1366
897.630249,1384
897.746582,1355
897.863098,1423
897.979431,1369
898.095886,1361
898.212341,1397
898.328674,1397
898.445129,1416
898.561462,1408
898.677795,1366
898.794312,1377
898.910645,1387
899.026978,1432
899.143433,1410
899.259766,1404
899.37616,1412
899.492493,1384
899.608765,1405
899.725159,1423
899.841553,1403
899.957947,1434
900.07428,1435
900.190552,1353
900.306946,1380
900.423157,1423
900.53949,1423
900.655884,1455
900.772156,1377
900.888489,1400
901.004822,1430
901.121033,1461
901.237366,1380
901.353699,1404
901.46991,1412
901.586304,1446
901.702515,1409
901.818787,1443
901.93512,1427
902.051331,1442
902.167603,1424
902.283875,1426
902.400085,1454
902.516418,1410
902.632629,1446
902.74884,1419
902.865112,1472
902.981384,1493
903.097595,1489
903.213867,1460
903.330017,1474
903.446289,1484
903.5625,1440
903.67865,1462
903.794922,1455
903.911072,1403
904.027344,1472
904.143494,1440
904.259705,1440
904.375916,1438
904.492065,1446
904.608215,1435
904.724426,1413
904.840576,1431
904.956726,1421
905.072876,1418
905.189087,1382
905.305176,1441
905.421387,1393
905.537537,1417
905.653687,1417
905.769775,1405
905.885925,1396
906.002014,1396
906.118164,1393
906.234314,1403
906.350403,1437
906.466492,1424
906.582642,1392
906.69873,1426
906.814758,1408
906.930908,1439
907.046936,1452
907.163086,1436
907.279175,1416
907.395264,1420
907.511353,1416
907.62738,1436
907.743408,1468
907.859497,1452
907.975525,1421
908.091553,1427
908.207703,1391
908.32373,1460
908.439758,1456
908.555786,1415
908.671814,1457
908.787842,1482
908.90387,1400
909.019775,1417
909.135864,1429
909.251892,1411
909.367859,1446
909.483826,1424
909.599854,1431
909.715881,1464
909.831848,1444
909.947815,1438
910.063782,1447
910.179749,1443
910.295776,1416
910.411743,1445
910.527649,1451
910.643616,1445
910.759583,1452
910.875488,1436
910.991455,1441
911.107361,1418
911.223267,1473
911.339294,1463
911.4552,1439
911.571106,1417
911.687073,1413
911.802979,1458
911.918823,1423
912.034729,1440
912.150635,1463
912.266602,1423
912.382446,1485
912.498352,1469
912.614197,1393
912.730103,1439
912.846008,1420
792.44574,2026
792.56488,2000
792.68396,2068
792.80304,2013
792.92218,1932
793.041199,1924
793.160339,1900
793.279419,1953
793.398499,1941
793.517578,1932
793.636658,1866
793.755737,1896
793.874817,1873
793.993896,1815
794.112976,1863
794.232056,1790
794.351074,1819
794.470215,1793
794.589233,1769
794.708313,1773
794.827393,1787
794.946411,1762
795.065552,1750
795.18457,1804
795.303589,1744
795.422668,1728
795.541687,1763
795.660767,1720
795.779846,1747
795.898865,1703
796.017883,1753
796.136963,1712
796.255981,1683
796.375061,1702
796.49408,1716
796.613037,1656
796.732117,1641
796.851135,1663
796.970154,1655
797.089233,1623
797.208191,1646
797.327271,1645
797.446228,1655
797.565186,1638
797.684265,1689
797.803223,1643
797.922241,1645
798.04126,1616
798.160278,1614
798.279297,1645
798.398315,1601
798.517273,1639
798.636292,1614
798.75531,1591
798.874268,1629
798.993286,1641
799.112244,1630
799.231323,1571
799.350281,1574
799.469238,1600
799.588257,1609
799.707153,1595
799.826111,1632
799.945129,1580
800.064087,1612
800.183044,1614
800.302063,1602
800.421021,1616
800.539978,1595
800.658936,1604
800.777893,1621
800.896912,1578
801.015747,1553
801.134705,1583
801.253723,1555
801.37262,1576
801.491638,1567
801.610535,1588
801.729492,1588
801.84845,1558
801.967407,1592
802.086243,1564
802.205261,1583
802.324158,1566
802.443115,1567
802.562073,1528
802.680969,1627
802.799927,1586
802.918762,1586
803.037659,1585
803.156677,1588
803.275574,1551
803.39447,1588
803.513428,1552
803.632263,1591
803.751221,1570
803.870117,1562
803.989014,1532
804.107971,1559
804.226746,1552
804.345642,1571
804.4646,1571
804.583496,1591
804.702393,1551
804.821228,1565
804.940125,1583
805.059021,1567
805.177917,1551
805.296814,1534
805.415649,1570
805.534546,1553
805.653442,1529
805.772278,1557
805.891113,1556
806.01001,1519
806.128906,1573
806.247742,1597
806.366577,1543
806.485413,1508
806.604309,1547
806.723145,1556
806.84198,1578
806.960876,1537
807.079712,1553
807.198486,1557
807.317383,1515
807.436218,1501
807.554993,1550
807.673889,1572
807.792725,1546
807.91156,1517
808.030396,1518
808.14917,1537
808.268005,1514
808.386841,1524
808.505676,1515
808.624451,1518
808.743286,1548
808.862122,1538
808.980896,1547
809.099731,1562
809.218506,1508
809.337341,1563
809.456116,1505
809.57489,1529
809.693726,1545
809.8125,1553
809.931274,1555
810.050049,1539
810.168884,1542
810.287659,1540
810.406372,1545
810.525269,1586
810.643982,1566
810.762756,1505
810.881531,1515
811.000305,1518
811.11908,1552
811.237854,1479
811.356567,1533
811.475403,1518
811.594116,1493
811.71283,1567
811.831604,1544
811.950378,1591
812.069153,1472
812.187927,1563
812.30658,1561
812.425415,1545
812.544128,1521
812.662781,1528
812.781616,1546
812.900269,1547
813.019043,1560
813.137756,1584
813.256531,1507
813.375244,1522
813.493896,1481
813.612671,1498
813.731384,1535
813.850037,1507
813.96875,1516
814.087524,1528
814.206238,1544
814.324951,1525
814.443604,1467
814.562256,1548
814.68103,1505
814.799683,1528
814.918335,1518
815.037109,1480
815.155762,1497
815.274475,1483
815.393188,1526
815.511841,1509
815.630554,1479
815.749146,1495
815.867859,1478
815.986572,1506
816.105164,1482
816.223877,1472
816.342529,1489
816.461182,1465
816.579895,1477
816.698486,1510
816.817139,1510
816.935791,1513
817.054504,1528
817.173096,1456
817.291748,1476
817.4104,1523
817.529053,1480
817.647644,1483
817.766235,1486
817.884949,1512
818.00354,1487
818.122192,1482
818.240845,1453
818.359436,1454
818.478088,1471
818.59668,1438
818.715271,1463
818.833923,1479
818.952515,1386
819.071106,1424
819.189758,1422
819.30835,1454
819.426941,1400
819.545532,1426
819.664124,1419
819.782715,1390
819.901306,1420
820.019897,1413
820.138489,1386
820.25708,1439
820.375671,1439
820.494202,1392
820.612732,1393
820.731384,1405
820.849915,1411
820.968506,1389
821.087097,1421
821.205627,1424
821.324158,1373
821.442749,1404
821.561279,1404
821.679871,1413
821.798401,1363
821.916931,1376
822.035461,1393
822.154053,1430
822.272583,1397
822.391174,1381
822.509583,1385
822.628174,1360
822.746704,1375
822.865234,1396
822.983765,1378
823.102295,1426
823.220825,1387
823.339294,1365
823.457825,1375
823.576355,1347
823.694824,1402
823.813354,1340
823.931885,1353
824.050354,1407
824.168884,1349
824.287354,1356
824.405823,1342
824.524353,1386
824.642822,1410
824.761353,1402
824.879822,1393
824.998291,1404
825.116699,1395
825.235291,1356
825.353699,1378
825.472168,1346
825.590637,1367
825.709106,1383
825.827576,1380
825.946045,1376
826.064453,1388
826.182983,1342
826.301392,1360
826.4198,1330
826.53833,1362
826.656738,1353
826.775208,1403
826.893677,1352
827.012024,1368
827.130493,1404
827.248962,1351
827.36731,1367
827.485779,1366
827.604248,1352
827.722595,1341
827.841064,1366
827.959412,1348
828.077942,1335
828.196289,1315
828.314636,1334
828.433105,1346
828.551514,1364
828.669861,1347
828.78833,1361
828.906677,1328
829.025085,1324
829.143433,1371
829.261841,1300
829.38031,1316
829.498657,1364
829.617004,1344
829.735413,1341
829.85376,1319
829.972107,1381
830.090515,1354
830.208862,1335
830.327209,1327
830.445557,1364
830.563904,1326
830.682312,1357
830.800659,1327
830.919006,1339
831.037354,1346
831.155701,1370
831.274048,1349
831.392395,1365
831.51062,1342
831.629028,1371
831.747314,1297
831.865662,1381
831.984009,1340
832.102356,1390
832.220642,1365
832.338928,1377
832.457275,1413
832.575623,1333
832.693909,1296
832.812134,1302
832.930481,1361
833.048828,1354
833.167114,1365
833.2854,1300
833.403687,1340
833.521973,1384
833.640259,1324
833.758545,1375
833.876831,1311
833.995056,1380
834.113281,1349
834.231628,1325
834.349915,1312
834.468201,1349
834.586426,1339
834.704651,1321
834.822998,1345
834.941162,1359
835.059448,1308
835.177673,1340
835.295959,1314
835.414246,1338
835.53241,1340
835.650635,1309
835.768921,1365
835.887146,1341
836.005371,1332
836.123596,1348
836.241821,1329
836.360046,1305
836.478271,1366
836.596497,1333
836.714722,1308
836.832886,1360
836.95105,1364
837.069336,1335
837.1875,1301
837.305725,1383
837.423889,1349
837.542053,1365
837.660339,1324
837.778503,1341
837.896667,1340
838.014832,1322
838.132996,1298
838.25116,1361
838.369385,1302
838.487488,1337
838.605713,1336
838.723877,1331
838.84198,1365
838.960205,1328
839.078308,1379
839.196472,1362
839.314636,1317
839.4328,1343
839.550964,1367
839.669067,1333
839.787231,1353
839.905396,1332
840.023499,1349
840.141602,1382
840.259766,1361
840.377869,1349
840.495972,1438
840.614136,1365
840.732239,1368
840.850342,1312
840.968445,1387
841.086548,1336
841.204651,1366
841.322754,1361
841.440918,1337
841.55896,1324
841.677002,1342
841.795166,1317
841.913208,1342
842.031311,1364
842.149353,1344
842.267456,1366
842.385498,1332
842.503601,1368
842.621643,1342
842.739746,1333
842.857788,1357
842.97583,1313
843.093933,1372
843.211975,1346
843.330017,1323
843.44812,1343
843.566101,1316
843.684204,1362
843.802246,1361
843.920227,1354
844.038269,1337
844.156311,1347
844.274292,1351
844.392395,1336
844.510376,1366
844.628357,1379
844.74646,1322
844.864441,1346
844.982422,1357
845.100403,1305
845.218384,1350
845.336426,1335
845.454468,1357
845.572449,1328
845.69043,1419
845.808411,1290
845.926453,1353
846.044373,1315
846.162354,1286
846.280396,1332
846.398315,1309
846.516296,1377
846.634216,1314
846.752197,1319
846.870178,1350
846.988098,1352
847.106079,1356
847.22406,1301
847.34198,1353
847.4599,1275
847.577881,1322
847.695801,1325
847.813782,1316
847.931641,1331
848.049561,1301
848.167603,1329
848.285461,1347
848.403381,1335
848.521362,1348
848.639221,1366
848.75708,1359
848.875,1336
848.99292,1347
849.110901,1380
849.22876,1326
849.34668,1337
849.464539,1333
849.582458,1348
849.700317,1315
849.818176,1353
849.936096,1320
850.053955,1351
850.171875,1371
850.289673,1367
850.407593,1319
850.525452,1324
850.643311,1351
850.761169,1327
850.878967,1314
850.996887,1353
851.114746,1320
851.232544,1324
851.350403,1356
851.468262,1334
851.58606,1310
851.703979,1361
851.821777,1342
851.939636,1348
852.057434,1316
852.175232,1351
852.293091,1341
852.410889,1365
852.528687,1365
852.646545,1348
852.764343,1368
852.88208,1410
852.999939,1338
853.117676,1356
853.235535,1357
853.353271,1354
853.471069,1310
853.588928,1316
853.706604,1308
853.824402,1359
853.9422,1381
854.059998,1333
854.177734,1351
854.295532,1321
854.413269,1324
854.531006,1362
854.648804,1338
854.766541,1345
854.884277,1364
855.002014,1348
855.119751,1311
855.237549,1364
855.355225,1375
855.473022,1376
855.590698,1323
855.708435,1368
855.826172,1317
855.943848,1362
856.061646,1369
856.179321,1333
856.296997,1325
856.414795,1359
856.53241,1364
856.650085,1341
856.767822,1378
856.885559,1392
857.003174,1346
857.120911,1382
857.238586,1352
857.356201,1361
857.473938,1376
857.591614,1336
857.709351,1367
857.826965,1366
857.944641,1380
858.062317,1367
858.179993,1370
858.297668,1319
858.415283,1377
858.532959,1371
858.650574,1412
858.768188,1387
858.885803,1384
859.003479,1340
859.121094,1364
859.23877,1342
859.356384,1335
859.473999,1318
859.591675,1309
859.709229,1383
859.826843,1345
859.944458,1346
860.062012,1378
860.179626,1329
860.297302,1333
860.414856,1325
860.532471,1349
860.650024,1370
860.767639,1322
860.885193,1328
861.002808,1343
861.120361,1369
861.237976,1339
861.35553,1349
861.473022,1354
861.590698,1370
861.708191,1351
861.825745,1377
861.943298,1319
862.060852,1308
862.178406,1349
862.295959,1353
862.413513,1324
862.531006,1365
862.64856,1342
862.766113,1337
862.883667,1372
863.00116,1331
863.118713,1348
863.236206,1355
863.353699,1325
863.471252,1341
863.588745,1325
863.706177,1351
863.82373,1336
863.941162,1363
864.058716,1350
864.176208,1371
864.29364,1363
864.411194,1362
864.528687,1368
864.646118,1374
864.763611,1369
864.881042,1337
864.998535,1346
865.116028,1354
865.233459,1300
865.350891,1334
865.468384,1372
865.585754,1323
865.703308,1352
865.820679,1379
865.938171,1347
866.055542,1360
866.173035,1339
866.290466,1368
866.407837,1362
866.52533,1351
866.6427,1342
866.760071,1328
866.877563,1356
866.994934,1375
867.112305,1383
867.229736,1341
867.347107,1384
867.464539,1364
867.58197,1324
867.699341,1344
867.81665,1338
867.934082,1379
868.051453,1338
868.168823,1360
868.286194,1354
868.403564,1316
868.520935,1358
868.638306,1379
868.755676,1385
868.872986,1395
868.990295,1381
869.107727,1374
869.225037,1346
869.342346,1363
869.459717,1365
869.577026,1401
869.694336,1368
869.811707,1344
869.929016,1342
870.046326,1381
870.163635,1377
870.280945,1413
870.398254,1375
870.515564,1371
870.632812,1391
870.750183,1372
870.867432,1359
870.984741,1364
871.102051,1375
871.219299,1418
871.336609,1402
871.453918,1413
871.571106,1386
871.688416,1369
871.805664,1412
871.922852,1373
872.040222,1418
872.157471,1376
872.274719,1372
872.391968,1350
872.509155,1387
872.626465,1369
872.743652,1397
872.860962,1382
872.978149,1391
873.095337,1450
873.212646,1379
873.329834,1395
873.44696,1363
873.564209,1384
873.681396,1397
873.798645,1405
873.915894,1423
874.03302,1374
874.150208,1359
874.267456,1400
874.384583,1403
874.501831,1402
874.618958,1415
874.736145,1363
874.853333,1399
874.970459,1379
875.087646,1381
875.204834,1409
875.32196,1412
875.439148,1424
875.556274,1372
875.673401,1454
875.790527,1393
875.907715,1363
876.024841,1330
876.141968,1416
876.259094,1369
876.376282,1429
876.493347,1336
876.610474,1362
876.7276,1399
876.844727,1390
876.961853,1339
877.078918,1374
877.195984,1420
877.313171,1377
877.430237,1371
877.547302,1392
877.664368,1366
877.781433,1348
877.898499,1404
878.015625,1367
878.13269,1361
878.249695,1398
878.366821,1378
878.483887,1407
878.600952,1368
878.717957,1359
878.834961,1365
878.952087,1379
879.069092,1407
879.186157,1366
879.303162,1345
879.420227,1378
879.537231,1404
879.654236,1373
879.77124,1378
879.888306,1351
880.005249,1327
880.122314,1370
880.239319,1319
880.356323,1368
880.473328,1359
880.590271,1367
880.707275,1372
880.824341,1381
880.941284,1366
881.058228,1364
881.175232,1366
881.292236,1366
881.40918,1345
881.526123,1350
881.643066,1354
881.760071,1408
881.877014,1357
881.993958,1367
882.11084,1332
882.227783,1378
882.344727,1354
882.46167,1367
882.578613,1356
882.695618,1411
882.812439,1388
882.929382,1347
883.046326,1369
883.163208,1387
883.280151,1312
883.397034,1393
883.513916,1400
883.630798,1390
883.747742,1384
883.864563,1371
883.981506,1387
884.098389,1396
884.21521,1339
884.332153,1386
884.448975,1384
884.565796,1407
884.682678,1406
884.7995,1402
884.916443,1439
885.033264,1400
885.150085,1484
885.266968,1459
885.383789,1457
885.500671,1460
885.617493,1487
885.734314,1478
885.851196,1457
885.967896,1424
886.084717,1444
886.201599,1421
886.318359,1470
886.435181,1406
886.552002,1463
886.668762,1473
886.785645,1467
886.902344,1414
887.019165,1455
887.135925,1454
887.252747,1405
887.369446,1443
887.486267,1432
887.603027,1441
887.719788,1411
887.836548,1386
887.953247,1371
888.070068,1412
888.186829,1362
888.303528,1416
888.420288,1358
888.536987,1350
888.653687,1381
888.770447,1378
888.887146,1370
889.003967,1386
889.120667,1372
889.237305,1396
889.354065,1379
889.470703,1411
889.587463,1414
889.704163,1383
889.820862,1386
889.937561,1376
890.054199,1382
890.170837,1347
890.287598,1378
890.404236,1358
890.520874,1372
890.637634,1395
890.754211,1393
890.87085,1371
890.987549,1332
891.104187,1442
891.220886,1396
891.337463,1425
891.454102,1394
891.57074,1390
891.687378,1451
891.804077,1395
891.920654,1364
892.037231,1390
892.15387,1393
892.270447,1421
892.387085,1379
892.503723,1402
892.6203,1373
892.736877,1405
892.853516,1423
892.970032,1408
893.08667,1380
893.203186,1382
893.319763,1409
893.43634,1361
893.552917,1421
893.669556,1358
893.786011,1421
893.902588,1384
894.019165,1399
894.135681,1398
894.252197,1398
894.368835,1403
894.485291,1408
894.601868,1404
894.718384,1423
894.8349,1408
894.951355,1401
895.067932,1412
895.184448,1410
895.300964,1422
895.417419,1388
895.533936,1391
895.650452,1370
895.766907,1416
895.883423,1419
895.999878,1426
896.116333,1422
896.232849,1393
896.349304,1416
896.465759,1398
896.582214,1413
896.698669,1419
896.815125,1424
896.931641,1353
897.048035,1465
897.164551,1361
897.280884,1438
897.397339,1376
897.513794,1393
897.630249,1440
897.746582,1386
897.863098,1430
897.979431,1417
898.095886,1406
898.212341,1405
898.328674,1392
898.445129,1466
898.561462,1414
898.677795,1400
898.794312,1414
898.910645,1412
899.026978,1410
899.143433,1395
899.259766,1405
899.37616,1421
899.492493,1419
899.608765,1439
899.725159,1424
899.841553,1459
899.957947,1419
900.07428,1426
900.190552,1473
900.306946,1367
900.423157,1418
900.53949,1441
900.655884,1435
900.772156,1371
900.888489,1404
901.004822,1411
901.121033,1422
901.237366,1396
901.353699,1411
901.46991,1450
901.586304,1446
901.702515,1442
901.818787,1456
901.93512,1438
902.051331,1444
902.167603,1449
902.283875,1512
902.400085,1413
902.516418,1458
902.632629,1454
902.74884,1459
902.865112,1493
902.981384,1491
903.097595,1461
903.213867,1501
903.330017,1467
903.446289,1463
903.5625,1447
903.67865,1471
903.794922,1466
903.911072,1471
904.027344,1475
904.143494,1447
904.259705,1438
904.375916,1420
904.492065,1446
904.608215,1482
904.724426,1401
904.840576,1427
904.956726,1429
905.072876,1448
905.189087,1430
905.305176,1432
905.421387,1465
905.537537,1466
905.653687,1452
905.769775,1446
905.885925,1461
906.002014,1425
906.118164,1425
906.234314,1442
906.350403,1444
906.466492,1472
906.582642,1439
906.69873,1434
906.814758,1464
906.930908,1425
907.046936,1436
907.163086,1426
907.279175,1425
907.395264,1482
907.511353,1465
907.62738,1448
907.743408,1409
907.859497,1465
907.975525,1477
908.091553,1440
908.207703,1457
908.32373,1465
908.439758,1441
908.555786,1424
908.671814,1452
908.787842,1476
908.90387,1463
909.019775,1429
909.135864,1445
909.251892,1472
909.367859,1453
909.483826,1406
909.599854,1425
909.715881,1466
909.831848,1437
909.947815,1475
910.063782,1443
910.179749,1426
910.295776,1477
910.411743,1430
910.527649,1443
910.643616,1465
910.759583,1467
910.875488,1457
910.991455,1457
911.107361,1457
911.223267,1448
911.339294,1446
911.4552,1465
911.571106,1448
911.687073,1415
911.802979,1416
911.918823,1423
912.034729,1451
912.150635,1469
912.266602,1445
912.382446,1413
912.498352,1441
912.614197,1456
912.730103,1470
912.846008,1443
