792.44574,2573
792.56488,2468
792.68396,2538
792.80304,2425
792.92218,2422
793.041199,2307
793.160339,2370
793.279419,2344
793.398499,2335
793.517578,2352
793.636658,2258
793.755737,2294
793.874817,2217
793.993896,2244
794.112976,2202
794.232056,2146
794.351074,2186
794.470215,2230
794.589233,2164
794.708313,2134
794.827393,2140
794.946411,2094
795.065552,2116
795.18457,2070
795.303589,2067
795.422668,2060
795.541687,2072
795.660767,2073
795.779846,2106
795.898865,2074
796.017883,2071
796.136963,2067
796.255981,2030
796.375061,1992
796.49408,2043
796.613037,2027
796.732117,2039
796.851135,2010
796.970154,1961
797.089233,1957
797.208191,1955
797.327271,1960
797.446228,1917
797.565186,1954
797.684265,1962
797.803223,1947
797.922241,1951
798.04126,1942
798.160278,1893
798.279297,1974
798.398315,1951
798.517273,1958
798.636292,1945
798.75531,1956
798.874268,1977
798.993286,1949
799.112244,1936
799.231323,1958
799.350281,1934
799.469238,1932
799.588257,1950
799.707153,1919
799.826111,1958
799.945129,1928
800.064087,1921
800.183044,1899
800.302063,1897
800.421021,1971
800.539978,1944
800.658936,1942
800.777893,1936
800.896912,1879
801.015747,1962
801.134705,1900
801.253723,1930
801.37262,1918
801.491638,1937
801.610535,1915
801.729492,1930
801.84845,1906
801.967407,1906
802.086243,1957
802.205261,1963
802.324158,1959
802.443115,1950
802.562073,1989
802.680969,1941
802.799927,1975
802.918762,1978
803.037659,1972
803.156677,1975
803.275574,1965
803.39447,1975
803.513428,1960
803.632263,1981
803.751221,1941
803.870117,1980
803.989014,1963
804.107971,1924
804.226746,1956
804.345642,1951
804.4646,1995
804.583496,1963
804.702393,1974
804.821228,1972
804.940125,1987
805.059021,2039
805.177917,2003
805.296814,1987
805.415649,2053
805.534546,2013
805.653442,2001
805.772278,2023
805.891113,2014
806.01001,2011
806.128906,2025
806.247742,2038
806.366577,1985
806.485413,2010
806.604309,2005
806.723145,1979
806.84198,2045
806.960876,1959
807.079712,2019
807.198486,1990
807.317383,2015
807.436218,2044
807.554993,1990
807.673889,2002
807.792725,2009
807.91156,2024
808.030396,2006
808.14917,2000
808.268005,2036
808.386841,2005
808.505676,2047
808.624451,2049
808.743286,2058
808.862122,1992
808.980896,2076
809.099731,2036
809.218506,2050
809.337341,2104
809.456116,2037
809.57489,2071
809.693726,2033
809.8125,2060
809.931274,2095
810.050049,2063
810.168884,2052
810.287659,2101
810.406372,2118
810.525269,2064
810.643982,2040
810.762756,2095
810.881531,2083
811.000305,2083
811.11908,2028
811.237854,2075
811.356567,2061
811.475403,2059
811.594116,2074
811.71283,2074
811.831604,2117
811.950378,2065
812.069153,2094
812.187927,2047
812.30658,2067
812.425415,2065
812.544128,2074
812.662781,2128
812.781616,2064
812.900269,2047
813.019043,2103
813.137756,2038
813.256531,2093
813.375244,2082
813.493896,2036
813.612671,2106
813.731384,2080
813.850037,2123
813.96875,2079
814.087524,2085
814.206238,2076
814.324951,2046
814.443604,2011
814.562256,2030
814.68103,2062
814.799683,2025
814.918335,2022
815.037109,2078
815.155762,2002
815.274475,2021
815.393188,2009
815.511841,1985
815.630554,1965
815.749146,2052
815.867859,1983
815.986572,1983
816.105164,1948
816.223877,2022
816.342529,1956
816.461182,2013
816.579895,1958
816.698486,1977
816.817139,2017
816.935791,2004
817.054504,2058
817.173096,1984
817.291748,1978
817.4104,1963
817.529053,1956
817.647644,1951
817.766235,1826
817.884949,1837
818.00354,1803
818.122192,1804
818.240845,1772
818.359436,1763
818.478088,1700
818.59668,1681
818.715271,1668
818.833923,1678
818.952515,1626
819.071106,1652
819.189758,1605
819.30835,1608
819.426941,1585
819.545532,1574
819.664124,1605
819.782715,1600
819.901306,1520
820.019897,1551
820.138489,1599
820.25708,1574
820.375671,1572
820.494202,1567
820.612732,1512
820.731384,1546
820.849915,1536
820.968506,1488
821.087097,1469
821.205627,1532
821.324158,1487
821.442749,1523
821.561279,1472
821.679871,1474
821.798401,1520
821.916931,1515
822.035461,1466
822.154053,1506
822.272583,1444
822.391174,1511
822.509583,1447
822.628174,1478
822.746704,1484
822.865234,1471
822.983765,1473
823.102295,1429
823.220825,1455
823.339294,1460
823.457825,1459
823.576355,1479
823.694824,1418
823.813354,1483
823.931885,1498
824.050354,1480
824.168884,1490
824.287354,1499
824.405823,1479
824.524353,1503
824.642822,1461
824.761353,1471
824.879822,1470
824.998291,1453
825.116699,1453
825.235291,1479
825.353699,1453
825.472168,1458
825.590637,1460
825.709106,1421
825.827576,1464
825.946045,1438
826.064453,1467
826.182983,1426
826.301392,1447
826.4198,1417
826.53833,1448
826.656738,1436
826.775208,1353
826.893677,1423
827.012024,1386
827.130493,1442
827.248962,1406
827.36731,1398
827.485779,1398
827.604248,1397
827.722595,1345
827.841064,1370
827.959412,1335
828.077942,1379
828.196289,1374
828.314636,1391
828.433105,1366
828.551514,1349
828.669861,1371
828.78833,1390
828.906677,1384
829.025085,1376
829.143433,1403
829.261841,1357
829.38031,1343
829.498657,1390
829.617004,1358
829.735413,1372
829.85376,1331
829.972107,1365
830.090515,1333
830.208862,1389
830.327209,1369
830.445557,1378
830.563904,1360
830.682312,1351
830.800659,1323
830.919006,1428
831.037354,1356
831.155701,1359
831.274048,1411
831.392395,1336
831.51062,1363
831.629028,1379
831.747314,1361
831.865662,1381
831.984009,1374
832.102356,1343
832.220642,1352
832.338928,1371
832.457275,1407
832.575623,1345
832.693909,1378
832.812134,1359
832.930481,1367
833.048828,1361
833.167114,1366
833.2854,1380
833.403687,1398
833.521973,1378
833.640259,1381
833.758545,1378
833.876831,1382
833.995056,1379
834.113281,1332
834.231628,1354
834.349915,1373
834.468201,1356
834.586426,1411
834.704651,1359
834.822998,1395
834.941162,1397
835.059448,1369
835.177673,1396
835.295959,1363
835.414246,1411
835.53241,1364
835.650635,1429
835.768921,1376
835.887146,1366
836.005371,1414
836.123596,1389
836.241821,1378
836.360046,1403
836.478271,1421
836.596497,1444
836.714722,1386
836.832886,1416
836.95105,1429
837.069336,1400
837.1875,1404
837.305725,1416
837.423889,1429
837.542053,1467
837.660339,1419
837.778503,1472
837.896667,1423
838.014832,1462
838.132996,1455
838.25116,1454
838.369385,1439
838.487488,1462
838.605713,1451
838.723877,1438
838.84198,1467
838.960205,1431
839.078308,1428
839.196472,1394
839.314636,1391
839.4328,1445
839.550964,1416
839.669067,1391
839.787231,1404
839.905396,1398
840.023499,1393
840.141602,1437
840.259766,1405
840.377869,1420
840.495972,1466
840.614136,1387
840.732239,1430
840.850342,1370
840.968445,1442
841.086548,1400
841.204651,1401
841.322754,1442
841.440918,1408
841.55896,1405
841.677002,1422
841.795166,1374
841.913208,1408
842.031311,1421
842.149353,1379
842.267456,1386
842.385498,1430
842.503601,1352
842.621643,1364
842.739746,1380
842.857788,1336
842.97583,1392
843.093933,1371
843.211975,1368
843.330017,1368
843.44812,1380
843.566101,1373
843.684204,1356
843.802246,1360
843.920227,1383
844.038269,1402
844.156311,1404
844.274292,1356
844.392395,1411
844.510376,1398
844.628357,1375
844.74646,1370
844.864441,1396
844.982422,1391
845.100403,1380
845.218384,1345
845.336426,1374
845.454468,1349
845.572449,1380
845.69043,1365
845.808411,1372
845.926453,1336
846.044373,1348
846.162354,1346
846.280396,1374
846.398315,1320
846.516296,1344
846.634216,1361
846.752197,1371
846.870178,1349
846.988098,1399
847.106079,1388
847.22406,1381
847.34198,1382
847.4599,1352
847.577881,1373
847.695801,1370
847.813782,1373
847.931641,1348
848.049561,1352
848.167603,1344
848.285461,1361
848.403381,1384
848.521362,1339
848.639221,1390
848.75708,1354
848.875,1372
848.99292,1396
849.110901,1358
849.22876,1367
849.34668,1377
849.464539,1397
849.582458,1386
849.700317,1379
849.818176,1361
849.936096,1370
850.053955,1383
850.171875,1343
850.289673,1405
850.407593,1327
850.525452,1388
850.643311,1343
850.761169,1398
850.878967,1339
850.996887,1366
851.114746,1379
851.232544,1359
851.350403,1376
851.468262,1371
851.58606,1343
851.703979,1369
851.821777,1395
851.939636,1366
852.057434,1352
852.175232,1355
852.293091,1376
852.410889,1394
852.528687,1412
852.646545,1408
852.764343,1378
852.88208,1429
852.999939,1383
853.117676,1381
853.235535,1388
853.353271,1387
853.471069,1368
853.588928,1389
853.706604,1341
853.824402,1339
853.9422,1370
854.059998,1401
854.177734,1361
854.295532,1366
854.413269,1400
854.531006,1375
854.648804,1415
854.766541,1369
854.884277,1392
855.002014,1397
855.119751,1387
855.237549,1428
855.355225,1376
855.473022,1417
855.590698,1393
855.708435,1383
855.826172,1376
855.943848,1459
856.061646,1369
856.179321,1410
856.296997,1418
856.414795,1409
856.53241,1364
856.650085,1400
856.767822,1441
856.885559,1410
857.003174,1426
857.120911,1354
857.238586,1408
857.356201,1439
857.473938,1402
857.591614,1464
857.709351,1402
857.826965,1445
857.944641,1414
858.062317,1420
858.179993,1426
858.297668,1414
858.415283,1405
858.532959,1452
858.650574,1385
858.768188,1429
858.885803,1385
859.003479,1408
859.121094,1373
859.23877,1420
859.356384,1400
859.473999,1395
859.591675,1380
859.709229,1391
859.826843,1334
859.944458,1398
860.062012,1337
860.179626,1339
860.297302,1371
860.414856,1382
860.532471,1374
860.650024,1377
860.767639,1395
860.885193,1370
861.002808,1407
861.120361,1375
861.237976,1390
861.35553,1364
861.473022,1357
861.590698,1378
861.708191,1392
861.825745,1419
861.943298,1372
862.060852,1380
862.178406,1374
862.295959,1386
862.413513,1353
862.531006,1367
862.64856,1375
862.766113,1331
862.883667,1329
863.00116,1338
863.118713,1385
863.236206,1366
863.353699,1361
863.471252,1379
863.588745,1358
863.706177,1420
863.82373,1432
863.941162,1380
864.058716,1400
864.176208,1414
864.29364,1403
864.411194,1392
864.528687,1385
864.646118,1408
864.763611,1351
864.881042,1359
864.998535,1414
865.116028,1371
865.233459,1381
865.350891,1368
865.468384,1398
865.585754,1368
865.703308,1371
865.820679,1394
865.938171,1385
866.055542,1362
866.173035,1346
866.290466,1375
866.407837,1395
866.52533,1396
866.6427,1398
866.760071,1365
866.877563,1384
866.994934,1385
867.112305,1403
867.229736,1413
867.347107,1389
867.464539,1392
867.58197,1382
867.699341,1395
867.81665,1421
867.934082,1407
868.051453,1408
868.168823,1361
868.286194,1393
868.403564,1380
868.520935,1416
868.638306,1397
868.755676,1374
868.872986,1415
868.990295,1408
869.107727,1427
869.225037,1398
869.342346,1422
869.459717,1419
869.577026,1419
869.694336,1411
869.811707,1429
869.929016,1424
870.046326,1421
870.163635,1427
870.280945,1426
870.398254,1368
870.515564,1376
870.632812,1410
870.750183,1431
870.867432,1453
870.984741,1424
871.102051,1393
871.219299,1369
871.336609,1399
871.453918,1409
871.571106,1408
871.688416,1417
871.805664,1430
871.922852,1432
872.040222,1410
872.157471,1420
872.274719,1449
872.391968,1410
872.509155,1400
872.626465,1382
872.743652,1424
872.860962,1384
872.978149,1414
873.095337,1424
873.212646,1414
873.329834,1400
873.44696,1386
873.564209,1407
873.681396,1420
873.798645,1425
873.915894,1375
874.03302,1416
874.150208,1421
874.267456,1404
874.384583,1402
874.501831,1417
874.618958,1407
874.736145,1408
874.853333,1475
874.970459,1414
875.087646,1474
875.204834,1380
875.32196,1437
875.439148,1378
875.556274,1393
875.673401,1473
875.790527,1430
875.907715,1397
876.024841,1417
876.141968,1394
876.259094,1433
876.376282,1353
876.493347,1460
876.610474,1372
876.7276,1425
876.844727,1432
876.961853,1399
877.078918,1393
877.195984,1436
877.313171,1418
877.430237,1419
877.547302,1405
877.664368,1415
877.781433,1425
877.898499,1449
878.015625,1451
878.13269,1417
878.249695,1419
878.366821,1356
878.483887,1431
878.600952,1404
878.717957,1450
878.834961,1379
878.952087,1383
879.069092,1391
879.186157,1375
879.303162,1404
879.420227,1372
879.537231,1396
879.654236,1408
879.77124,1389
879.888306,1394
880.005249,1383
880.122314,1415
880.239319,1382
880.356323,1412
880.473328,1382
880.590271,1385
880.707275,1382
880.824341,1420
880.941284,1409
881.058228,1405
881.175232,1389
881.292236,1359
881.40918,1411
881.526123,1357
881.643066,1382
881.760071,1408
881.877014,1359
881.993958,1407
882.11084,1401
882.227783,1429
882.344727,1431
882.46167,1376
882.578613,1361
882.695618,1426
882.812439,1384
882.929382,1385
883.046326,1447
883.163208,1368
883.280151,1405
883.397034,1426
883.513916,1455
883.630798,1433
883.747742,1421
883.864563,1445
883.981506,1369
884.098389,1420
884.21521,1434
884.332153,1403
884.448975,1410
884.565796,1443
884.682678,1432
884.7995,1465
884.916443,1455
885.033264,1447
885.150085,1484
885.266968,1464
885.383789,1483
885.500671,1494
885.617493,1527
885.734314,1550
885.851196,1486
885.967896,1501
886.084717,1489
886.201599,1518
886.318359,1452
886.435181,1491
886.552002,1495
886.668762,1526
886.785645,1479
886.902344,1479
887.019165,1459
887.135925,1456
887.252747,1455
887.369446,1478
887.486267,1475
887.603027,1434
887.719788,1467
887.836548,1454
887.953247,1407
888.070068,1451
888.186829,1426
888.303528,1418
888.420288,1446
888.536987,1443
888.653687,1406
888.770447,1462
888.887146,1393
889.003967,1436
889.120667,1414
889.237305,1416
889.354065,1420
889.470703,1410
889.587463,1416
889.704163,1458
889.820862,1425
889.937561,1418
890.054199,1407
890.170837,1426
890.287598,1408
890.404236,1460
890.520874,1429
890.637634,1414
890.754211,1429
890.87085,1415
890.987549,1426
891.104187,1408
891.220886,1434
891.337463,1438
891.454102,1451
891.57074,1460
891.687378,1424
891.804077,1429
891.920654,1448
892.037231,1399
892.15387,1457
892.270447,1430
892.387085,1423
892.503723,1474
892.6203,1424
892.736877,1443
892.853516,1429
892.970032,1418
893.08667,1451
893.203186,1431
893.319763,1402
893.43634,1484
893.552917,1465
893.669556,1426
893.786011,1472
893.902588,1457
894.019165,1458
894.135681,1434
894.252197,1496
894.368835,1420
894.485291,1410
894.601868,1450
894.718384,1410
894.8349,1441
894.951355,1412
895.067932,1429
895.184448,1439
895.300964,1451
895.417419,1417
895.533936,1450
895.650452,1389
895.766907,1444
895.883423,1417
895.999878,1414
896.116333,1413
896.232849,1462
896.349304,1414
896.465759,1433
896.582214,1404
896.698669,1450
896.815125,1456
896.931641,1426
897.048035,1453
897.164551,1434
897.280884,1473
897.397339,1435
897.513794,1435
897.630249,1397
897.746582,1398
897.863098,1472
897.979431,1468
898.095886,1484
898.212341,1492
898.328674,1475
898.445129,1447
898.561462,1507
898.677795,1447
898.794312,1415
898.910645,1479
899.026978,1416
899.143433,1456
899.259766,1462
899.37616,1454
899.492493,1438
899.608765,1434
899.725159,1464
899.841553,1457
899.957947,1433
900.07428,1485
900.190552,1449
900.306946,1418
900.423157,1458
900.53949,1451
900.655884,1487
900.772156,1472
900.888489,1451
901.004822,1440
901.121033,1453
901.237366,1470
901.353699,1493
901.46991,1465
901.586304,1438
901.702515,1458
901.818787,1492
901.93512,1477
902.051331,1508
902.167603,1495
902.283875,1524
902.400085,1474
902.516418,1506
902.632629,1517
902.74884,1539
902.865112,1552
902.981384,1549
903.097595,1503
903.213867,1503
903.330017,1467
903.446289,1506
903.5625,1474
903.67865,1514
903.794922,1495
903.911072,1520
904.027344,1512
904.143494,1480
904.259705,1555
904.375916,1490
904.492065,1483
904.608215,1496
904.724426,1459
904.840576,1470
904.956726,1474
905.072876,1486
905.189087,1481
905.305176,1492
905.421387,1413
905.537537,1523
905.653687,1468
905.769775,1472
905.885925,1461
906.002014,1502
906.118164,1486
906.234314,1473
906.350403,1455
906.466492,1436
906.582642,1447
906.69873,1512
906.814758,1532
906.930908,1509
907.046936,1442
907.163086,1488
907.279175,1474
907.395264,1468
907.511353,1407
907.62738,1486
907.743408,1454
907.859497,1469
907.975525,1471
908.091553,1460
908.207703,1481
908.32373,1511
908.439758,1446
908.555786,1456
908.671814,1459
908.787842,1529
908.90387,1486
909.019775,1420
909.135864,1486
909.251892,1480
909.367859,1465
909.483826,1445
909.599854,1495
909.715881,1504
909.831848,1466
909.947815,1467
910.063782,1474
910.179749,1521
910.295776,1459
910.411743,1502
910.527649,1473
910.643616,1490
910.759583,1492
910.875488,1470
910.991455,1488
911.107361,1506
911.223267,1489
911.339294,1466
911.4552,1421
911.571106,1491
911.687073,1473
911.802979,1481
911.918823,1473
912.034729,1478
912.150635,1504
912.266602,1474
912.382446,1448
912.498352,1449
912.614197,1495
912.730103,1485
912.846008,1474
792.44574,2610
792.56488,2547
792.68396,2574
792.80304,2544
792.92218,2447
793.041199,2382
793.160339,2389
793.279419,2380
793.398499,2401
793.517578,2369
793.636658,2348
793.755737,2325
793.874817,2324
793.993896,2259
794.112976,2298
794.232056,2267
794.351074,2201
794.470215,2247
794.589233,2167
794.708313,2188
794.827393,2161
794.946411,2164
795.065552,2176
795.18457,2131
795.303589,2110
795.422668,2070
795.541687,2157
795.660767,2107
795.779846,2127
795.898865,2074
796.017883,2095
796.136963,2090
796.255981,2089
796.375061,2065
796.49408,2121
796.613037,2039
796.732117,2002
796.851135,2015
796.970154,2049
797.089233,2005
797.208191,2023
797.327271,2001
797.446228,1996
797.565186,1991
797.684265,1989
797.803223,1998
797.922241,1971
798.04126,2009
798.160278,2026
798.279297,1940
798.398315,2011
798.517273,1991
798.636292,2018
798.75531,1978
798.874268,2005
798.993286,2005
799.112244,1964
799.231323,2028
799.350281,1968
799.469238,1974
799.588257,1958
799.707153,1922
799.826111,1953
799.945129,1968
800.064087,1967
800.183044,1983
800.302063,1971
800.421021,1968
800.539978,1975
800.658936,1937
800.777893,1959
800.896912,1970
801.015747,1942
801.134705,1949
801.253723,1974
801.37262,1934
801.491638,1940
801.610535,1951
801.729492,1990
801.84845,1989
801.967407,1983
802.086243,1959
802.205261,1961
802.324158,1976
802.443115,2026
802.562073,1957
802.680969,1990
802.799927,2001
802.918762,1993
803.037659,1960
803.156677,2000
803.275574,1991
803.39447,1970
803.513428,2027
803.632263,1991
803.751221,2017
803.870117,2020
803.989014,1963
804.107971,1977
804.226746,1990
804.345642,1988
804.4646,1988
804.583496,1995
804.702393,2009
804.821228,1973
804.940125,2046
805.059021,1979
805.177917,2015
805.296814,1997
805.415649,2032
805.534546,2078
805.653442,2032
805.772278,2047
805.891113,2040
806.01001,2022
806.128906,2041
806.247742,2001
806.366577,2026
806.485413,1987
806.604309,2080
806.723145,2010
806.84198,2059
806.960876,2024
807.079712,2088
807.198486,2046
807.317383,2059
807.436218,2059
807.554993,2027
807.673889,1989
807.792725,2059
807.91156,2031
808.030396,2093
808.14917,2076
808.268005,2035
808.386841,2000
808.505676,2021
808.624451,2074
808.743286,2047
808.862122,2057
808.980896,2065
809.099731,2044
809.218506,2088
809.337341,2102
809.456116,2064
809.57489,2105
809.693726,2151
809.8125,2105
809.931274,2084
810.050049,2088
810.168884,2098
810.287659,2149
810.406372,2089
810.525269,2125
810.643982,2057
810.762756,2088
810.881531,2103
811.000305,2114
811.11908,2067
811.237854,2029
811.356567,2138
811.475403,2073
811.594116,2073
811.71283,2082
811.831604,2089
811.950378,2137
812.069153,2195
812.187927,2130
812.30658,2130
812.425415,2083
812.544128,2087
812.662781,2063
812.781616,2123
812.900269,2152
813.019043,2102
813.137756,2131
813.256531,2047
813.375244,2109
813.493896,2071
813.612671,2100
813.731384,2086
813.850037,2134
813.96875,2137
814.087524,2048
814.206238,2081
814.324951,2081
814.443604,2092
814.562256,2093
814.68103,2131
814.799683,2052
814.918335,2068
815.037109,2092
815.155762,2028
815.274475,2096
815.393188,2039
815.511841,2067
815.630554,2050
815.749146,1988
815.867859,2036
815.986572,2006
816.105164,2010
816.223877,1968
816.342529,2018
816.461182,2037
816.579895,2023
816.698486,2017
816.817139,2028
816.935791,2068
817.054504,2044
817.173096,2039
817.291748,2007
817.4104,2014
817.529053,1933
817.647644,1914
817.766235,1886
817.884949,1872
818.00354,1888
818.122192,1809
818.240845,1795
818.359436,1752
818.478088,1760
818.59668,1709
818.715271,1736
818.833923,1703
818.952515,1673
819.071106,1672
819.189758,1638
819.30835,1685
819.426941,1618
819.545532,1560
819.664124,1623
819.782715,1591
819.901306,1599
820.019897,1589
820.138489,1589
820.25708,1512
820.375671,1568
820.494202,1577
820.612732,1556
820.731384,1494
820.849915,1568
820.968506,1525
821.087097,1554
821.205627,1531
821.324158,1536
821.442749,1500
821.561279,1523
821.679871,1446
821.798401,1542
821.916931,1475
822.035461,1537
822.154053,1486
822.272583,1475
822.391174,1500
822.509583,1476
822.628174,1515
822.746704,1502
822.865234,1466
822.983765,1456
823.102295,1454
823.220825,1480
823.339294,1497
823.457825,1470
823.576355,1497
823.694824,1507
823.813354,1512
823.931885,1482
824.050354,1507
824.168884,1547
824.287354,1529
824.405823,1484
824.524353,1515
824.642822,1487
824.761353,1552
824.879822,1558
824.998291,1502
825.116699,1549
825.235291,1494
825.353699,1443
825.472168,1485
825.590637,1481
825.709106,1454
825.827576,1487
825.946045,1452
826.064453,1438
826.182983,1450
826.301392,1443
826.4198,1476
826.53833,1433
826.656738,1430
826.775208,1444
826.893677,1441
827.012024,1423
827.130493,1414
827.248962,1452
827.36731,1421
827.485779,1378
827.604248,1402
827.722595,1402
827.841064,1376
827.959412,1415
828.077942,1399
828.196289,1447
828.314636,1406
828.433105,1413
828.551514,1388
828.669861,1385
828.78833,1410
828.906677,1383
829.025085,1393
829.143433,1391
829.261841,1385
829.38031,1374
829.498657,1422
829.617004,1382
829.735413,1422
829.85376,1351
829.972107,1362
830.090515,1375
830.208862,1373
830.327209,1389
830.445557,1388
830.563904,1406
830.682312,1422
830.800659,1338
830.919006,1395
831.037354,1397
831.155701,1376
831.274048,1372
831.392395,1409
831.51062,1391
831.629028,1380
831.747314,1374
831.865662,1391
831.984009,1403
832.102356,1426
832.220642,1440
832.338928,1384
832.457275,1357
832.575623,1381
832.693909,1398
832.812134,1396
832.930481,1377
833.048828,1375
833.167114,1410
833.2854,1407
833.403687,1408
833.521973,1414
833.640259,1378
833.758545,1399
833.876831,1370
833.995056,1375
834.113281,1369
834.231628,1391
834.349915,1372
834.468201,1419
834.586426,1423
834.704651,1381
834.822998,1405
834.941162,1422
835.059448,1417
835.177673,1445
835.295959,1427
835.414246,1364
835.53241,1414
835.650635,1379
835.768921,1401
835.887146,1437
836.005371,1418
836.123596,1450
836.241821,1393
836.360046,1415
836.478271,1464
836.596497,1462
836.714722,1457
836.832886,1436
836.95105,1447
837.069336,1453
837.1875,1441
837.305725,1459
837.423889,1450
837.542053,1486
837.660339,1445
837.778503,1446
837.896667,1457
838.014832,1476
838.132996,1463
838.25116,1478
838.369385,1442
838.487488,1489
838.605713,1456
838.723877,1434
838.84198,1468
838.960205,1453
839.078308,1465
839.196472,1454
839.314636,1454
839.4328,1457
839.550964,1404
839.669067,1406
839.787231,1430
839.905396,1451
840.023499,1435
840.141602,1448
840.259766,1467
840.377869,1442
840.495972,1467
840.614136,1440
840.732239,1422
840.850342,1453
840.968445,1436
841.086548,1422
841.204651,1434
841.322754,1474
841.440918,1469
841.55896,1426
841.677002,1486
841.795166,1401
841.913208,1452
842.031311,1420
842.149353,1471
842.267456,1452
842.385498,1395
842.503601,1399
842.621643,1371
842.739746,1430
842.857788,1424
842.97583,1420
843.093933,1389
843.211975,1418
843.330017,1394
843.44812,1447
843.566101,1425
843.684204,1394
843.802246,1420
843.920227,1391
844.038269,1437
844.156311,1420
844.274292,1385
844.392395,1375
844.510376,1455
844.628357,1368
844.74646,1373
844.864441,1341
844.982422,1407
845.100403,1410
845.218384,1363
845.336426,1355
845.454468,1416
845.572449,1385
845.69043,1402
845.808411,1396
845.926453,1392
846.044373,1388
846.162354,1397
846.280396,1398
846.398315,1386
846.516296,1400
846.634216,1372
846.752197,1416
846.870178,1364
846.988098,1386
847.106079,1409
847.22406,1389
847.34198,1426
847.4599,1403
847.577881,1438
847.695801,1361
847.813782,1375
847.931641,1390
848.049561,1402
848.167603,1388
848.285461,1394
848.403381,1428
848.521362,1418
848.639221,1374
848.75708,1404
848.875,1346
848.99292,1403
849.110901,1401
849.22876,1405
849.34668,1390
849.464539,1446
849.582458,1416
849.700317,1383
849.818176,1397
849.936096,1400
850.053955,1420
850.171875,1393
850.289673,1401
850.407593,1367
850.525452,1379
850.643311,1384
850.761169,1422
850.878967,1393
850.996887,1381
851.114746,1407
851.232544,1359
851.350403,1411
851.468262,1413
851.58606,1382
851.703979,1421
851.821777,1390
851.939636,1398
852.057434,1390
852.175232,1403
852.293091,1431
852.410889,1416
852.528687,1393
852.646545,1448
852.764343,1388
852.88208,1441
852.999939,1393
853.117676,1376
853.235535,1392
853.353271,1430
853.471069,1398
853.588928,1423
853.706604,1358
853.824402,1387
853.9422,1415
854.059998,1407
854.177734,1410
854.295532,1395
854.413269,1390
854.531006,1403
854.648804,1395
854.766541,1441
854.884277,1427
855.002014,1473
855.119751,1422
855.237549,1407
855.355225,1430
855.473022,1448
855.590698,1409
855.708435,1410
855.826172,1420
855.943848,1411
856.061646,1395
856.179321,1438
856.296997,1481
856.414795,1395
856.53241,1426
856.650085,1452
856.767822,1420
856.885559,1448
857.003174,1419
857.120911,1462
857.238586,1392
857.356201,1418
857.473938,1424
857.591614,1417
857.709351,1447
857.826965,1464
857.944641,1471
858.062317,1431
858.179993,1453
858.297668,1418
858.415283,1428
858.532959,1415
858.650574,1425
858.768188,1421
858.885803,1474
859.003479,1408
859.121094,1436
859.23877,1436
859.356384,1420
859.473999,1431
859.591675,1450
859.709229,1426
859.826843,1394
859.944458,1416
860.062012,1441
860.179626,1411
860.297302,1443
860.414856,1390
860.532471,1376
860.650024,1370
860.767639,1396
860.885193,1372
861.002808,1427
861.120361,1405
861.237976,1404
861.35553,1425
861.473022,1426
861.590698,1373
861.708191,1418
861.825745,1409
861.943298,1427
862.060852,1408
862.178406,1396
862.295959,1412
862.413513,1398
862.531006,1384
862.64856,1394
862.766113,1418
862.883667,1402
863.00116,1401
863.118713,1399
863.236206,1455
863.353699,1417
863.471252,1382
863.588745,1408
863.706177,1399
863.82373,1422
863.941162,1400
864.058716,1442
864.176208,1443
864.29364,1371
864.411194,1429
864.528687,1391
864.646118,1381
864.763611,1383
864.881042,1429
864.998535,1382
865.116028,1447
865.233459,1361
865.350891,1397
865.468384,1464
865.585754,1413
865.703308,1412
865.820679,1438
865.938171,1414
866.055542,1411
866.173035,1414
866.290466,1415
866.407837,1395
866.52533,1434
866.6427,1406
866.760071,1395
866.877563,1443
866.994934,1427
867.112305,1420
867.229736,1381
867.347107,1451
867.464539,1391
867.58197,1403
867.699341,1412
867.81665,1451
867.934082,1448
868.051453,1447
868.168823,1420
868.286194,1402
868.403564,1390
868.520935,1400
868.638306,1402
868.755676,1404
868.872986,1450
868.990295,1425
869.107727,1414
869.225037,1415
869.342346,1426
869.459717,1396
869.577026,1478
869.694336,1398
869.811707,1431
869.929016,1407
870.046326,1434
870.163635,1409
870.280945,1399
870.398254,1503
870.515564,1425
870.632812,1432
870.750183,1426
870.867432,1475
870.984741,1424
871.102051,1419
871.219299,1477
871.336609,1431
871.453918,1460
871.571106,1477
871.688416,1473
871.805664,1462
871.922852,1481
872.040222,1443
872.157471,1469
872.274719,1461
872.391968,1431
872.509155,1465
872.626465,1484
872.743652,1468
872.860962,1435
872.978149,1409
873.095337,1422
873.212646,1457
873.329834,1391
873.44696,1463
873.564209,1428
873.681396,1413
873.798645,1437
873.915894,1415
874.03302,1436
874.150208,1419
874.267456,1451
874.384583,1431
874.501831,1451
874.618958,1431
874.736145,1460
874.853333,1435
874.970459,1480
875.087646,1426
875.204834,1457
875.32196,1427
875.439148,1469
875.556274,1448
875.673401,1471
875.790527,1450
875.907715,1448
876.024841,1494
876.141968,1434
876.259094,1469
876.376282,1428
876.493347,1437
876.610474,1432
876.7276,1430
876.844727,1438
876.961853,1395
877.078918,1423
877.195984,1426
877.313171,1426
877.430237,1476
877.547302,1453
877.664368,1448
877.781433,1426
877.898499,1474
878.015625,1482
878.13269,1405
878.249695,1440
878.366821,1418
878.483887,1455
878.600952,1435
878.717957,1431
878.834961,1420
878.952087,1443
879.069092,1439
879.186157,1409
879.303162,1423
879.420227,1421
879.537231,1445
879.654236,1424
879.77124,1415
879.888306,1413
880.005249,1417
880.122314,1434
880.239319,1391
880.356323,1379
880.473328,1397
880.590271,1426
880.707275,1403
880.824341,1462
880.941284,1430
881.058228,1426
881.175232,1439
881.292236,1432
881.40918,1444
881.526123,1453
881.643066,1435
881.760071,1395
881.877014,1459
881.993958,1438
882.11084,1425
882.227783,1418
882.344727,1409
882.46167,1427
882.578613,1390
882.695618,1435
882.812439,1410
882.929382,1430
883.046326,1433
883.163208,1445
883.280151,1406
883.397034,1437
883.513916,1452
883.630798,1442
883.747742,1471
883.864563,1445
883.981506,1457
884.098389,1423
884.21521,1447
884.332153,1444
884.448975,1491
884.565796,1460
884.682678,1474
884.7995,1498
884.916443,1501
885.033264,1436
885.150085,1523
885.266968,1473
885.383789,1581
885.500671,1514
885.617493,1551
885.734314,1526
885.851196,1520
885.967896,1543
886.084717,1555
886.201599,1510
886.318359,1504
886.435181,1507
886.552002,1512
886.668762,1531
886.785645,1505
886.902344,1516
887.019165,1486
887.135925,1494
887.252747,1492
887.369446,1495
887.486267,1498
887.603027,1498
887.719788,1483
887.836548,1449
887.953247,1475
888.070068,1486
888.186829,1467
888.303528,1451
888.420288,1476
888.536987,1446
888.653687,1404
888.770447,1450
888.887146,1461
889.003967,1482
889.120667,1424
889.237305,1469
889.354065,1467
889.470703,1400
889.587463,1449
889.704163,1454
889.820862,1444
889.937561,1425
890.054199,1432
890.170837,1478
890.287598,1443
890.404236,1476
890.520874,1453
890.637634,1432
890.754211,1426
890.87085,1457
890.987549,1451
891.104187,1475
891.220886,1477
891.337463,1464
891.454102,1501
891.57074,1437
891.687378,1470
891.804077,1476
891.920654,1443
892.037231,1441
892.15387,1456
892.270447,1437
892.387085,1463
892.503723,1479
892.6203,1466
892.736877,1438
892.853516,1466
892.970032,1428
893.08667,1472
893.203186,1472
893.319763,1468
893.43634,1420
893.552917,1452
893.669556,1485
893.786011,1466
893.902588,1451
894.019165,1478
894.135681,1469
894.252197,1450
894.368835,1470
894.485291,1494
894.601868,1457
894.718384,1488
894.8349,1500
894.951355,1494
895.067932,1476
895.184448,1446
895.300964,1465
895.417419,1488
895.533936,1478
895.650452,1530
895.766907,1427
895.883423,1418
895.999878,1445
896.116333,1501
896.232849,1457
896.349304,1479
896.465759,1491
896.582214,1492
896.698669,1476
896.815125,1500
896.931641,1458
897.048035,1463
897.164551,1462
897.280884,1475
897.397339,1481
897.513794,1448
897.630249,1492
897.746582,1468
897.863098,1456
897.979431,1496
898.095886,1437
898.212341,1510
898.328674,1495
898.445129,1499
898.561462,1472
898.677795,1501
898.794312,1488
898.910645,1488
899.026978,1486
899.143433,1462
899.259766,1461
899.37616,1496
899.492493,1496
899.608765,1518
899.725159,1473
899.841553,1473
899.957947,1463
900.07428,1491
900.190552,1493
900.306946,1466
900.423157,1509
900.53949,1514
900.655884,1498
900.772156,1490
900.888489,1530
901.004822,1465
901.121033,1470
901.237366,1445
901.353699,1508
901.46991,1504
901.586304,1489
901.702515,1487
901.818787,1489
901.93512,1532
902.051331,1492
902.167603,1540
902.283875,1544
902.400085,1540
902.516418,1559
902.632629,1517
902.74884,1516
902.865112,1541
902.981384,1521
903.097595,1599
903.213867,1560
903.330017,1546
903.446289,1549
903.5625,1528
903.67865,1554
903.794922,1481
903.911072,1550
904.027344,1532
904.143494,1518
904.259705,1552
904.375916,1515
904.492065,1545
904.608215,1485
904.724426,1532
904.840576,1501
904.956726,1488
905.072876,1532
905.189087,1518
905.305176,1491
905.421387,1506
905.537537,1484
905.653687,1483
905.769775,1510
905.885925,1498
906.002014,1532
906.118164,1533
906.234314,1467
906.350403,1546
906.466492,1482
906.582642,1520
906.69873,1507
906.814758,1477
906.930908,1509
907.046936,1465
907.163086,1513
907.279175,1492
907.395264,1477
907.511353,1513
907.62738,1490
907.743408,1489
907.859497,1524
907.975525,1517
908.091553,1523
908.207703,1514
908.32373,1493
908.439758,1506
908.555786,1512
908.671814,1499
908.787842,1518
908.90387,1520
909.019775,1500
909.135864,1520
909.251892,1482
909.367859,1518
909.483826,1487
909.599854,1528
909.715881,1520
909.831848,1579
909.947815,1515
910.063782,1520
910.179749,1490
910.295776,1514
910.411743,1517
910.527649,1516
910.643616,1510
910.759583,1502
910.875488,1476
910.991455,1506
911.107361,1479
911.223267,1536
911.339294,1487
911.4552,1522
911.571106,1511
911.687073,1533
911.802979,1503
911.918823,1518
912.034729,1500
912.150635,1536
912.266602,1537
912.382446,1468
912.498352,1518
912.614197,1521
912.730103,1544
912.846008,1523
792.44574,2589
792.56488,2521
792.68396,2617
792.80304,2521
792.92218,2524
793.041199,2389
793.160339,2435
793.279419,2428
793.398499,2439
793.517578,2369
793.636658,2352
793.755737,2285
793.874817,2301
793.993896,2288
794.112976,2270
794.232056,2261
794.351074,2296
794.470215,2245
794.589233,2249
794.708313,2201
794.827393,2143
794.946411,2172
795.065552,2179
795.18457,2118
795.303589,2151
795.422668,2157
795.541687,2159
795.660767,2071
795.779846,2090
795.898865,2104
796.017883,2128
796.136963,2091
796.255981,2036
796.375061,2078
796.49408,2088
796.613037,2022
796.732117,2105
796.851135,2043
796.970154,2035
797.089233,1995
797.208191,2016
797.327271,2026
797.446228,2001
797.565186,2026
797.684265,2021
797.803223,2058
797.922241,2018
798.04126,2028
798.160278,1955
798.279297,2030
798.398315,2005
798.517273,2022
798.636292,2010
798.75531,2036
798.874268,1977
798.993286,2005
799.112244,2001
799.231323,2005
799.350281,1995
799.469238,1956
799.588257,1952
799.707153,2000
799.826111,1988
799.945129,2017
800.064087,1956
800.183044,1958
800.302063,2012
800.421021,1978
800.539978,1996
800.658936,2006
800.777893,1960
800.896912,1978
801.015747,1927
801.134705,1989
801.253723,1971
801.37262,1979
801.491638,1967
801.610535,1991
801.729492,2025
801.84845,1944
801.967407,2029
802.086243,1974
802.205261,2023
802.324158,1969
802.443115,2029
802.562073,2016
802.680969,2030
802.799927,1929
802.918762,1971
803.037659,1987
803.156677,2011
803.275574,2004
803.39447,1983
803.513428,2009
803.632263,2005
803.751221,2037
803.870117,1974
803.989014,2033
804.107971,1997
804.226746,1994
804.345642,2035
804.4646,2026
804.583496,2027
804.702393,2054
804.821228,2057
804.940125,2015
805.059021,1989
805.177917,2001
805.296814,2019
805.415649,2059
805.534546,2035
805.653442,2020
805.772278,2085
805.891113,2056
806.01001,2048
806.128906,2015
806.247742,2039
806.366577,2112
806.485413,2045
806.604309,2068
806.723145,2009
806.84198,2059
806.960876,2050
807.079712,2039
807.198486,2093
807.317383,2075
807.436218,1994
807.554993,2035
807.673889,2071
807.792725,2115
807.91156,2067
808.030396,2083
808.14917,2075
808.268005,2049
808.386841,2074
808.505676,2117
808.624451,2090
808.743286,2055
808.862122,2067
808.980896,2095
809.099731,2054
809.218506,2080
809.337341,2068
809.456116,2099
809.57489,2068
809.693726,2058
809.8125,2081
809.931274,2152
810.050049,2113
810.168884,2104
810.287659,2049
810.406372,2118
810.525269,2162
810.643982,2118
810.762756,2158
810.881531,2126
811.000305,2102
811.11908,2141
811.237854,2051
811.356567,2080
811.475403,2108
811.594116,2076
811.71283,2138
811.831604,2115
811.950378,2109
812.069153,2094
812.187927,2121
812.30658,2158
812.425415,2094
812.544128,2144
812.662781,2126
812.781616,2101
812.900269,2122
813.019043,2148
813.137756,2179
813.256531,2153
813.375244,2129
813.493896,2056
813.612671,2160
813.731384,2120
813.850037,2105
813.96875,2108
814.087524,2025
814.206238,2107
814.324951,2071
814.443604,2108
814.562256,2085
814.68103,2076
814.799683,2070
814.918335,2082
815.037109,2071
815.155762,2131
815.274475,2053
815.393188,2073
815.511841,2028
815.630554,2036
815.749146,2013
815.867859,2038
815.986572,1990
816.105164,2003
816.223877,2007
816.342529,1968
816.461182,2035
816.579895,2039
816.698486,2019
816.817139,1997
816.935791,2052
817.054504,2058
817.173096,2067
817.291748,1995
817.4104,1995
817.529053,1973
817.647644,1938
817.766235,1908
817.884949,1902
818.00354,1839
818.122192,1857
818.240845,1756
818.359436,1759
818.478088,1815
818.59668,1735
818.715271,1684
818.833923,1710
818.952515,1649
819.071106,1720
819.189758,1649
819.30835,1682
819.426941,1588
819.545532,1592
819.664124,1559
819.782715,1637
819.901306,1625
820.019897,1573
820.138489,1527
820.25708,1596
820.375671,1601
820.494202,1578
820.612732,1564
820.731384,1552
820.849915,1542
820.968506,1529
821.087097,1490
821.205627,1537
821.324158,1553
821.442749,1524
821.561279,1532
821.679871,1506
821.798401,1519
821.916931,1519
822.035461,1526
822.154053,1478
822.272583,1490
822.391174,1536
822.509583,1490
822.628174,1501
822.746704,1495
822.865234,1519
822.983765,1493
823.102295,1510
823.220825,1493
823.339294,1493
823.457825,1517
823.576355,1509
823.694824,1460
823.813354,1503
823.931885,1521
824.050354,1514
824.168884,1560
824.287354,1526
824.405823,1498
824.524353,1512
824.642822,1529
824.761353,1491
824.879822,1542
824.998291,1483
825.116699,1491
825.235291,1521
825.353699,1468
825.472168,1475
825.590637,1522
825.709106,1484
825.827576,1471
825.946045,1492
826.064453,1441
826.182983,1466
826.301392,1457
826.4198,1449
826.53833,1458
826.656738,1455
826.775208,1412
826.893677,1467
827.012024,1426
827.130493,1427
827.248962,1422
827.36731,1449
827.485779,1447
827.604248,1421
827.722595,1403
827.841064,1385
827.959412,1426
828.077942,1382
828.196289,1429
828.314636,1372
828.433105,1396
828.551514,1434
828.669861,1415
828.78833,1370
828.906677,1362
829.025085,1400
829.143433,1430
829.261841,1448
829.38031,1403
829.498657,1400
829.617004,1364
829.735413,1417
829.85376,1356
829.972107,1406
830.090515,1391
830.208862,1356
830.327209,1351
830.445557,1373
830.563904,1447
830.682312,1385
830.800659,1430
830.919006,1401
831.037354,1438
831.155701,1397
831.274048,1427
831.392395,1397
831.51062,1371
831.629028,1386
831.747314,1443
831.865662,1406
831.984009,1414
832.102356,1391
832.220642,1410
832.338928,1396
832.457275,1402
832.575623,1398
832.693909,1372
832.812134,1371
832.930481,1418
833.048828,1377
833.167114,1403
833.2854,1416
833.403687,1424
833.521973,1369
833.640259,1410
833.758545,1375
833.876831,1380
833.995056,1406
834.113281,1374
834.231628,1390
834.349915,1455
834.468201,1413
834.586426,1453
834.704651,1404
834.822998,1388
834.941162,1434
835.059448,1405
835.177673,1414
835.295959,1407
835.414246,1409
835.53241,1438
835.650635,1369
835.768921,1414
835.887146,1407
836.005371,1433
836.123596,1414
836.241821,1454
836.360046,1437
836.478271,1440
836.596497,1478
836.714722,1441
836.832886,1459
836.95105,1440
837.069336,1454
837.1875,1489
837.305725,1491
837.423889,1482
837.542053,1485
837.660339,1507
837.778503,1514
837.896667,1451
838.014832,1476
838.132996,1476
838.25116,1462
838.369385,1460
838.487488,1474
838.605713,1454
838.723877,1407
838.84198,1465
838.960205,1432
839.078308,1480
839.196472,1478
839.314636,1426
839.4328,1496
839.550964,1432
839.669067,1501
839.787231,1430
839.905396,1459
840.023499,1460
840.141602,1450
840.259766,1439
840.377869,1453
840.495972,1458
840.614136,1441
840.732239,1429
840.850342,1426
840.968445,1451
841.086548,1438
841.204651,1402
841.322754,1428
841.440918,1477
841.55896,1452
841.677002,1365
841.795166,1460
841.913208,1417
842.031311,1427
842.149353,1403
842.267456,1392
842.385498,1447
842.503601,1423
842.621643,1424
842.739746,1433
842.857788,1403
842.97583,1435
843.093933,1411
843.211975,1458
843.330017,1422
843.44812,1424
843.566101,1419
843.684204,1407
843.802246,1421
843.920227,1397
844.038269,1421
844.156311,1381
844.274292,1445
844.392395,1403
844.510376,1409
844.628357,1419
844.74646,1386
844.864441,1418
844.982422,1395
845.100403,1398
845.218384,1416
845.336426,1379
845.454468,1441
845.572449,1401
845.69043,1416
845.808411,1400
845.926453,1397
846.044373,1409
846.162354,1373
846.280396,1433
846.398315,1407
846.516296,1400
846.634216,1375
846.752197,1342
846.870178,1404
846.988098,1398
847.106079,1357
847.22406,1391
847.34198,1423
847.4599,1403
847.577881,1368
847.695801,1391
847.813782,1400
847.931641,1407
848.049561,1405
848.167603,1381
848.285461,1409
848.403381,1412
848.521362,1417
848.639221,1394
848.75708,1421
848.875,1417
848.99292,1368
849.110901,1395
849.22876,1452
849.34668,1401
849.464539,1441
849.582458,1406
849.700317,1403
849.818176,1403
849.936096,1415
850.053955,1419
850.171875,1389
850.289673,1401
850.407593,1377
850.525452,1379
850.643311,1423
850.761169,1386
850.878967,1402
850.996887,1397
851.114746,1399
851.232544,1401
851.350403,1390
851.468262,1373
851.58606,1433
851.703979,1422
851.821777,1439
851.939636,1396
852.057434,1403
852.175232,1384
852.293091,1369
852.410889,1415
852.528687,1427
852.646545,1447
852.764343,1433
852.88208,1470
852.999939,1441
853.117676,1400
853.235535,1424
853.353271,1418
853.471069,1418
853.588928,1436
853.706604,1411
853.824402,1372
853.9422,1438
854.059998,1396
854.177734,1379
854.295532,1411
854.413269,1405
854.531006,1435
854.648804,1404
854.766541,1384
854.884277,1394
855.002014,1448
855.119751,1400
855.237549,1440
855.355225,1442
855.473022,1439
855.590698,1457
855.708435,1423
855.826172,1426
855.943848,1440
856.061646,1397
856.179321,1442
856.296997,1448
856.414795,1416
856.53241,1437
856.650085,1451
856.767822,1450
856.885559,1445
857.003174,1430
857.120911,1435
857.238586,1440
857.356201,1500
857.473938,1419
857.591614,1431
857.709351,1446
857.826965,1443
857.944641,1444
858.062317,1494
858.179993,1424
858.297668,1440
858.415283,1466
858.532959,1458
858.650574,1453
858.768188,1406
858.885803,1427
859.003479,1437
859.121094,1467
859.23877,1448
859.356384,1425
859.473999,1427
859.591675,1464
859.709229,1442
859.826843,1439
859.944458,1392
860.062012,1451
860.179626,1423
860.297302,1403
860.414856,1432
860.532471,1458
860.650024,1423
860.767639,1434
860.885193,1401
861.002808,1392
861.120361,1408
861.237976,1398
861.35553,1411
861.473022,1386
861.590698,1442
861.708191,1411
861.825745,1406
861.943298,1434
862.060852,1416
862.178406,1372
862.295959,1410
862.413513,1364
862.531006,1418
862.64856,1455
862.766113,1395
862.883667,1360
863.00116,1404
863.118713,1402
863.236206,1400
863.353699,1431
863.471252,1437
863.588745,1407
863.706177,1443
863.82373,1406
863.941162,1426
864.058716,1414
864.176208,1446
864.29364,1423
864.411194,1432
864.528687,1449
864.646118,1440
864.763611,1425
864.881042,1450
864.998535,1431
865.116028,1405
865.233459,1418
865.350891,1393
865.468384,1422
865.585754,1438
865.703308,1453
865.820679,1393
865.938171,1423
866.055542,1426
866.173035,1387
866.290466,1417
866.407837,1452
866.52533,1427
866.6427,1399
866.760071,1437
866.877563,1410
866.994934,1439
867.112305,1392
867.229736,1418
867.347107,1417
867.464539,1416
867.58197,1425
867.699341,1420
867.81665,1435
867.934082,1390
868.051453,1468
868.168823,1411
868.286194,1457
868.403564,1439
868.520935,1428
868.638306,1413
868.755676,1444
868.872986,1475
868.990295,1484
869.107727,1436
869.225037,1445
869.342346,1446
869.459717,1442
869.577026,1462
869.694336,1484
869.811707,1457
869.929016,1435
870.046326,1452
870.163635,1434
870.280945,1445
870.398254,1460
870.515564,1429
870.632812,1431
870.750183,1413
870.867432,1474
870.984741,1466
871.102051,1461
871.219299,1464
871.336609,1458
871.453918,1468
871.571106,1488
871.688416,1423
871.805664,1484
871.922852,1415
872.040222,1459
872.157471,1425
872.274719,1461
872.391968,1501
872.509155,1440
872.626465,1468
872.743652,1457
872.860962,1536
872.978149,1416
873.095337,1447
873.212646,1459
873.329834,1470
873.44696,1406
873.564209,1465
873.681396,1493
873.798645,1440
873.915894,1470
874.03302,1414
874.150208,1479
874.267456,1466
874.384583,1508
874.501831,1408
874.618958,1476
874.736145,1457
874.853333,1496
874.970459,1491
875.087646,1494
875.204834,1468
875.32196,1486
875.439148,1476
875.556274,1457
875.673401,1427
875.790527,1467
875.907715,1445
876.024841,1415
876.141968,1445
876.259094,1436
876.376282,1455
876.493347,1445
876.610474,1450
876.7276,1501
876.844727,1440
876.961853,1411
877.078918,1420
877.195984,1465
877.313171,1427
877.430237,1448
877.547302,1453
877.664368,1466
877.781433,1418
877.898499,1485
878.015625,1459
878.13269,1500
878.249695,1416
878.366821,1456
878.483887,1430
878.600952,1447
878.717957,1440
878.834961,1442
878.952087,1434
879.069092,1467
879.186157,1471
879.303162,1446
879.420227,1450
879.537231,1436
879.654236,1449
879.77124,1412
879.888306,1418
880.005249,1428
880.122314,1452
880.239319,1444
880.356323,1394
880.473328,1415
880.590271,1411
880.707275,1400
880.824341,1406
880.941284,1434
881.058228,1403
881.175232,1412
881.292236,1415
881.40918,1429
881.526123,1422
881.643066,1398
881.760071,1438
881.877014,1454
881.993958,1439
882.11084,1449
882.227783,1382
882.344727,1425
882.46167,1452
882.578613,1416
882.695618,1441
882.812439,1470
882.929382,1419
883.046326,1437
883.163208,1427
883.280151,1441
883.397034,1440
883.513916,1458
883.630798,1413
883.747742,1482
883.864563,1431
883.981506,1453
884.098389,1400
884.21521,1543
884.332153,1431
884.448975,1440
884.565796,1464
884.682678,1492
884.7995,1490
884.916443,1492
885.033264,1511
885.150085,1521
885.266968,1528
885.383789,1581
885.500671,1552
885.617493,1555
885.734314,1529
885.851196,1539
885.967896,1504
886.084717,1567
886.201599,1560
886.318359,1610
886.435181,1537
886.552002,1532
886.668762,1561
886.785645,1547
886.902344,1534
887.019165,1512
887.135925,1504
887.252747,1517
887.369446,1504
887.486267,1489
887.603027,1490
887.719788,1516
887.836548,1459
887.953247,1474
888.070068,1483
888.186829,1448
888.303528,1490
888.420288,1470
888.536987,1473
888.653687,1497
888.770447,1490
888.887146,1436
889.003967,1467
889.120667,1436
889.237305,1489
889.354065,1422
889.470703,1489
889.587463,1422
889.704163,1462
889.820862,1497
889.937561,1481
890.054199,1442
890.170837,1438
890.287598,1467
890.404236,1427
890.520874,1456
890.637634,1473
890.754211,1487
890.87085,1458
890.987549,1465
891.104187,1467
891.220886,1458
891.337463,1459
891.454102,1473
891.57074,1454
891.687378,1465
891.804077,1468
891.920654,1460
892.037231,1415
892.15387,1451
892.270447,1516
892.387085,1473
892.503723,1472
892.6203,1441
892.736877,1466
892.853516,1488
892.970032,1443
893.08667,1502
893.203186,1481
893.319763,1469
893.43634,1480
893.552917,1471
893.669556,1476
893.786011,1475
893.902588,1470
894.019165,1424
894.135681,1489
894.252197,1520
894.368835,1517
894.485291,1471
894.601868,1500
894.718384,1507
894.8349,1467
894.951355,1461
895.067932,1486
895.184448,1475
895.300964,1505
895.417419,1513
895.533936,1482
895.650452,1495
895.766907,1482
895.883423,1464
895.999878,1483
896.116333,1469
896.232849,1514
896.349304,1443
896.465759,1474
896.582214,1480
896.698669,1481
896.815125,1482
896.931641,1499
897.048035,1471
897.164551,1527
897.280884,1501
897.397339,1440
897.513794,1435
897.630249,1493
897.746582,1523
897.863098,1465
897.979431,1487
898.095886,1509
898.212341,1504
898.328674,1518
898.445129,1483
898.561462,1502
898.677795,1518
898.794312,1495
898.910645,1486
899.026978,1465
899.143433,1525
899.259766,1513
899.37616,1476
899.492493,1474
899.608765,1489
899.725159,1459
899.841553,1501
899.957947,1496
900.07428,1525
900.190552,1526
900.306946,1543
900.423157,1487
900.53949,1502
900.655884,1551
900.772156,1466
900.888489,1511
901.004822,1496
901.121033,1518
901.237366,1466
901.353699,1525
901.46991,1533
901.586304,1470
901.702515,1501
901.818787,1523
901.93512,1542
902.051331,1521
902.167603,1544
902.283875,1524
902.400085,1547
902.516418,1560
902.632629,1556
902.74884,1591
902.865112,1552
902.981384,1574
903.097595,1547
903.213867,1568
903.330017,1559
903.446289,1548
903.5625,1569
903.67865,1544
903.794922,1525
903.911072,1551
904.027344,1559
904.143494,1583
904.259705,1546
904.375916,1533
904.492065,1550
904.608215,1564
904.724426,1529
904.840576,1489
904.956726,1514
905.072876,1543
905.189087,1489
905.305176,1555
905.421387,1560
905.537537,1527
905.653687,1498
905.769775,1564
905.885925,1512
906.002014,1554
906.118164,1496
906.234314,1526
906.350403,1528
906.466492,1527
906.582642,1520
906.69873,1506
906.814758,1509
906.930908,1508
907.046936,1512
907.163086,1537
907.279175,1527
907.395264,1531
907.511353,1537
907.62738,1503
907.743408,1503
907.859497,1528
907.975525,1507
908.091553,1512
908.207703,1536
908.32373,1540
908.439758,1541
908.555786,1554
908.671814,1515
908.787842,1536
908.90387,1519
909.019775,1498
909.135864,1547
909.251892,1536
909.367859,1531
909.483826,1552
909.599854,1529
909.715881,1546
909.831848,1514
909.947815,1557
910.063782,1500
910.179749,1544
910.295776,1538
910.411743,1514
910.527649,1537
910.643616,1553
910.759583,1468
910.875488,1528
910.991455,1536
911.107361,1500
911.223267,1514
911.339294,1519
911.4552,1519
911.571106,1561
911.687073,1596
911.802979,1507
911.918823,1547
912.034729,1505
912.150635,1503
912.266602,1503
912.382446,1518
912.498352,1494
912.614197,1521
912.730103,1524
912.846008,1573
