792.44574,2111
792.56488,2154
792.68396,2167
792.80304,2103
792.92218,1999
793.041199,2029
793.160339,2018
793.279419,1990
793.398499,1968
793.517578,2036
793.636658,1996
793.755737,2058
793.874817,2043
793.993896,2015
794.112976,1948
794.232056,1967
794.351074,1968
794.470215,1953
794.589233,1964
794.708313,1949
794.827393,1951
794.946411,1903
795.065552,1933
795.18457,1950
795.303589,1999
795.422668,1964
795.541687,1940
795.660767,1938
795.779846,1923
795.898865,1900
796.017883,1938
796.136963,1887
796.255981,1856
796.375061,1898
796.49408,1915
796.613037,1891
796.732117,1922
796.851135,1929
796.970154,1903
797.089233,1884
797.208191,1902
797.327271,1917
797.446228,1910
797.565186,1888
797.684265,1908
797.803223,1907
797.922241,1922
798.04126,1859
798.160278,1872
798.279297,1878
798.398315,1891
798.517273,1894
798.636292,1855
798.75531,1901
798.874268,1875
798.993286,1915
799.112244,1865
799.231323,1899
799.350281,1874
799.469238,1945
799.588257,1872
799.707153,1911
799.826111,1851
799.945129,1889
800.064087,1880
800.183044,1909
800.302063,1902
800.421021,1894
800.539978,1892
800.658936,1892
800.777893,1952
800.896912,1917
801.015747,1908
801.134705,1873
801.253723,1962
801.37262,1888
801.491638,1926
801.610535,1884
801.729492,1981
801.84845,1918
801.967407,1906
802.086243,1919
802.205261,2022
802.324158,1929
802.443115,1944
802.562073,1962
802.680969,1980
802.799927,1947
802.918762,1932
803.037659,1951
803.156677,1954
803.275574,1958
803.39447,1946
803.513428,1930
803.632263,1916
803.751221,2011
803.870117,1961
803.989014,1955
804.107971,1977
804.226746,2011
804.345642,2000
804.4646,1997
804.583496,1973
804.702393,2054
804.821228,2010
804.940125,2032
805.059021,2010
805.177917,2031
805.296814,1990
805.415649,2027
805.534546,2022
805.653442,2063
805.772278,2053
805.891113,2038
806.01001,2080
806.128906,2077
806.247742,2027
806.366577,1978
806.485413,2067
806.604309,2064
806.723145,2102
806.84198,2046
806.960876,2090
807.079712,2002
807.198486,2040
807.317383,2066
807.436218,2066
807.554993,2060
807.673889,2103
807.792725,2086
807.91156,2140
808.030396,2097
808.14917,2109
808.268005,2144
808.386841,2138
808.505676,2108
808.624451,2178
808.743286,2099
808.862122,2118
808.980896,2122
809.099731,2144
809.218506,2099
809.337341,2164
809.456116,2122
809.57489,2183
809.693726,2196
809.8125,2147
809.931274,2164
810.050049,2203
810.168884,2168
810.287659,2206
810.406372,2160
810.525269,2192
810.643982,2122
810.762756,2128
810.881531,2169
811.000305,2165
811.11908,2177
811.237854,2144
811.356567,2148
811.475403,2166
811.594116,2140
811.71283,2152
811.831604,2174
811.950378,2174
812.069153,2152
812.187927,2177
812.30658,2150
812.425415,2190
812.544128,2145
812.662781,2141
812.781616,2138
812.900269,2119
813.019043,2174
813.137756,2135
813.256531,2174
813.375244,2127
813.493896,2150
813.612671,2199
813.731384,2168
813.850037,2188
813.96875,2129
814.087524,2179
814.206238,2140
814.324951,2113
814.443604,2154
814.562256,2108
814.68103,2137
814.799683,2127
814.918335,2110
815.037109,2075
815.155762,2127
815.274475,2088
815.393188,2145
815.511841,2137
815.630554,2093
815.749146,2053
815.867859,2058
815.986572,2052
816.105164,2109
816.223877,2040
816.342529,2069
816.461182,2062
816.579895,2107
816.698486,2069
816.817139,2139
816.935791,2102
817.054504,2065
817.173096,2049
817.291748,2068
817.4104,2028
817.529053,2016
817.647644,2022
817.766235,1963
817.884949,1930
818.00354,1837
818.122192,1807
818.240845,1810
818.359436,1743
818.478088,1779
818.59668,1762
818.715271,1686
818.833923,1704
818.952515,1672
819.071106,1649
819.189758,1622
819.30835,1602
819.426941,1551
819.545532,1539
819.664124,1584
819.782715,1561
819.901306,1562
820.019897,1449
820.138489,1535
820.25708,1502
820.375671,1515
820.494202,1512
820.612732,1480
820.731384,1496
820.849915,1472
820.968506,1495
821.087097,1475
821.205627,1487
821.324158,1504
821.442749,1446
821.561279,1506
821.679871,1449
821.798401,1450
821.916931,1463
822.035461,1503
822.154053,1461
822.272583,1469
822.391174,1436
822.509583,1433
822.628174,1472
822.746704,1461
822.865234,1436
822.983765,1417
823.102295,1435
823.220825,1430
823.339294,1436
823.457825,1432
823.576355,1458
823.694824,1430
823.813354,1442
823.931885,1472
824.050354,1469
824.168884,1485
824.287354,1458
824.405823,1455
824.524353,1513
824.642822,1480
824.761353,1463
824.879822,1472
824.998291,1432
825.116699,1438
825.235291,1455
825.353699,1457
825.472168,1461
825.590637,1451
825.709106,1404
825.827576,1465
825.946045,1381
826.064453,1444
826.182983,1404
826.301392,1424
826.4198,1421
826.53833,1434
826.656738,1360
826.775208,1392
826.893677,1376
827.012024,1360
827.130493,1405
827.248962,1407
827.36731,1348
827.485779,1383
827.604248,1341
827.722595,1382
827.841064,1340
827.959412,1369
828.077942,1381
828.196289,1367
828.314636,1364
828.433105,1383
828.551514,1349
828.669861,1347
828.78833,1326
828.906677,1366
829.025085,1322
829.143433,1344
829.261841,1340
829.38031,1331
829.498657,1312
829.617004,1358
829.735413,1338
829.85376,1349
829.972107,1357
830.090515,1360
830.208862,1332
830.327209,1339
830.445557,1353
830.563904,1317
830.682312,1350
830.800659,1377
830.919006,1367
831.037354,1351
831.155701,1324
831.274048,1292
831.392395,1324
831.51062,1353
831.629028,1328
831.747314,1352
831.865662,1325
831.984009,1292
832.102356,1344
832.220642,1335
832.338928,1305
832.457275,1323
832.575623,1317
832.693909,1308
832.812134,1346
832.930481,1336
833.048828,1332
833.167114,1354
833.2854,1343
833.403687,1322
833.521973,1332
833.640259,1292
833.758545,1357
833.876831,1363
833.995056,1334
834.113281,1352
834.231628,1317
834.349915,1361
834.468201,1275
834.586426,1342
834.704651,1311
834.822998,1329
834.941162,1314
835.059448,1329
835.177673,1342
835.295959,1363
835.414246,1326
835.53241,1364
835.650635,1379
835.768921,1310
835.887146,1325
836.005371,1395
836.123596,1365
836.241821,1377
836.360046,1372
836.478271,1403
836.596497,1424
836.714722,1358
836.832886,1440
836.95105,1419
837.069336,1433
837.1875,1454
837.305725,1448
837.423889,1417
837.542053,1414
837.660339,1431
837.778503,1458
837.896667,1459
838.014832,1437
838.132996,1406
838.25116,1429
838.369385,1410
838.487488,1443
838.605713,1466
838.723877,1419
838.84198,1433
838.960205,1421
839.078308,1408
839.196472,1396
839.314636,1408
839.4328,1385
839.550964,1387
839.669067,1347
839.787231,1398
839.905396,1374
840.023499,1378
840.141602,1368
840.259766,1388
840.377869,1369
840.495972,1395
840.614136,1370
840.732239,1347
840.850342,1391
840.968445,1389
841.086548,1356
841.204651,1386
841.322754,1360
841.440918,1353
841.55896,1348
841.677002,1320
841.795166,1377
841.913208,1373
842.031311,1284
842.149353,1321
842.267456,1356
842.385498,1326
842.503601,1334
842.621643,1321
842.739746,1290
842.857788,1309
842.97583,1307
843.093933,1300
843.211975,1326
843.330017,1317
843.44812,1305
843.566101,1302
843.684204,1293
843.802246,1289
843.920227,1314
844.038269,1359
844.156311,1315
844.274292,1316
844.392395,1318
844.510376,1327
844.628357,1302
844.74646,1314
844.864441,1303
844.982422,1337
845.100403,1345
845.218384,1324
845.336426,1319
845.454468,1317
845.572449,1330
845.69043,1309
845.808411,1306
845.926453,1336
846.044373,1294
846.162354,1305
846.280396,1293
846.398315,1328
846.516296,1315
846.634216,1282
846.752197,1316
846.870178,1317
846.988098,1310
847.106079,1314
847.22406,1297
847.34198,1323
847.4599,1316
847.577881,1309
847.695801,1315
847.813782,1343
847.931641,1315
848.049561,1285
848.167603,1289
848.285461,1316
848.403381,1280
848.521362,1300
848.639221,1332
848.75708,1345
848.875,1295
848.99292,1307
849.110901,1308
849.22876,1307
849.34668,1334
849.464539,1330
849.582458,1303
849.700317,1304
849.818176,1326
849.936096,1299
850.053955,1325
850.171875,1292
850.289673,1279
850.407593,1312
850.525452,1337
850.643311,1324
850.761169,1281
850.878967,1295
850.996887,1318
851.114746,1296
851.232544,1315
851.350403,1330
851.468262,1295
851.58606,1330
851.703979,1339
851.821777,1332
851.939636,1316
852.057434,1290
852.175232,1317
852.293091,1332
852.410889,1328
852.528687,1340
852.646545,1312
852.764343,1310
852.88208,1339
852.999939,1313
853.117676,1312
853.235535,1374
853.353271,1371
853.471069,1345
853.588928,1364
853.706604,1367
853.824402,1337
853.9422,1351
854.059998,1294
854.177734,1350
854.295532,1352
854.413269,1338
854.531006,1347
854.648804,1341
854.766541,1331
854.884277,1382
855.002014,1353
855.119751,1402
855.237549,1368
855.355225,1339
855.473022,1371
855.590698,1364
855.708435,1332
855.826172,1333
855.943848,1357
856.061646,1390
856.179321,1346
856.296997,1357
856.414795,1372
856.53241,1342
856.650085,1374
856.767822,1396
856.885559,1332
857.003174,1340
857.120911,1409
857.238586,1323
857.356201,1377
857.473938,1359
857.591614,1396
857.709351,1368
857.826965,1394
857.944641,1368
858.062317,1352
858.179993,1339
858.297668,1371
858.415283,1336
858.532959,1309
858.650574,1362
858.768188,1377
858.885803,1381
859.003479,1361
859.121094,1320
859.23877,1334
859.356384,1304
859.473999,1360
859.591675,1353
859.709229,1368
859.826843,1365
859.944458,1348
860.062012,1300
860.179626,1345
860.297302,1340
860.414856,1386
860.532471,1350
860.650024,1352
860.767639,1338
860.885193,1320
861.002808,1354
861.120361,1345
861.237976,1361
861.35553,1338
861.473022,1319
861.590698,1356
861.708191,1329
861.825745,1380
861.943298,1371
862.060852,1354
862.178406,1354
862.295959,1319
862.413513,1361
862.531006,1368
862.64856,1343
862.766113,1366
862.883667,1346
863.00116,1362
863.118713,1350
863.236206,1381
863.353699,1345
863.471252,1345
863.588745,1391
863.706177,1318
863.82373,1358
863.941162,1379
864.058716,1374
864.176208,1415
864.29364,1349
864.411194,1365
864.528687,1352
864.646118,1372
864.763611,1376
864.881042,1391
864.998535,1377
865.116028,1365
865.233459,1381
865.350891,1387
865.468384,1379
865.585754,1387
865.703308,1350
865.820679,1363
865.938171,1380
866.055542,1416
866.173035,1394
866.290466,1356
866.407837,1370
866.52533,1377
866.6427,1419
866.760071,1366
866.877563,1388
866.994934,1403
867.112305,1382
867.229736,1423
867.347107,1382
867.464539,1396
867.58197,1411
867.699341,1361
867.81665,1355
867.934082,1360
868.051453,1385
868.168823,1404
868.286194,1376
868.403564,1391
868.520935,1397
868.638306,1364
868.755676,1364
868.872986,1365
868.990295,1401
869.107727,1325
869.225037,1376
869.342346,1365
869.459717,1382
869.577026,1417
869.694336,1367
869.811707,1387
869.929016,1411
870.046326,1373
870.163635,1373
870.280945,1430
870.398254,1386
870.515564,1402
870.632812,1373
870.750183,1438
870.867432,1371
870.984741,1382
871.102051,1343
871.219299,1402
871.336609,1378
871.453918,1385
871.571106,1387
871.688416,1386
871.805664,1378
871.922852,1360
872.040222,1377
872.157471,1415
872.274719,1364
872.391968,1366
872.509155,1383
872.626465,1366
872.743652,1393
872.860962,1369
872.978149,1421
873.095337,1373
873.212646,1400
873.329834,1378
873.44696,1380
873.564209,1419
873.681396,1364
873.798645,1371
873.915894,1375
874.03302,1364
874.150208,1350
874.267456,1390
874.384583,1355
874.501831,1392
874.618958,1373
874.736145,1432
874.853333,1366
874.970459,1405
875.087646,1396
875.204834,1397
875.32196,1359
875.439148,1389
875.556274,1381
875.673401,1410
875.790527,1401
875.907715,1388
876.024841,1383
876.141968,1372
876.259094,1433
876.376282,1403
876.493347,1394
876.610474,1387
876.7276,1404
876.844727,1385
876.961853,1410
877.078918,1377
877.195984,1436
877.313171,1398
877.430237,1402
877.547302,1364
877.664368,1431
877.781433,1409
877.898499,1413
878.015625,1394
878.13269,1433
878.249695,1394
878.366821,1387
878.483887,1396
878.600952,1357
878.717957,1431
878.834961,1407
878.952087,1448
879.069092,1395
879.186157,1393
879.303162,1417
879.420227,1379
879.537231,1435
879.654236,1424
879.77124,1393
879.888306,1394
880.005249,1409
880.122314,1360
880.239319,1412
880.356323,1386
880.473328,1404
880.590271,1428
880.707275,1447
880.824341,2527
880.941284,1388
881.058228,1434
881.175232,1402
881.292236,1434
881.40918,1412
881.526123,1401
881.643066,1414
881.760071,1426
881.877014,1452
881.993958,1406
882.11084,1426
882.227783,1417
882.344727,1451
882.46167,1428
882.578613,1413
882.695618,1400
882.812439,1400
882.929382,1422
883.046326,1392
883.163208,1427
883.280151,1407
883.397034,1424
883.513916,1406
883.630798,1418
883.747742,1413
883.864563,1391
883.981506,1417
884.098389,1389
884.21521,1418
884.332153,1449
884.448975,1433
884.565796,1410
884.682678,1397
884.7995,1423
884.916443,1431
885.033264,1424
885.150085,1420
885.266968,1450
885.383789,1406
885.500671,1465
885.617493,1414
885.734314,1409
885.851196,1429
885.967896,1436
886.084717,1387
886.201599,1435
886.318359,1423
886.435181,1480
886.552002,1418
886.668762,1453
886.785645,1469
886.902344,1439
887.019165,1422
887.135925,1413
887.252747,1426
887.369446,1452
887.486267,1452
887.603027,1418
887.719788,1424
887.836548,1442
887.953247,1429
888.070068,1369
888.186829,1434
888.303528,1484
888.420288,1468
888.536987,1450
888.653687,1460
888.770447,1414
888.887146,1420
889.003967,1456
889.120667,1420
889.237305,1435
889.354065,1438
889.470703,1478
889.587463,1450
889.704163,1460
889.820862,1434
889.937561,1476
890.054199,1470
890.170837,1489
890.287598,1485
890.404236,1432
890.520874,1461
890.637634,1484
890.754211,1470
890.87085,1463
890.987549,1439
891.104187,1488
891.220886,1470
891.337463,1452
891.454102,1463
891.57074,1481
891.687378,1476
891.804077,1448
891.920654,1486
892.037231,1469
892.15387,1440
892.270447,1446
892.387085,1471
892.503723,1475
892.6203,1512
892.736877,1450
892.853516,1487
892.970032,1519
893.08667,1469
893.203186,1454
893.319763,1479
893.43634,1503
893.552917,1467
893.669556,1481
893.786011,1494
893.902588,1446
894.019165,1510
894.135681,1452
894.252197,1509
894.368835,1495
894.485291,1472
894.601868,1474
894.718384,1464
894.8349,1486
894.951355,1472
895.067932,1511
895.184448,1507
895.300964,1462
895.417419,1513
895.533936,1452
895.650452,1542
895.766907,1480
895.883423,1497
895.999878,1479
896.116333,1544
896.232849,1451
896.349304,1461
896.465759,1506
896.582214,1461
896.698669,1469
896.815125,1488
896.931641,1467
897.048035,1456
897.164551,1478
897.280884,1463
897.397339,1474
897.513794,1540
897.630249,1446
897.746582,1497
897.863098,1497
897.979431,1476
898.095886,1499
898.212341,1541
898.328674,1447
898.445129,1433
898.561462,1511
898.677795,1507
898.794312,1505
898.910645,1478
899.026978,1522
899.143433,1539
899.259766,1508
899.37616,1483
899.492493,1504
899.608765,1469
899.725159,1473
899.841553,1526
899.957947,1463
900.07428,1477
900.190552,1526
900.306946,1480
900.423157,1504
900.53949,1511
900.655884,1516
900.772156,1501
900.888489,1524
901.004822,1479
901.121033,1511
901.237366,1500
901.353699,1506
901.46991,1493
901.586304,1442
901.702515,1537
901.818787,1491
901.93512,1514
902.051331,1506
902.167603,1502
902.283875,1497
902.400085,1458
902.516418,1525
902.632629,1518
902.74884,1477
902.865112,1546
902.981384,1504
903.097595,1486
903.213867,1531
903.330017,1547
903.446289,1526
903.5625,1523
903.67865,1456
903.794922,1558
903.911072,1506
904.027344,1494
904.143494,1531
904.259705,1543
904.375916,1490
904.492065,1508
904.608215,1566
904.724426,1496
904.840576,1541
904.956726,1540
905.072876,1523
905.189087,1519
905.305176,1545
905.421387,1529
905.537537,1518
905.653687,1511
905.769775,1553
905.885925,1537
906.002014,1509
906.118164,1506
906.234314,1479
906.350403,1516
906.466492,1498
906.582642,1517
906.69873,1504
906.814758,1537
906.930908,1558
907.046936,1493
907.163086,1543
907.279175,1570
907.395264,1512
907.511353,1518
907.62738,1520
907.743408,1535
907.859497,1503
907.975525,1557
908.091553,1551
908.207703,1547
908.32373,1527
908.439758,1511
908.555786,1505
908.671814,1518
908.787842,1555
908.90387,1580
909.019775,1468
909.135864,1495
909.251892,1503
909.367859,1554
909.483826,1512
909.599854,1536
909.715881,1504
909.831848,1528
909.947815,1504
910.063782,1543
910.179749,1534
910.295776,1547
910.411743,1563
910.527649,1582
910.643616,1544
910.759583,1478
910.875488,1560
910.991455,1586
911.107361,1555
911.223267,1501
911.339294,1520
911.4552,1512
911.571106,1559
911.687073,1557
911.802979,1557
911.918823,1494
912.034729,1543
912.150635,1545
912.266602,1559
912.382446,1547
912.498352,1541
912.614197,1552
912.730103,1517
912.846008,1514
792.44574,2183
792.56488,2165
792.68396,2223
792.80304,2113
792.92218,2143
793.041199,2057
793.160339,2083
793.279419,2127
793.398499,2131
793.517578,2063
793.636658,2034
793.755737,2051
793.874817,2088
793.993896,2017
794.112976,2057
794.232056,2027
794.351074,2062
794.470215,2009
794.589233,2065
794.708313,2007
794.827393,1961
794.946411,1960
795.065552,2029
795.18457,1960
795.303589,2033
795.422668,1993
795.541687,1953
795.660767,2024
795.779846,1982
795.898865,1944
796.017883,1948
796.136963,1944
796.255981,1969
796.375061,1903
796.49408,1977
796.613037,1935
796.732117,1910
796.851135,1941
796.970154,1925
797.089233,1883
797.208191,1928
797.327271,1908
797.446228,1954
797.565186,1881
797.684265,1927
797.803223,1945
797.922241,1912
798.04126,1918
798.160278,1915
798.279297,1935
798.398315,1921
798.517273,1915
798.636292,1961
798.75531,1925
798.874268,1934
798.993286,1962
799.112244,1933
799.231323,1863
799.350281,1905
799.469238,1937
799.588257,1939
799.707153,1937
799.826111,1910
799.945129,1918
800.064087,1940
800.183044,1926
800.302063,1956
800.421021,1955
800.539978,1904
800.658936,1911
800.777893,1938
800.896912,1901
801.015747,1966
801.134705,1930
801.253723,1951
801.37262,1950
801.491638,1968
801.610535,1917
801.729492,1975
801.84845,1948
801.967407,1990
802.086243,1939
802.205261,1955
802.324158,1973
802.443115,1989
802.562073,2042
802.680969,2008
802.799927,1970
802.918762,1972
803.037659,1977
803.156677,2007
803.275574,2007
803.39447,2067
803.513428,1984
803.632263,2034
803.751221,1973
803.870117,1978
803.989014,1988
804.107971,2038
804.226746,2081
804.345642,2047
804.4646,1996
804.583496,2009
804.702393,2076
804.821228,2061
804.940125,2080
805.059021,2062
805.177917,2043
805.296814,2078
805.415649,2072
805.534546,2067
805.653442,2064
805.772278,2119
805.891113,2086
806.01001,2105
806.128906,2133
806.247742,2035
806.366577,2121
806.485413,2110
806.604309,2146
806.723145,2078
806.84198,2133
806.960876,2101
807.079712,2109
807.198486,2121
807.317383,2159
807.436218,2148
807.554993,2170
807.673889,2088
807.792725,2135
807.91156,2143
808.030396,2154
808.14917,2101
808.268005,2081
808.386841,2131
808.505676,2159
808.624451,2165
808.743286,2174
808.862122,2185
808.980896,2132
809.099731,2183
809.218506,2138
809.337341,2166
809.456116,2165
809.57489,2157
809.693726,2185
809.8125,2174
809.931274,2217
810.050049,2144
810.168884,2180
810.287659,2249
810.406372,2167
810.525269,2171
810.643982,2176
810.762756,2176
810.881531,2172
811.000305,2228
811.11908,2195
811.237854,2215
811.356567,2187
811.475403,2285
811.594116,2171
811.71283,2211
811.831604,2184
811.950378,2219
812.069153,2226
812.187927,2240
812.30658,2202
812.425415,2212
812.544128,2248
812.662781,2145
812.781616,2175
812.900269,2227
813.019043,2201
813.137756,2185
813.256531,2161
813.375244,2137
813.493896,2192
813.612671,2174
813.731384,2183
813.850037,2185
813.96875,2178
814.087524,2174
814.206238,2223
814.324951,2169
814.443604,2155
814.562256,2209
814.68103,2151
814.799683,2182
814.918335,2145
815.037109,2165
815.155762,2119
815.274475,2154
815.393188,2169
815.511841,2124
815.630554,2136
815.749146,2099
815.867859,2099
815.986572,2115
816.105164,2063
816.223877,2090
816.342529,2103
816.461182,2171
816.579895,2109
816.698486,2123
816.817139,2133
816.935791,2150
817.054504,2169
817.173096,2151
817.291748,2113
817.4104,2056
817.529053,2060
817.647644,1965
817.766235,1952
817.884949,1932
818.00354,1836
818.122192,1868
818.240845,1878
818.359436,1781
818.478088,1815
818.59668,1717
818.715271,1740
818.833923,1691
818.952515,1656
819.071106,1655
819.189758,1672
819.30835,1617
819.426941,1612
819.545532,1601
819.664124,1578
819.782715,1585
819.901306,1614
820.019897,1579
820.138489,1553
820.25708,1579
820.375671,1535
820.494202,1510
820.612732,1505
820.731384,1515
820.849915,1496
820.968506,1511
821.087097,1473
821.205627,1548
821.324158,1505
821.442749,1501
821.561279,1466
821.679871,1512
821.798401,1487
821.916931,1440
822.035461,1492
822.154053,1464
822.272583,1487
822.391174,1438
822.509583,1491
822.628174,1473
822.746704,1459
822.865234,1457
822.983765,1473
823.102295,1475
823.220825,1426
823.339294,1423
823.457825,1519
823.576355,1454
823.694824,1471
823.813354,1479
823.931885,1496
824.050354,1511
824.168884,1496
824.287354,1524
824.405823,1483
824.524353,1521
824.642822,1467
824.761353,1535
824.879822,1495
824.998291,1495
825.116699,1447
825.235291,1481
825.353699,1469
825.472168,1488
825.590637,1407
825.709106,1466
825.827576,1469
825.946045,1425
826.064453,1437
826.182983,1426
826.301392,1425
826.4198,1399
826.53833,1434
826.656738,1428
826.775208,1412
826.893677,1392
827.012024,1407
827.130493,1401
827.248962,1359
827.36731,1401
827.485779,1413
827.604248,1405
827.722595,1400
827.841064,1377
827.959412,1405
828.077942,1353
828.196289,1362
828.314636,1333
828.433105,1378
828.551514,1370
828.669861,1371
828.78833,1397
828.906677,1360
829.025085,1399
829.143433,1339
829.261841,1355
829.38031,1392
829.498657,1372
829.617004,1359
829.735413,1363
829.85376,1322
829.972107,1337
830.090515,1384
830.208862,1372
830.327209,1374
830.445557,1338
830.563904,1403
830.682312,1362
830.800659,1351
830.919006,1368
831.037354,1323
831.155701,1397
831.274048,1365
831.392395,1371
831.51062,1375
831.629028,1337
831.747314,1338
831.865662,1365
831.984009,1354
832.102356,1401
832.220642,1373
832.338928,1343
832.457275,1321
832.575623,1391
832.693909,1312
832.812134,1364
832.930481,1374
833.048828,1335
833.167114,1367
833.2854,1399
833.403687,1353
833.521973,1378
833.640259,1334
833.758545,1385
833.876831,1354
833.995056,1394
834.113281,1361
834.231628,1399
834.349915,1359
834.468201,1369
834.586426,1392
834.704651,1388
834.822998,1346
834.941162,1354
835.059448,1357
835.177673,1373
835.295959,1348
835.414246,1411
835.53241,1370
835.650635,1359
835.768921,1408
835.887146,1379
836.005371,1390
836.123596,1403
836.241821,1393
836.360046,1376
836.478271,1417
836.596497,1416
836.714722,1437
836.832886,1452
836.95105,1443
837.069336,1480
837.1875,1473
837.305725,1423
837.423889,1481
837.542053,1466
837.660339,1413
837.778503,1474
837.896667,1435
838.014832,1445
838.132996,1412
838.25116,1491
838.369385,1450
838.487488,1474
838.605713,1451
838.723877,1429
838.84198,1460
838.960205,1456
839.078308,1453
839.196472,1406
839.314636,1452
839.4328,1416
839.550964,1427
839.669067,1416
839.787231,1408
839.905396,1444
840.023499,1438
840.141602,1442
840.259766,1467
840.377869,1419
840.495972,1431
840.614136,1388
840.732239,1405
840.850342,1370
840.968445,1406
841.086548,1402
841.204651,1387
841.322754,1399
841.440918,1355
841.55896,1414
841.677002,1410
841.795166,1340
841.913208,1364
842.031311,1363
842.149353,1353
842.267456,1358
842.385498,1341
842.503601,1353
842.621643,1346
842.739746,1348
842.857788,1320
842.97583,1342
843.093933,1373
843.211975,1331
843.330017,1405
843.44812,1371
843.566101,1348
843.684204,1292
843.802246,1366
843.920227,1323
844.038269,1338
844.156311,1365
844.274292,1332
844.392395,1330
844.510376,1331
844.628357,1314
844.74646,1310
844.864441,1339
844.982422,1339
845.100403,1333
845.218384,1352
845.336426,1325
845.454468,1328
845.572449,1330
845.69043,1311
845.808411,1336
845.926453,1336
846.044373,1324
846.162354,1361
846.280396,1342
846.398315,1363
846.516296,1330
846.634216,1322
846.752197,1347
846.870178,1303
846.988098,1352
847.106079,1345
847.22406,1327
847.34198,1300
847.4599,1319
847.577881,1355
847.695801,1329
847.813782,1339
847.931641,1303
848.049561,1360
848.167603,1329
848.285461,1322
848.403381,1309
848.521362,1356
848.639221,1351
848.75708,1329
848.875,1337
848.99292,1363
849.110901,1328
849.22876,1356
849.34668,1320
849.464539,1343
849.582458,1327
849.700317,1292
849.818176,1313
849.936096,1343
850.053955,1330
850.171875,1333
850.289673,1333
850.407593,1322
850.525452,1330
850.643311,1362
850.761169,1340
850.878967,1340
850.996887,1340
851.114746,1330
851.232544,1335
851.350403,1297
851.468262,1384
851.58606,1364
851.703979,1319
851.821777,1373
851.939636,1327
852.057434,1361
852.175232,1351
852.293091,1339
852.410889,1312
852.528687,1374
852.646545,1348
852.764343,1382
852.88208,1357
852.999939,1399
853.117676,1351
853.235535,1329
853.353271,1394
853.471069,1340
853.588928,1368
853.706604,1345
853.824402,1382
853.9422,1351
854.059998,1363
854.177734,1358
854.295532,1351
854.413269,1373
854.531006,1359
854.648804,1374
854.766541,1373
854.884277,1350
855.002014,1353
855.119751,1357
855.237549,1371
855.355225,1368
855.473022,1411
855.590698,1371
855.708435,1379
855.826172,1364
855.943848,1368
856.061646,1378
856.179321,1424
856.296997,1377
856.414795,1343
856.53241,1374
856.650085,1421
856.767822,1362
856.885559,1409
857.003174,1395
857.120911,1421
857.238586,1382
857.356201,1361
857.473938,1379
857.591614,1395
857.709351,1384
857.826965,1395
857.944641,1398
858.062317,1387
858.179993,1365
858.297668,1417
858.415283,1385
858.532959,1406
858.650574,1385
858.768188,1378
858.885803,1398
859.003479,1404
859.121094,1380
859.23877,1407
859.356384,1379
859.473999,1337
859.591675,1363
859.709229,1359
859.826843,1391
859.944458,1328
860.062012,1402
860.179626,1353
860.297302,1376
860.414856,1386
860.532471,1378
860.650024,1395
860.767639,1365
860.885193,1385
861.002808,1347
861.120361,1353
861.237976,1379
861.35553,1352
861.473022,1398
861.590698,1363
861.708191,1372
861.825745,1382
861.943298,1339
862.060852,1406
862.178406,1365
862.295959,1387
862.413513,1356
862.531006,1359
862.64856,1385
862.766113,1361
862.883667,1349
863.00116,1357
863.118713,1424
863.236206,1416
863.353699,1371
863.471252,1382
863.588745,1357
863.706177,1387
863.82373,1407
863.941162,1444
864.058716,1400
864.176208,1374
864.29364,1408
864.411194,1403
864.528687,1407
864.646118,1410
864.763611,1398
864.881042,1380
864.998535,1397
865.116028,1402
865.233459,1403
865.350891,1407
865.468384,1402
865.585754,1421
865.703308,1411
865.820679,1424
865.938171,1410
866.055542,1419
866.173035,1422
866.290466,1406
866.407837,1400
866.52533,1418
866.6427,1383
866.760071,1428
866.877563,1385
866.994934,1396
867.112305,1427
867.229736,1417
867.347107,1409
867.464539,1419
867.58197,1395
867.699341,1383
867.81665,1377
867.934082,1412
868.051453,1409
868.168823,1402
868.286194,1425
868.403564,1424
868.520935,1409
868.638306,1440
868.755676,1370
868.872986,1414
868.990295,1416
869.107727,1418
869.225037,1383
869.342346,1418
869.459717,1400
869.577026,1408
869.694336,1382
869.811707,1387
869.929016,1421
870.046326,1416
870.163635,1439
870.280945,1389
870.398254,1416
870.515564,1404
870.632812,1373
870.750183,1397
870.867432,1395
870.984741,1447
871.102051,1386
871.219299,1389
871.336609,1398
871.453918,1421
871.571106,1427
871.688416,1401
871.805664,1343
871.922852,1393
872.040222,1412
872.157471,1433
872.274719,1386
872.391968,1433
872.509155,1391
872.626465,1430
872.743652,1434
872.860962,1386
872.978149,1390
873.095337,1424
873.212646,1412
873.329834,1381
873.44696,1404
873.564209,1410
873.681396,1397
873.798645,1434
873.915894,1404
874.03302,1427
874.150208,1401
874.267456,1384
874.384583,1411
874.501831,1427
874.618958,1381
874.736145,1430
874.853333,1428
874.970459,1414
875.087646,1398
875.204834,1384
875.32196,1378
875.439148,1391
875.556274,1398
875.673401,1428
875.790527,1395
875.907715,1419
876.024841,1406
876.141968,1431
876.259094,1395
876.376282,1418
876.493347,1372
876.610474,1415
876.7276,1434
876.844727,1434
876.961853,1379
877.078918,1399
877.195984,1418
877.313171,1441
877.430237,1481
877.547302,1406
877.664368,1441
877.781433,1451
877.898499,1408
878.015625,1462
878.13269,1406
878.249695,1447
878.366821,1450
878.483887,1424
878.600952,1383
878.717957,1423
878.834961,1438
878.952087,1453
879.069092,1432
879.186157,1520
879.303162,1411
879.420227,1461
879.537231,1460
879.654236,1409
879.77124,1413
879.888306,1435
880.005249,1444
880.122314,1459
880.239319,1393
880.356323,1460
880.473328,1464
880.590271,1421
880.707275,1486
880.824341,1411
880.941284,1453
881.058228,1444
881.175232,1434
881.292236,1423
881.40918,1434
881.526123,1411
881.643066,1438
881.760071,1404
881.877014,1429
881.993958,1420
882.11084,1414
882.227783,1462
882.344727,1455
882.46167,1423
882.578613,1451
882.695618,1439
882.812439,1422
882.929382,1475
883.046326,1482
883.163208,1424
883.280151,1429
883.397034,1433
883.513916,1440
883.630798,1448
883.747742,1435
883.864563,1475
883.981506,1441
884.098389,1481
884.21521,1467
884.332153,1448
884.448975,1446
884.565796,1419
884.682678,1473
884.7995,1488
884.916443,1456
885.033264,1480
885.150085,1459
885.266968,1414
885.383789,1482
885.500671,1453
885.617493,1492
885.734314,1442
885.851196,1445
885.967896,1496
886.084717,1486
886.201599,1414
886.318359,1492
886.435181,1473
886.552002,1484
886.668762,1476
886.785645,1466
886.902344,1471
887.019165,1434
887.135925,1517
887.252747,1491
887.369446,1472
887.486267,1487
887.603027,1467
887.719788,1486
887.836548,1474
887.953247,1444
888.070068,1449
888.186829,1477
888.303528,1448
888.420288,1489
888.536987,1459
888.653687,1452
888.770447,1491
888.887146,1486
889.003967,1508
889.120667,1460
889.237305,1467
889.354065,1489
889.470703,1447
889.587463,1437
889.704163,1480
889.820862,1514
889.937561,1475
890.054199,1469
890.170837,1468
890.287598,1461
890.404236,1451
890.520874,1502
890.637634,1484
890.754211,1524
890.87085,1491
890.987549,1497
891.104187,1464
891.220886,1493
891.337463,1459
891.454102,1493
891.57074,1481
891.687378,1482
891.804077,1487
891.920654,1488
892.037231,1501
892.15387,1501
892.270447,1491
892.387085,1505
892.503723,1498
892.6203,1501
892.736877,1480
892.853516,1467
892.970032,1529
893.08667,1520
893.203186,1515
893.319763,1481
893.43634,1497
893.552917,1543
893.669556,1516
893.786011,1481
893.902588,1463
894.019165,1520
894.135681,1490
894.252197,1503
894.368835,1508
894.485291,1522
894.601868,1490
894.718384,1469
894.8349,1541
894.951355,1512
895.067932,1505
895.184448,1537
895.300964,1569
895.417419,1501
895.533936,1535
895.650452,1547
895.766907,1516
895.883423,1527
895.999878,1538
896.116333,1531
896.232849,1520
896.349304,1522
896.465759,1540
896.582214,1525
896.698669,1518
896.815125,1518
896.931641,1511
897.048035,1511
897.164551,1512
897.280884,1508
897.397339,1548
897.513794,1518
897.630249,1503
897.746582,1567
897.863098,1532
897.979431,1509
898.095886,1521
898.212341,1553
898.328674,1541
898.445129,1528
898.561462,1522
898.677795,1519
898.794312,1517
898.910645,1508
899.026978,1523
899.143433,1534
899.259766,1485
899.37616,1535
899.492493,1524
899.608765,1572
899.725159,1562
899.841553,1526
899.957947,1532
900.07428,1582
900.190552,1525
900.306946,1514
900.423157,1568
900.53949,1569
900.655884,1513
900.772156,1503
900.888489,1566
901.004822,1497
901.121033,1545
901.237366,1531
901.353699,1507
901.46991,1531
901.586304,1516
901.702515,1543
901.818787,1574
901.93512,1550
902.051331,1529
902.167603,1550
902.283875,1547
902.400085,1539
902.516418,1528
902.632629,1564
902.74884,1544
902.865112,1549
902.981384,1580
903.097595,1528
903.213867,1517
903.330017,1527
903.446289,1529
903.5625,1605
903.67865,1554
903.794922,1574
903.911072,1589
904.027344,1554
904.143494,1512
904.259705,1558
904.375916,1586
904.492065,1537
904.608215,1536
904.724426,1579
904.840576,1543
904.956726,1561
905.072876,1502
905.189087,1559
905.305176,1545
905.421387,1555
905.537537,1530
905.653687,1565
905.769775,1552
905.885925,1604
906.002014,1527
906.118164,1599
906.234314,1612
906.350403,1550
906.466492,1570
906.582642,1564
906.69873,1568
906.814758,1552
906.930908,1561
907.046936,1553
907.163086,1553
907.279175,1567
907.395264,1589
907.511353,1557
907.62738,1526
907.743408,1593
907.859497,1558
907.975525,1595
908.091553,1585
908.207703,1537
908.32373,1575
908.439758,1514
908.555786,1559
908.671814,1571
908.787842,1573
908.90387,1550
909.019775,1567
909.135864,1554
909.251892,1579
909.367859,1610
909.483826,1568
909.599854,1555
909.715881,1564
909.831848,1602
909.947815,1561
910.063782,1566
910.179749,1582
910.295776,1577
910.411743,1588
910.527649,1624
910.643616,1557
910.759583,1595
910.875488,1578
910.991455,1560
911.107361,1576
911.223267,1576
911.339294,1579
911.4552,1576
911.571106,1569
911.687073,1573
911.802979,1553
911.918823,1580
912.034729,1589
912.150635,1632
912.266602,1542
912.382446,1583
912.498352,1598
912.614197,1561
912.730103,1578
912.846008,1596
792.44574,2157
792.56488,2176
792.68396,2158
792.80304,2182
792.92218,2092
793.041199,2080
793.160339,2091
793.279419,2068
793.398499,2125
793.517578,2112
793.636658,2079
793.755737,2058
793.874817,2060
793.993896,2067
794.112976,2064
794.232056,2044
794.351074,2074
794.470215,2060
794.589233,2010
794.708313,2019
794.827393,2005
794.946411,1986
795.065552,2005
795.18457,2004
795.303589,2030
795.422668,1960
795.541687,1998
795.660767,1986
795.779846,1977
795.898865,1989
796.017883,1973
796.136963,1951
796.255981,1899
796.375061,1960
796.49408,1962
796.613037,2003
796.732117,1980
796.851135,1922
796.970154,1961
797.089233,1954
797.208191,1944
797.327271,1915
797.446228,1964
797.565186,1929
797.684265,1980
797.803223,1898
797.922241,1906
798.04126,1931
798.160278,1916
798.279297,1954
798.398315,1915
798.517273,1949
798.636292,1926
798.75531,1959
798.874268,1926
798.993286,1973
799.112244,1957
799.231323,1917
799.350281,1951
799.469238,1899
799.588257,1933
799.707153,1931
799.826111,1997
799.945129,1927
800.064087,1950
800.183044,1963
800.302063,1990
800.421021,1898
800.539978,1973
800.658936,1914
800.777893,1972
800.896912,1935
801.015747,1895
801.134705,1950
801.253723,1889
801.37262,1997
801.491638,1951
801.610535,1971
801.729492,1960
801.84845,1967
801.967407,1955
802.086243,2037
802.205261,1988
802.324158,1992
802.443115,2005
802.562073,2031
802.680969,2013
802.799927,2069
802.918762,2003
803.037659,2024
803.156677,2018
803.275574,2008
803.39447,2021
803.513428,2027
803.632263,2031
803.751221,2057
803.870117,2090
803.989014,2033
804.107971,2029
804.226746,2059
804.345642,2055
804.4646,2073
804.583496,2097
804.702393,2121
804.821228,2016
804.940125,2119
805.059021,2042
805.177917,2061
805.296814,2089
805.415649,2117
805.534546,2048
805.653442,2087
805.772278,2108
805.891113,2120
806.01001,2088
806.128906,2095
806.247742,2109
806.366577,2110
806.485413,2111
806.604309,2169
806.723145,2123
806.84198,2110
806.960876,2135
807.079712,2119
807.198486,2125
807.317383,2128
807.436218,2071
807.554993,2141
807.673889,2060
807.792725,2106
807.91156,2103
808.030396,2130
808.14917,2075
808.268005,2116
808.386841,2125
808.505676,2130
808.624451,2185
808.743286,2170
808.862122,2142
808.980896,2183
809.099731,2176
809.218506,2185
809.337341,2138
809.456116,2195
809.57489,2210
809.693726,2203
809.8125,2184
809.931274,2157
810.050049,2178
810.168884,2219
810.287659,2188
810.406372,2149
810.525269,2179
810.643982,2256
810.762756,2249
810.881531,2185
811.000305,2201
811.11908,2174
811.237854,2188
811.356567,2210
811.475403,2237
811.594116,2179
811.71283,2196
811.831604,2169
811.950378,2204
812.069153,2262
812.187927,2277
812.30658,2232
812.425415,2187
812.544128,2213
812.662781,2187
812.781616,2279
812.900269,2151
813.019043,2232
813.137756,2217
813.256531,2226
813.375244,2211
813.493896,2219
813.612671,2178
813.731384,2247
813.850037,2183
813.96875,2183
814.087524,2177
814.206238,2214
814.324951,2216
814.443604,2167
814.562256,2219
814.68103,2190
814.799683,2169
814.918335,2195
815.037109,2183
815.155762,2168
815.274475,2165
815.393188,2135
815.511841,2135
815.630554,2176
815.749146,2141
815.867859,2125
815.986572,2139
816.105164,2096
816.223877,2138
816.342529,2093
816.461182,2107
816.579895,2145
816.698486,2157
816.817139,2143
816.935791,2178
817.054504,2143
817.173096,2182
817.291748,2107
817.4104,2129
817.529053,2037
817.647644,2011
817.766235,2025
817.884949,1955
818.00354,1937
818.122192,1868
818.240845,1840
818.359436,1813
818.478088,1767
818.59668,1776
818.715271,1710
818.833923,1718
818.952515,1690
819.071106,1677
819.189758,1655
819.30835,1626
819.426941,1639
819.545532,1626
819.664124,1599
819.782715,1561
819.901306,1619
820.019897,1602
820.138489,1563
820.25708,1535
820.375671,1557
820.494202,1528
820.612732,1524
820.731384,1567
820.849915,1514
820.968506,1481
821.087097,1522
821.205627,1533
821.324158,1501
821.442749,1491
821.561279,1481
821.679871,1493
821.798401,1486
821.916931,1481
822.035461,1494
822.154053,1498
822.272583,1472
822.391174,1517
822.509583,1493
822.628174,1525
822.746704,1478
822.865234,1459
822.983765,1491
823.102295,1520
823.220825,1485
823.339294,1492
823.457825,1521
823.576355,1468
823.694824,1503
823.813354,1536
823.931885,1494
824.050354,1480
824.168884,1557
824.287354,1504
824.405823,1549
824.524353,1540
824.642822,1513
824.761353,1494
824.879822,1492
824.998291,1474
825.116699,1467
825.235291,1478
825.353699,1471
825.472168,1471
825.590637,1468
825.709106,1464
825.827576,1428
825.946045,1443
826.064453,1449
826.182983,1454
826.301392,1481
826.4198,1419
826.53833,1444
826.656738,1449
826.775208,1417
826.893677,1413
827.012024,1414
827.130493,1412
827.248962,1377
827.36731,1351
827.485779,1394
827.604248,1409
827.722595,1379
827.841064,1413
827.959412,1346
828.077942,1429
828.196289,1404
828.314636,1429
828.433105,1387
828.551514,1409
828.669861,1392
828.78833,1342
828.906677,1390
829.025085,1373
829.143433,1383
829.261841,1417
829.38031,1372
829.498657,1414
829.617004,1354
829.735413,1380
829.85376,1393
829.972107,1394
830.090515,1379
830.208862,1381
830.327209,1390
830.445557,1373
830.563904,1400
830.682312,1398
830.800659,1388
830.919006,1388
831.037354,1405
831.155701,1407
831.274048,1361
831.392395,1318
831.51062,1377
831.629028,1372
831.747314,1369
831.865662,1345
831.984009,1371
832.102356,1411
832.220642,1369
832.338928,1366
832.457275,1370
832.575623,1360
832.693909,1341
832.812134,1322
832.930481,1352
833.048828,1409
833.167114,1385
833.2854,1375
833.403687,1386
833.521973,1337
833.640259,1364
833.758545,1412
833.876831,1340
833.995056,1396
834.113281,1348
834.231628,1402
834.349915,1386
834.468201,1382
834.586426,1413
834.704651,1404
834.822998,1380
834.941162,1373
835.059448,1353
835.177673,1364
835.295959,1412
835.414246,1363
835.53241,1362
835.650635,1370
835.768921,1382
835.887146,1402
836.005371,1414
836.123596,1401
836.241821,1392
836.360046,1420
836.478271,1423
836.596497,1465
836.714722,1428
836.832886,1443
836.95105,1470
837.069336,1457
837.1875,1448
837.305725,1446
837.423889,1474
837.542053,1465
837.660339,1431
837.778503,1454
837.896667,1450
838.014832,1435
838.132996,1455
838.25116,1449
838.369385,1455
838.487488,1455
838.605713,1433
838.723877,1443
838.84198,1477
838.960205,1418
839.078308,1476
839.196472,1450
839.314636,1411
839.4328,1453
839.550964,1452
839.669067,1418
839.787231,1432
839.905396,1406
840.023499,1420
840.141602,1377
840.259766,1418
840.377869,1386
840.495972,1398
840.614136,1436
840.732239,1390
840.850342,1381
840.968445,1422
841.086548,1409
841.204651,1430
841.322754,1414
841.440918,1369
841.55896,1405
841.677002,1390
841.795166,1447
841.913208,1385
842.031311,1387
842.149353,1416
842.267456,1389
842.385498,1393
842.503601,1379
842.621643,1398
842.739746,1357
842.857788,1384
842.97583,1338
843.093933,1389
843.211975,1342
843.330017,1369
843.44812,1368
843.566101,1370
843.684204,1342
843.802246,1337
843.920227,1341
844.038269,1326
844.156311,1353
844.274292,1338
844.392395,1375
844.510376,1382
844.628357,1318
844.74646,1382
844.864441,1362
844.982422,1378
845.100403,1339
845.218384,1344
845.336426,1329
845.454468,1333
845.572449,1389
845.69043,1387
845.808411,1316
845.926453,1377
846.044373,1319
846.162354,1316
846.280396,1369
846.398315,1337
846.516296,1366
846.634216,1318
846.752197,1368
846.870178,1354
846.988098,1331
847.106079,1356
847.22406,1337
847.34198,1358
847.4599,1340
847.577881,1322
847.695801,1379
847.813782,1346
847.931641,1337
848.049561,1386
848.167603,1341
848.285461,1362
848.403381,1326
848.521362,1330
848.639221,1356
848.75708,1319
848.875,1385
848.99292,1368
849.110901,1327
849.22876,1322
849.34668,1318
849.464539,1370
849.582458,1302
849.700317,1375
849.818176,1359
849.936096,1345
850.053955,1332
850.171875,1348
850.289673,1339
850.407593,1350
850.525452,1327
850.643311,1368
850.761169,1345
850.878967,1378
850.996887,1332
851.114746,1386
851.232544,1329
851.350403,1317
851.468262,1385
851.58606,1349
851.703979,1346
851.821777,1356
851.939636,1379
852.057434,1327
852.175232,1335
852.293091,1347
852.410889,1334
852.528687,1371
852.646545,1359
852.764343,1370
852.88208,1361
852.999939,1380
853.117676,1376
853.235535,1367
853.353271,1349
853.471069,1336
853.588928,1348
853.706604,1395
853.824402,1378
853.9422,1380
854.059998,1380
854.177734,1369
854.295532,1399
854.413269,1388
854.531006,1329
854.648804,1369
854.766541,1359
854.884277,1406
855.002014,1399
855.119751,1408
855.237549,1420
855.355225,1420
855.473022,1394
855.590698,1371
855.708435,1386
855.826172,1399
855.943848,1426
856.061646,1378
856.179321,1419
856.296997,1370
856.414795,1423
856.53241,1387
856.650085,1395
856.767822,1400
856.885559,1363
857.003174,1406
857.120911,1383
857.238586,1389
857.356201,1423
857.473938,1418
857.591614,1377
857.709351,1416
857.826965,1405
857.944641,1368
858.062317,1388
858.179993,1401
858.297668,1391
858.415283,1402
858.532959,1408
858.650574,1366
858.768188,1383
858.885803,1376
859.003479,1406
859.121094,1420
859.23877,1373
859.356384,1410
859.473999,1439
859.591675,1366
859.709229,1361
859.826843,1420
859.944458,1366
860.062012,1361
860.179626,1373
860.297302,1389
860.414856,1354
860.532471,1359
860.650024,1389
860.767639,1390
860.885193,1362
861.002808,1390
861.120361,1361
861.237976,1385
861.35553,1377
861.473022,1413
861.590698,1368
861.708191,1394
861.825745,1394
861.943298,1383
862.060852,1403
862.178406,1394
862.295959,1351
862.413513,1420
862.531006,1360
862.64856,1396
862.766113,1415
862.883667,1400
863.00116,1397
863.118713,1439
863.236206,1432
863.353699,1369
863.471252,1426
863.588745,1418
863.706177,1380
863.82373,1401
863.941162,1402
864.058716,1411
864.176208,1369
864.29364,1436
864.411194,1372
864.528687,1419
864.646118,1377
864.763611,1455
864.881042,1398
864.998535,1389
865.116028,1387
865.233459,1442
865.350891,1380
865.468384,1421
865.585754,1408
865.703308,1382
865.820679,1402
865.938171,1438
866.055542,1406
866.173035,1409
866.290466,1442
866.407837,1400
866.52533,1423
866.6427,1445
866.760071,1358
866.877563,1439
866.994934,1403
867.112305,1424
867.229736,1426
867.347107,1410
867.464539,1437
867.58197,1437
867.699341,1445
867.81665,1426
867.934082,1426
868.051453,1419
868.168823,1395
868.286194,1397
868.403564,1385
868.520935,1435
868.638306,1416
868.755676,1452
868.872986,1415
868.990295,1464
869.107727,1425
869.225037,1387
869.342346,1430
869.459717,1410
869.577026,1435
869.694336,1410
869.811707,1446
869.929016,1422
870.046326,1420
870.163635,1405
870.280945,1450
870.398254,1452
870.515564,1392
870.632812,1411
870.750183,1413
870.867432,1423
870.984741,1405
871.102051,1424
871.219299,1404
871.336609,1397
871.453918,1454
871.571106,1391
871.688416,1431
871.805664,1383
871.922852,1443
872.040222,1408
872.157471,1467
872.274719,1373
872.391968,1415
872.509155,1384
872.626465,1424
872.743652,1390
872.860962,1434
872.978149,1408
873.095337,1423
873.212646,1427
873.329834,1427
873.44696,1424
873.564209,1442
873.681396,1377
873.798645,1464
873.915894,1373
874.03302,1459
874.150208,1402
874.267456,1422
874.384583,1372
874.501831,1424
874.618958,1374
874.736145,1453
874.853333,1428
874.970459,1412
875.087646,1435
875.204834,1440
875.32196,1464
875.439148,1459
875.556274,1436
875.673401,1462
875.790527,1406
875.907715,1429
876.024841,1391
876.141968,1440
876.259094,1401
876.376282,1431
876.493347,1454
876.610474,1409
876.7276,1419
876.844727,1441
876.961853,1422
877.078918,1444
877.195984,1405
877.313171,1465
877.430237,1420
877.547302,1428
877.664368,1479
877.781433,1425
877.898499,1430
878.015625,1444
878.13269,1463
878.249695,1496
878.366821,1470
878.483887,1443
878.600952,1435
878.717957,1426
878.834961,1451
878.952087,1455
879.069092,1426
879.186157,1469
879.303162,1432
879.420227,1434
879.537231,1471
879.654236,1429
879.77124,1470
879.888306,1414
880.005249,1481
880.122314,1445
880.239319,1459
880.356323,1471
880.473328,1485
880.590271,1395
880.707275,1453
880.824341,1446
880.941284,1450
881.058228,1414
881.175232,1464
881.292236,1430
881.40918,1453
881.526123,1456
881.643066,1456
881.760071,1453
881.877014,1475
881.993958,1438
882.11084,1440
882.227783,1415
882.344727,1461
882.46167,1468
882.578613,1462
882.695618,1397
882.812439,1426
882.929382,1491
883.046326,1449
883.163208,1409
883.280151,1464
883.397034,1427
883.513916,1486
883.630798,1478
883.747742,1457
883.864563,1427
883.981506,1473
884.098389,1478
884.21521,1415
884.332153,1503
884.448975,1463
884.565796,1463
884.682678,1460
884.7995,1454
884.916443,1503
885.033264,1451
885.150085,1499
885.266968,1426
885.383789,1469
885.500671,1450
885.617493,1475
885.734314,1452
885.851196,1484
885.967896,1459
886.084717,1463
886.201599,1519
886.318359,1526
886.435181,1442
886.552002,1463
886.668762,1499
886.785645,1489
886.902344,1513
887.019165,1476
887.135925,1441
887.252747,1508
887.369446,1462
887.486267,1478
887.603027,1473
887.719788,1458
887.836548,1460
887.953247,1494
888.070068,1497
888.186829,1472
888.303528,1438
888.420288,1497
888.536987,1472
888.653687,1472
888.770447,1521
888.887146,1491
889.003967,1487
889.120667,1528
889.237305,1501
889.354065,1501
889.470703,1523
889.587463,1394
889.704163,1539
889.820862,1510
889.937561,1490
890.054199,1453
890.170837,1495
890.287598,1512
890.404236,1460
890.520874,1496
890.637634,1516
890.754211,1495
890.87085,1524
890.987549,1518
891.104187,1524
891.220886,1525
891.337463,1489
891.454102,1500
891.57074,1507
891.687378,1499
891.804077,1505
891.920654,1502
892.037231,1543
892.15387,1498
892.270447,1536
892.387085,1510
892.503723,1498
892.6203,1481
892.736877,1503
892.853516,1539
892.970032,1527
893.08667,1489
893.203186,1490
893.319763,1532
893.43634,1511
893.552917,1531
893.669556,1558
893.786011,1479
893.902588,1532
894.019165,1514
894.135681,1512
894.252197,1536
894.368835,1508
894.485291,1549
894.601868,1543
894.718384,1567
894.8349,1493
894.951355,1558
895.067932,1539
895.184448,1507
895.300964,1599
895.417419,1545
895.533936,1502
895.650452,1578
895.766907,1521
895.883423,1548
895.999878,1513
896.116333,1533
896.232849,1540
896.349304,1533
896.465759,1529
896.582214,1510
896.698669,1573
896.815125,1544
896.931641,1529
897.048035,1527
897.164551,1534
897.280884,1587
897.397339,1529
897.513794,1577
897.630249,1521
897.746582,1554
897.863098,1578
897.979431,1523
898.095886,1558
898.212341,1571
898.328674,1553
898.445129,1539
898.561462,1544
898.677795,1536
898.794312,1537
898.910645,1499
899.026978,1513
899.143433,1549
899.259766,1563
899.37616,1588
899.492493,1514
899.608765,1533
899.725159,1519
899.841553,1559
899.957947,1534
900.07428,1556
900.190552,1582
900.306946,1518
900.423157,1535
900.53949,1514
900.655884,1510
900.772156,1566
900.888489,1569
901.004822,1540
901.121033,1557
901.237366,1584
901.353699,1565
901.46991,1562
901.586304,1555
901.702515,1523
901.818787,1514
901.93512,1518
902.051331,1542
902.167603,1527
902.283875,1596
902.400085,1544
902.516418,1573
902.632629,1579
902.74884,1569
902.865112,1587
902.981384,1509
903.097595,1568
903.213867,1524
903.330017,1595
903.446289,1579
903.5625,1578
903.67865,1555
903.794922,1568
903.911072,1594
904.027344,1592
904.143494,1557
904.259705,1580
904.375916,1613
904.492065,1544
904.608215,1570
904.724426,1538
904.840576,1544
904.956726,1572
905.072876,1560
905.189087,1584
905.305176,1565
905.421387,1591
905.537537,1586
905.653687,1550
905.769775,1589
905.885925,1649
906.002014,1584
906.118164,1576
906.234314,1547
906.350403,1600
906.466492,1582
906.582642,1541
906.69873,1581
906.814758,1580
906.930908,1563
907.046936,1533
907.163086,1548
907.279175,1607
907.395264,1611
907.511353,1598
907.62738,1583
907.743408,1560
907.859497,1562
907.975525,1609
908.091553,1537
908.207703,1597
908.32373,1540
908.439758,1625
908.555786,1623
908.671814,1543
908.787842,1528
908.90387,1617
909.019775,1567
909.135864,1557
909.251892,1601
909.367859,1593
909.483826,1572
909.599854,1588
909.715881,1570
909.831848,1617
909.947815,1523
910.063782,1607
910.179749,1564
910.295776,1570
910.411743,1587
910.527649,1576
910.643616,1618
910.759583,1616
910.875488,1600
910.991455,1584
911.107361,1575
911.223267,1610
911.339294,1576
911.4552,1627
911.571106,1588
911.687073,1585
911.802979,1584
911.918823,1603
912.034729,1570
912.150635,1590
912.266602,1580
912.382446,1596
912.498352,1570
912.614197,1645
912.730103,1622
912.846008,1621
