792.44574,3740
792.56488,3670
792.68396,3584
792.80304,3506
792.92218,3398
793.041199,3336
793.160339,3360
793.279419,3330
793.398499,3259
793.517578,3173
793.636658,3052
793.755737,3090
793.874817,3059
793.993896,3022
794.112976,2963
794.232056,2923
794.351074,2867
794.470215,2911
794.589233,2803
794.708313,2844
794.827393,2722
794.946411,2698
795.065552,2676
795.18457,2640
795.303589,2639
795.422668,2611
795.541687,2616
795.660767,2593
795.779846,2516
795.898865,2514
796.017883,2541
796.136963,2480
796.255981,2517
796.375061,2452
796.49408,2385
796.613037,2435
796.732117,2383
796.851135,2380
796.970154,2357
797.089233,2306
797.208191,2337
797.327271,2334
797.446228,2261
797.565186,2281
797.684265,2318
797.803223,2198
797.922241,2228
798.04126,2290
798.160278,2233
798.279297,2221
798.398315,2201
798.517273,2217
798.636292,2123
798.75531,2252
798.874268,2178
798.993286,2211
799.112244,2209
799.231323,2166
799.350281,2135
799.469238,2166
799.588257,2166
799.707153,2138
799.826111,2148
799.945129,2111
800.064087,2119
800.183044,2073
800.302063,2034
800.421021,2127
800.539978,2086
800.658936,2096
800.777893,2104
800.896912,2058
801.015747,2039
801.134705,1999
801.253723,2000
801.37262,2013
801.491638,2004
801.610535,2019
801.729492,2016
801.84845,1963
801.967407,2024
802.086243,1980
802.205261,1987
802.324158,2005
802.443115,2005
802.562073,2024
802.680969,1965
802.799927,1993
802.918762,2055
803.037659,1942
803.156677,1913
803.275574,1962
803.39447,1958
803.513428,1930
803.632263,1943
803.751221,1964
803.870117,1852
803.989014,1936
804.107971,1899
804.226746,1894
804.345642,1903
804.4646,1902
804.583496,1898
804.702393,1874
804.821228,1897
804.940125,1905
805.059021,1883
805.177917,1827
805.296814,1880
805.415649,1903
805.534546,1873
805.653442,1936
805.772278,1912
805.891113,1919
806.01001,1922
806.128906,1903
806.247742,1906
806.366577,1874
806.485413,1868
806.604309,1897
806.723145,1918
806.84198,1851
806.960876,1922
807.079712,1898
807.198486,1904
807.317383,1884
807.436218,1914
807.554993,1860
807.673889,1907
807.792725,1855
807.91156,1877
808.030396,1900
808.14917,1881
808.268005,1864
808.386841,1873
808.505676,1881
808.624451,1894
808.743286,1881
808.862122,1890
808.980896,1889
809.099731,1941
809.218506,1938
809.337341,1909
809.456116,1896
809.57489,1936
809.693726,1909
809.8125,1932
809.931274,1978
810.050049,1958
810.168884,1940
810.287659,1950
810.406372,1983
810.525269,1934
810.643982,1991
810.762756,1970
810.881531,1958
811.000305,1950
811.11908,1961
811.237854,1974
811.356567,1971
811.475403,1948
811.594116,1951
811.71283,1939
811.831604,1942
811.950378,1933
812.069153,1946
812.187927,1919
812.30658,1958
812.425415,1930
812.544128,1906
812.662781,1899
812.781616,1934
812.900269,1948
813.019043,1893
813.137756,1931
813.256531,1971
813.375244,1863
813.493896,1885
813.612671,1849
813.731384,1866
813.850037,1892
813.96875,1880
814.087524,1855
814.206238,1840
814.324951,1827
814.443604,1813
814.562256,1845
814.68103,1879
814.799683,1889
814.918335,1830
815.037109,1831
815.155762,1828
815.274475,1843
815.393188,1829
815.511841,1767
815.630554,1817
815.749146,1758
815.867859,1781
815.986572,1814
816.105164,1743
816.223877,1799
816.342529,1773
816.461182,1775
816.579895,1854
816.698486,1845
816.817139,1828
816.935791,1802
817.054504,1848
817.173096,1847
817.291748,1809
817.4104,1796
817.529053,1821
817.647644,1822
817.766235,1766
817.884949,1807
818.00354,1809
818.122192,1761
818.240845,1813
818.359436,1812
818.478088,1808
818.59668,1795
818.715271,1763
818.833923,1701
818.952515,1744
819.071106,1755
819.189758,1768
819.30835,1737
819.426941,1754
819.545532,1794
819.664124,1803
819.782715,1737
819.901306,1781
820.019897,1724
820.138489,1739
820.25708,1784
820.375671,1749
820.494202,1773
820.612732,1693
820.731384,1761
820.849915,1728
820.968506,1723
821.087097,1719
821.205627,1722
821.324158,1693
821.442749,1694
821.561279,1672
821.679871,1649
821.798401,1617
821.916931,1658
822.035461,1659
822.154053,1649
822.272583,1646
822.391174,1648
822.509583,1573
822.628174,1626
822.746704,1571
822.865234,1573
822.983765,1515
823.102295,1584
823.220825,1594
823.339294,1549
823.457825,1608
823.576355,1592
823.694824,1533
823.813354,1604
823.931885,1559
824.050354,1578
824.168884,1596
824.287354,1576
824.405823,1558
824.524353,1552
824.642822,1584
824.761353,1576
824.879822,1562
824.998291,1549
825.116699,1572
825.235291,1562
825.353699,1528
825.472168,1570
825.590637,1544
825.709106,1542
825.827576,1508
825.946045,1573
826.064453,1499
826.182983,1508
826.301392,1531
826.4198,1555
826.53833,1519
826.656738,1487
826.775208,1504
826.893677,1546
827.012024,1522
827.130493,1473
827.248962,1524
827.36731,1553
827.485779,1525
827.604248,1505
827.722595,1513
827.841064,1519
827.959412,1489
828.077942,1566
828.196289,1470
828.314636,1502
828.433105,1483
828.551514,1541
828.669861,1519
828.78833,1495
828.906677,1468
829.025085,1497
829.143433,1472
829.261841,1511
829.38031,1440
829.498657,1481
829.617004,1447
829.735413,1452
829.85376,1458
829.972107,1458
830.090515,1465
830.208862,1460
830.327209,1479
830.445557,1465
830.563904,1469
830.682312,1450
830.800659,1516
830.919006,1487
831.037354,1509
831.155701,1505
831.274048,1539
831.392395,1491
831.51062,1509
831.629028,1493
831.747314,1477
831.865662,1497
831.984009,1501
832.102356,1528
832.220642,1523
832.338928,1489
832.457275,1524
832.575623,1496
832.693909,1554
832.812134,1555
832.930481,1559
833.048828,1508
833.167114,1511
833.2854,1482
833.403687,1531
833.521973,1513
833.640259,1491
833.758545,1510
833.876831,1497
833.995056,1486
834.113281,1542
834.231628,1499
834.349915,1572
834.468201,1477
834.586426,1517
834.704651,1488
834.822998,1503
834.941162,1506
835.059448,1491
835.177673,1513
835.295959,1511
835.414246,1505
835.53241,1494
835.650635,1468
835.768921,1481
835.887146,1456
836.005371,1511
836.123596,1516
836.241821,1466
836.360046,1499
836.478271,1476
836.596497,1519
836.714722,1498
836.832886,1521
836.95105,1495
837.069336,1481
837.1875,1478
837.305725,1495
837.423889,1478
837.542053,1464
837.660339,1506
837.778503,1515
837.896667,1499
838.014832,1487
838.132996,1487
838.25116,1516
838.369385,1530
838.487488,1516
838.605713,1543
838.723877,1528
838.84198,1525
838.960205,1496
839.078308,1475
839.196472,1479
839.314636,1557
839.4328,1545
839.550964,1514
839.669067,1575
839.787231,1543
839.905396,1564
840.023499,1545
840.141602,1573
840.259766,1593
840.377869,1540
840.495972,1583
840.614136,1587
840.732239,1578
840.850342,1580
840.968445,1593
841.086548,1588
841.204651,1623
841.322754,1642
841.440918,1639
841.55896,1654
841.677002,1634
841.795166,1660
841.913208,1619
842.031311,1651
842.149353,1636
842.267456,1684
842.385498,1683
842.503601,1655
842.621643,1675
842.739746,1678
842.857788,1662
842.97583,1721
843.093933,1725
843.211975,1687
843.330017,1754
843.44812,1761
843.566101,1695
843.684204,1716
843.802246,1715
843.920227,1752
844.038269,1758
844.156311,1766
844.274292,1731
844.392395,1746
844.510376,1777
844.628357,1739
844.74646,1737
844.864441,1738
844.982422,1745
845.100403,1733
845.218384,1725
845.336426,1758
845.454468,1734
845.572449,1659
845.69043,1707
845.808411,1676
845.926453,1678
846.044373,1692
846.162354,1719
846.280396,1697
846.398315,1693
846.516296,1677
846.634216,1698
846.752197,1669
846.870178,1728
846.988098,1699
847.106079,1693
847.22406,1701
847.34198,1740
847.4599,1734
847.577881,1744
847.695801,1755
847.813782,1763
847.931641,1767
848.049561,1783
848.167603,1770
848.285461,1745
848.403381,1788
848.521362,1836
848.639221,1839
848.75708,1843
848.875,1885
848.99292,1886
849.110901,1889
849.22876,1935
849.34668,1926
849.464539,1920
849.582458,1975
849.700317,1949
849.818176,1897
849.936096,1984
850.053955,1910
850.171875,1944
850.289673,1994
850.407593,1961
850.525452,1927
850.643311,1940
850.761169,1934
850.878967,1932
850.996887,1955
851.114746,1934
851.232544,1918
851.350403,1880
851.468262,1824
851.58606,1876
851.703979,1796
851.821777,1808
851.939636,1776
852.057434,1813
852.175232,1720
852.293091,1782
852.410889,1778
852.528687,1732
852.646545,1761
852.764343,1802
852.88208,1716
852.999939,1726
853.117676,1661
853.235535,1631
853.353271,1613
853.471069,1654
853.588928,1586
853.706604,1583
853.824402,1568
853.9422,1603
854.059998,1597
854.177734,1605
854.295532,1604
854.413269,1568
854.531006,1628
854.648804,1636
854.766541,1605
854.884277,1612
855.002014,1591
855.119751,1623
855.237549,1610
855.355225,1619
855.473022,1587
855.590698,1559
855.708435,1590
855.826172,1605
855.943848,1619
856.061646,1591
856.179321,1606
856.296997,1677
856.414795,1635
856.53241,1644
856.650085,1628
856.767822,1635
856.885559,1632
857.003174,1646
857.120911,1657
857.238586,1687
857.356201,1679
857.473938,1595
857.591614,1661
857.709351,1668
857.826965,1630
857.944641,1665
858.062317,1655
858.179993,1691
858.297668,1651
858.415283,1681
858.532959,1646
858.650574,1669
858.768188,1648
858.885803,1675
859.003479,1671
859.121094,1628
859.23877,1665
859.356384,1664
859.473999,1582
859.591675,1613
859.709229,1655
859.826843,1622
859.944458,1580
860.062012,1626
860.179626,1647
860.297302,1573
860.414856,1575
860.532471,1541
860.650024,1606
860.767639,1596
860.885193,1549
861.002808,1569
861.120361,1588
861.237976,1578
861.35553,1597
861.473022,1618
861.590698,1591
861.708191,1625
861.825745,1537
861.943298,1538
862.060852,1561
862.178406,1548
862.295959,1523
862.413513,1538
862.531006,1489
862.64856,1506
862.766113,1485
862.883667,1506
863.00116,1519
863.118713,1512
863.236206,1535
863.353699,1507
863.471252,1504
863.588745,1539
863.706177,1527
863.82373,1574
863.941162,1529
864.058716,1564
864.176208,1484
864.29364,1522
864.411194,1501
864.528687,1496
864.646118,1514
864.763611,1515
864.881042,1520
864.998535,1541
865.116028,1511
865.233459,1538
865.350891,1524
865.468384,1510
865.585754,1526
865.703308,1537
865.820679,1524
865.938171,1527
866.055542,1493
866.173035,1530
866.290466,1462
866.407837,1491
866.52533,1520
866.6427,1471
866.760071,1506
866.877563,1520
866.994934,1541
867.112305,1498
867.229736,1550
867.347107,1488
867.464539,1557
867.58197,1528
867.699341,1509
867.81665,1510
867.934082,1496
868.051453,1555
868.168823,1540
868.286194,1519
868.403564,1548
868.520935,1486
868.638306,1540
868.755676,1537
868.872986,1495
868.990295,1555
869.107727,1542
869.225037,1540
869.342346,1547
869.459717,1528
869.577026,1580
869.694336,1552
869.811707,1536
869.929016,1565
870.046326,1588
870.163635,1580
870.280945,1598
870.398254,1589
870.515564,1570
870.632812,1577
870.750183,1594
870.867432,1627
870.984741,1563
871.102051,1601
871.219299,1608
871.336609,1638
871.453918,1640
871.571106,1614
871.688416,1650
871.805664,1621
871.922852,1608
872.040222,1655
872.157471,1668
872.274719,1645
872.391968,1640
872.509155,1635
872.626465,1645
872.743652,1604
872.860962,1638
872.978149,1649
873.095337,1649
873.212646,1622
873.329834,1634
873.44696,1604
873.564209,1611
873.681396,1593
873.798645,1597
873.915894,1654
874.03302,1604
874.150208,1633
874.267456,1634
874.384583,1626
874.501831,1605
874.618958,1602
874.736145,1668
874.853333,1594
874.970459,1669
875.087646,1667
875.204834,2794
875.32196,3799
875.439148,2708
875.556274,1605
875.673401,1611
875.790527,1635
875.907715,1602
876.024841,1625
876.141968,1586
876.259094,1577
876.376282,1587
876.493347,1613
876.610474,1610
876.7276,1622
876.844727,1552
876.961853,1578
877.078918,1582
877.195984,1554
877.313171,1598
877.430237,1564
877.547302,1549
877.664368,1591
877.781433,1564
877.898499,1568
878.015625,1540
878.13269,1569
878.249695,1536
878.366821,1522
878.483887,1576
878.600952,1536
878.717957,1528
878.834961,1574
878.952087,1515
879.069092,1535
879.186157,1564
879.303162,1539
879.420227,1552
879.537231,1538
879.654236,1504
879.77124,1507
879.888306,1486
880.005249,1490
880.122314,1518
880.239319,1492
880.356323,1512
880.473328,1466
880.590271,1509
880.707275,1485
880.824341,1483
880.941284,1449
881.058228,1514
881.175232,1522
881.292236,1524
881.40918,1452
881.526123,1529
881.643066,1474
881.760071,1517
881.877014,1455
881.993958,1503
882.11084,1478
882.227783,1525
882.344727,1459
882.46167,1477
882.578613,1441
882.695618,1457
882.812439,1519
882.929382,1535
883.046326,1479
883.163208,1466
883.280151,1494
883.397034,1508
883.513916,1476
883.630798,1525
883.747742,1500
883.864563,1503
883.981506,1559
884.098389,1524
884.21521,1538
884.332153,1591
884.448975,1563
884.565796,1578
884.682678,1618
884.7995,1651
884.916443,1678
885.033264,1751
885.150085,1785
885.266968,1797
885.383789,1792
885.500671,1822
885.617493,1833
885.734314,1844
885.851196,1824
885.967896,1807
886.084717,1800
886.201599,1800
886.318359,1811
886.435181,1780
886.552002,1724
886.668762,1689
886.785645,1741
886.902344,1706
887.019165,1686
887.135925,1677
887.252747,1706
887.369446,1654
887.486267,1683
887.603027,1643
887.719788,1622
887.836548,1587
887.953247,1577
888.070068,1532
888.186829,1550
888.303528,1549
888.420288,1569
888.536987,1506
888.653687,1540
888.770447,1510
888.887146,1447
889.003967,1466
889.120667,1514
889.237305,1448
889.354065,1500
889.470703,1416
889.587463,1458
889.704163,1483
889.820862,1496
889.937561,1467
890.054199,1462
890.170837,1469
890.287598,1474
890.404236,1517
890.520874,1487
890.637634,1470
890.754211,1507
890.87085,1448
890.987549,1480
891.104187,1504
891.220886,1479
891.337463,1491
891.454102,1531
891.57074,1514
891.687378,1499
891.804077,1509
891.920654,1499
892.037231,1478
892.15387,1545
892.270447,1489
892.387085,1526
892.503723,1494
892.6203,1514
892.736877,1462
892.853516,1451
892.970032,1530
893.08667,1496
893.203186,1514
893.319763,1467
893.43634,1486
893.552917,1499
893.669556,1514
893.786011,1521
893.902588,1503
894.019165,1476
894.135681,1509
894.252197,1537
894.368835,1514
894.485291,1506
894.601868,1505
894.718384,1539
894.8349,1438
894.951355,1494
895.067932,1485
895.184448,1497
895.300964,1486
895.417419,1484
895.533936,1475
895.650452,1529
895.766907,1501
895.883423,1486
895.999878,1449
896.116333,1455
896.232849,1428
896.349304,1474
896.465759,1488
896.582214,1481
896.698669,1504
896.815125,1483
896.931641,1476
897.048035,1524
897.164551,1477
897.280884,1473
897.397339,1517
897.513794,1493
897.630249,1524
897.746582,1504
897.863098,1480
897.979431,1519
898.095886,1484
898.212341,1498
898.328674,1493
898.445129,1483
898.561462,1511
898.677795,1485
898.794312,1512
898.910645,1487
899.026978,1510
899.143433,1507
899.259766,1500
899.37616,1524
899.492493,1493
899.608765,1507
899.725159,1483
899.841553,1454
899.957947,1529
900.07428,1511
900.190552,1479
900.306946,1501
900.423157,1496
900.53949,1542
900.655884,1544
900.772156,1542
900.888489,1552
901.004822,1549
901.121033,1512
901.237366,1553
901.353699,1502
901.46991,1561
901.586304,1568
901.702515,1552
901.818787,1565
901.93512,1643
902.051331,1650
902.167603,1656
902.283875,1656
902.400085,1707
902.516418,1690
902.632629,1708
902.74884,1718
902.865112,1694
902.981384,1698
903.097595,1689
903.213867,1664
903.330017,1661
903.446289,1681
903.5625,1671
903.67865,1632
903.794922,1626
903.911072,1628
904.027344,1572
904.143494,1628
904.259705,1604
904.375916,1599
904.492065,1576
904.608215,1547
904.724426,1537
904.840576,1551
904.956726,1525
905.072876,1494
905.189087,1499
905.305176,1500
905.421387,1576
905.537537,1528
905.653687,1525
905.769775,1475
905.885925,1569
906.002014,1497
906.118164,1494
906.234314,1515
906.350403,1491
906.466492,1493
906.582642,1479
906.69873,1484
906.814758,1483
906.930908,1498
907.046936,1470
907.163086,1454
907.279175,1516
907.395264,1476
907.511353,1480
907.62738,1481
907.743408,1474
907.859497,1467
907.975525,1490
908.091553,1472
908.207703,1520
908.32373,1476
908.439758,1462
908.555786,1476
908.671814,1453
908.787842,1470
908.90387,1489
909.019775,1497
909.135864,1527
909.251892,1480
909.367859,1493
909.483826,1463
909.599854,1519
909.715881,1507
909.831848,1506
909.947815,1487
910.063782,1509
910.179749,1515
910.295776,1455
910.411743,1512
910.527649,1499
910.643616,1539
910.759583,1499
910.875488,1479
910.991455,1486
911.107361,1475
911.223267,1492
911.339294,1540
911.4552,1496
911.571106,1475
911.687073,1449
911.802979,1489
911.918823,1494
912.034729,1472
912.150635,1469
912.266602,1494
912.382446,1462
912.498352,1459
912.614197,1495
912.730103,1504
912.846008,1502
792.44574,3808
792.56488,3705
792.68396,3570
792.80304,3541
792.92218,3523
793.041199,3394
793.160339,3369
793.279419,3275
793.398499,3240
793.517578,3208
793.636658,3169
793.755737,3147
793.874817,3100
793.993896,3030
794.112976,2977
794.232056,2913
794.351074,2845
794.470215,2857
794.589233,2822
794.708313,2757
794.827393,2741
794.946411,2750
795.065552,2728
795.18457,2700
795.303589,2688
795.422668,2647
795.541687,2655
795.660767,2603
795.779846,2570
795.898865,2558
796.017883,2539
796.136963,2497
796.255981,2506
796.375061,2493
796.49408,2440
796.613037,2469
796.732117,2404
796.851135,2420
796.970154,2354
797.089233,2380
797.208191,2359
797.327271,2358
797.446228,2295
797.565186,2321
797.684265,2263
797.803223,2328
797.922241,2236
798.04126,2247
798.160278,2255
798.279297,2265
798.398315,2234
798.517273,2249
798.636292,2220
798.75531,2270
798.874268,2217
798.993286,2190
799.112244,2166
799.231323,2196
799.350281,2153
799.469238,2187
799.588257,2134
799.707153,2172
799.826111,2146
799.945129,2124
800.064087,2123
800.183044,2128
800.302063,2090
800.421021,2107
800.539978,2092
800.658936,2072
800.777893,2077
800.896912,2024
801.015747,2068
801.134705,2001
801.253723,2045
801.37262,2010
801.491638,2013
801.610535,2022
801.729492,2006
801.84845,2000
801.967407,2083
802.086243,1970
802.205261,2009
802.324158,2011
802.443115,1968
802.562073,2000
802.680969,1976
802.799927,1955
802.918762,1935
803.037659,1952
803.156677,1991
803.275574,1969
803.39447,1987
803.513428,1901
803.632263,1996
803.751221,1942
803.870117,1919
803.989014,1916
804.107971,1922
804.226746,1924
804.345642,1884
804.4646,1934
804.583496,1942
804.702393,1928
804.821228,1882
804.940125,1903
805.059021,1930
805.177917,1887
805.296814,1936
805.415649,1887
805.534546,1906
805.653442,1907
805.772278,1886
805.891113,1957
806.01001,1903
806.128906,1911
806.247742,1871
806.366577,1871
806.485413,1926
806.604309,1874
806.723145,1913
806.84198,1821
806.960876,1877
807.079712,1895
807.198486,1901
807.317383,1874
807.436218,1885
807.554993,1956
807.673889,1895
807.792725,1890
807.91156,1929
808.030396,1867
808.14917,1830
808.268005,1901
808.386841,1875
808.505676,1888
808.624451,1904
808.743286,1913
808.862122,1889
808.980896,1921
809.099731,1897
809.218506,1920
809.337341,1887
809.456116,1917
809.57489,1927
809.693726,1985
809.8125,1919
809.931274,1964
810.050049,1997
810.168884,1952
810.287659,1961
810.406372,1957
810.525269,1980
810.643982,1980
810.762756,1975
810.881531,1987
811.000305,1999
811.11908,2022
811.237854,1980
811.356567,1947
811.475403,2000
811.594116,2025
811.71283,1983
811.831604,1970
811.950378,1988
812.069153,1980
812.187927,2021
812.30658,2004
812.425415,1934
812.544128,1980
812.662781,1943
812.781616,1897
812.900269,1925
813.019043,1944
813.137756,1920
813.256531,1895
813.375244,1944
813.493896,1922
813.612671,1955
813.731384,1891
813.850037,1894
813.96875,1868
814.087524,1855
814.206238,1882
814.324951,1900
814.443604,1865
814.562256,1848
814.68103,1864
814.799683,1863
814.918335,1869
815.037109,1825
815.155762,1840
815.274475,1762
815.393188,1847
815.511841,1805
815.630554,1842
815.749146,1828
815.867859,1809
815.986572,1821
816.105164,1837
816.223877,1835
816.342529,1806
816.461182,1780
816.579895,1837
816.698486,1788
816.817139,1883
816.935791,1840
817.054504,1854
817.173096,1868
817.291748,1822
817.4104,1858
817.529053,1833
817.647644,1856
817.766235,1789
817.884949,1761
818.00354,1783
818.122192,1840
818.240845,1800
818.359436,1842
818.478088,1770
818.59668,1838
818.715271,1762
818.833923,1769
818.952515,1789
819.071106,1784
819.189758,1778
819.30835,1725
819.426941,1776
819.545532,1808
819.664124,1760
819.782715,1746
819.901306,1769
820.019897,1712
820.138489,1778
820.25708,1775
820.375671,1785
820.494202,1769
820.612732,1776
820.731384,1769
820.849915,1766
820.968506,1730
821.087097,1744
821.205627,1685
821.324158,1716
821.442749,1711
821.561279,1711
821.679871,1656
821.798401,1630
821.916931,1647
822.035461,1673
822.154053,1683
822.272583,1642
822.391174,1638
822.509583,1618
822.628174,1595
822.746704,1605
822.865234,1559
822.983765,1583
823.102295,1576
823.220825,1587
823.339294,1564
823.457825,1590
823.576355,1569
823.694824,1578
823.813354,1605
823.931885,1613
824.050354,1573
824.168884,1567
824.287354,1589
824.405823,1541
824.524353,1564
824.642822,1612
824.761353,1553
824.879822,1605
824.998291,1525
825.116699,1597
825.235291,1591
825.353699,1588
825.472168,1541
825.590637,1528
825.709106,1542
825.827576,1565
825.946045,1569
826.064453,1543
826.182983,1509
826.301392,1552
826.4198,1480
826.53833,1535
826.656738,1473
826.775208,1537
826.893677,1484
827.012024,1517
827.130493,1540
827.248962,1548
827.36731,1532
827.485779,1548
827.604248,1529
827.722595,1550
827.841064,1520
827.959412,1507
828.077942,1504
828.196289,1459
828.314636,1450
828.433105,1497
828.551514,1460
828.669861,1494
828.78833,1478
828.906677,1544
829.025085,1497
829.143433,1542
829.261841,1478
829.38031,1515
829.498657,1494
829.617004,1516
829.735413,1493
829.85376,1460
829.972107,1529
830.090515,1461
830.208862,1539
830.327209,1464
830.445557,1489
830.563904,1477
830.682312,1523
830.800659,1508
830.919006,1498
831.037354,1488
831.155701,1587
831.274048,1557
831.392395,1530
831.51062,1533
831.629028,1487
831.747314,1488
831.865662,1499
831.984009,1490
832.102356,1510
832.220642,1454
832.338928,1558
832.457275,1555
832.575623,1548
832.693909,1546
832.812134,1529
832.930481,1541
833.048828,1530
833.167114,1543
833.2854,1512
833.403687,1510
833.521973,1529
833.640259,1507
833.758545,1499
833.876831,1560
833.995056,1483
834.113281,1460
834.231628,1536
834.349915,1529
834.468201,1504
834.586426,1514
834.704651,1517
834.822998,1497
834.941162,1535
835.059448,1555
835.177673,1509
835.295959,1512
835.414246,1557
835.53241,1535
835.650635,1492
835.768921,1522
835.887146,1503
836.005371,1534
836.123596,1500
836.241821,1514
836.360046,1536
836.478271,1465
836.596497,1502
836.714722,1527
836.832886,1508
836.95105,1500
837.069336,1509
837.1875,1500
837.305725,1515
837.423889,1501
837.542053,1549
837.660339,1513
837.778503,1532
837.896667,1529
838.014832,1528
838.132996,1517
838.25116,1514
838.369385,1526
838.487488,1532
838.605713,1512
838.723877,1536
838.84198,1533
838.960205,1525
839.078308,1537
839.196472,1523
839.314636,1516
839.4328,1559
839.550964,1562
839.669067,1551
839.787231,1584
839.905396,1576
840.023499,1555
840.141602,1621
840.259766,1594
840.377869,1557
840.495972,1579
840.614136,1640
840.732239,1554
840.850342,1592
840.968445,1633
841.086548,1638
841.204651,1655
841.322754,1602
841.440918,1642
841.55896,1643
841.677002,1681
841.795166,1688
841.913208,1662
842.031311,1688
842.149353,1658
842.267456,1669
842.385498,1695
842.503601,1655
842.621643,1678
842.739746,1644
842.857788,1720
842.97583,1680
843.093933,1701
843.211975,1707
843.330017,1735
843.44812,1732
843.566101,1753
843.684204,1711
843.802246,1740
843.920227,1718
844.038269,1762
844.156311,1740
844.274292,1771
844.392395,1686
844.510376,1789
844.628357,1718
844.74646,1742
844.864441,1735
844.982422,1750
845.100403,1807
845.218384,1717
845.336426,1694
845.454468,1741
845.572449,1720
845.69043,1710
845.808411,1680
845.926453,1716
846.044373,1729
846.162354,1672
846.280396,1716
846.398315,1703
846.516296,1692
846.634216,1708
846.752197,1746
846.870178,1718
846.988098,1756
847.106079,1730
847.22406,1754
847.34198,1755
847.4599,1728
847.577881,1753
847.695801,1747
847.813782,1771
847.931641,1750
848.049561,1801
848.167603,1794
848.285461,1806
848.403381,1789
848.521362,1842
848.639221,1864
848.75708,1837
848.875,1880
848.99292,1889
849.110901,1874
849.22876,1886
849.34668,1937
849.464539,1955
849.582458,1977
849.700317,1884
849.818176,1949
849.936096,1921
850.053955,1969
850.171875,1979
850.289673,1996
850.407593,1958
850.525452,1975
850.643311,1942
850.761169,1986
850.878967,1945
850.996887,1928
851.114746,1906
851.232544,1911
851.350403,1864
851.468262,1850
851.58606,1890
851.703979,1843
851.821777,1818
851.939636,1766
852.057434,1781
852.175232,1729
852.293091,1789
852.410889,1800
852.528687,1774
852.646545,1793
852.764343,1807
852.88208,1765
852.999939,1720
853.117676,1661
853.235535,1710
853.353271,1653
853.471069,1634
853.588928,1593
853.706604,1633
853.824402,1628
853.9422,1619
854.059998,1617
854.177734,1589
854.295532,1593
854.413269,1658
854.531006,1631
854.648804,1624
854.766541,1616
854.884277,1598
855.002014,1645
855.119751,1647
855.237549,1624
855.355225,1621
855.473022,1586
855.590698,1604
855.708435,1579
855.826172,1574
855.943848,1617
856.061646,1600
856.179321,1565
856.296997,1600
856.414795,1617
856.53241,1626
856.650085,1644
856.767822,1652
856.885559,1690
857.003174,1685
857.120911,1719
857.238586,1681
857.356201,1701
857.473938,1686
857.591614,1703
857.709351,1700
857.826965,1639
857.944641,1686
858.062317,1686
858.179993,1666
858.297668,1653
858.415283,1682
858.532959,1691
858.650574,1667
858.768188,1651
858.885803,1675
859.003479,1661
859.121094,1639
859.23877,1657
859.356384,1712
859.473999,1632
859.591675,1643
859.709229,1623
859.826843,1673
859.944458,1627
860.062012,1598
860.179626,1590
860.297302,1628
860.414856,1556
860.532471,1590
860.650024,1613
860.767639,1608
860.885193,1620
861.002808,1588
861.120361,1628
861.237976,1589
861.35553,1606
861.473022,1610
861.590698,1600
861.708191,1618
861.825745,1564
861.943298,1575
862.060852,1592
862.178406,1536
862.295959,1525
862.413513,1571
862.531006,1555
862.64856,1535
862.766113,1549
862.883667,1514
863.00116,1534
863.118713,1530
863.236206,1541
863.353699,1559
863.471252,1531
863.588745,1513
863.706177,1579
863.82373,1540
863.941162,1536
864.058716,1552
864.176208,1571
864.29364,1545
864.411194,1542
864.528687,1535
864.646118,1540
864.763611,1518
864.881042,1490
864.998535,1509
865.116028,1545
865.233459,1525
865.350891,1537
865.468384,1517
865.585754,1510
865.703308,1520
865.820679,1507
865.938171,1535
866.055542,1501
866.173035,1504
866.290466,1534
866.407837,1497
866.52533,1486
866.6427,1493
866.760071,1537
866.877563,1513
866.994934,1550
867.112305,1525
867.229736,1534
867.347107,1513
867.464539,1566
867.58197,1566
867.699341,1534
867.81665,1565
867.934082,1571
868.051453,1564
868.168823,1524
868.286194,1606
868.403564,1525
868.520935,1568
868.638306,1564
868.755676,1540
868.872986,1543
868.990295,1562
869.107727,1566
869.225037,1546
869.342346,1583
869.459717,1573
869.577026,1558
869.694336,1527
869.811707,1588
869.929016,1580
870.046326,1600
870.163635,1588
870.280945,1577
870.398254,1593
870.515564,1617
870.632812,1605
870.750183,1604
870.867432,1609
870.984741,1636
871.102051,1643
871.219299,1627
871.336609,1673
871.453918,1642
871.571106,1629
871.688416,1674
871.805664,1657
871.922852,1658
872.040222,1674
872.157471,1625
872.274719,1643
872.391968,1657
872.509155,1646
872.626465,1651
872.743652,1664
872.860962,1624
872.978149,1648
873.095337,1625
873.212646,1635
873.329834,1649
873.44696,1644
873.564209,1614
873.681396,1605
873.798645,1646
873.915894,1633
874.03302,1654
874.150208,1632
874.267456,1681
874.384583,1641
874.501831,1682
874.618958,1634
874.736145,1712
874.853333,1681
874.970459,1682
875.087646,1702
875.204834,1708
875.32196,1667
875.439148,1655
875.556274,1657
875.673401,1629
875.790527,1653
875.907715,1625
876.024841,1639
876.141968,1649
876.259094,1611
876.376282,1601
876.493347,1599
876.610474,1577
876.7276,1635
876.844727,1614
876.961853,1619
877.078918,1577
877.195984,1594
877.313171,1632
877.430237,1618
877.547302,1591
877.664368,1574
877.781433,1617
877.898499,1613
878.015625,1584
878.13269,1580
878.249695,1574
878.366821,1544
878.483887,1607
878.600952,1585
878.717957,1559
878.834961,1586
878.952087,1567
879.069092,1545
879.186157,1574
879.303162,1556
879.420227,1531
879.537231,1531
879.654236,1517
879.77124,1514
879.888306,1538
880.005249,1580
880.122314,1497
880.239319,1533
880.356323,1510
880.473328,1508
880.590271,1484
880.707275,1506
880.824341,1471
880.941284,1572
881.058228,1497
881.175232,1520
881.292236,1491
881.40918,1527
881.526123,1490
881.643066,1494
881.760071,1517
881.877014,1518
881.993958,1538
882.11084,1551
882.227783,1526
882.344727,1531
882.46167,1481
882.578613,1527
882.695618,1510
882.812439,1577
882.929382,1452
883.046326,1528
883.163208,1543
883.280151,1578
883.397034,1558
883.513916,1542
883.630798,1520
883.747742,1541
883.864563,1582
883.981506,1574
884.098389,1572
884.21521,1584
884.332153,1604
884.448975,1622
884.565796,1618
884.682678,1667
884.7995,1694
884.916443,1748
885.033264,1755
885.150085,1824
885.266968,1796
885.383789,1833
885.500671,1800
885.617493,1837
885.734314,1840
885.851196,1839
885.967896,1856
886.084717,1822
886.201599,1853
886.318359,1836
886.435181,1817
886.552002,1786
886.668762,1787
886.785645,1783
886.902344,1743
887.019165,1755
887.135925,1707
887.252747,1704
887.369446,1712
887.486267,1663
887.603027,1659
887.719788,1648
887.836548,1656
887.953247,1643
888.070068,1632
888.186829,1513
888.303528,1560
888.420288,1585
888.536987,1577
888.653687,1534
888.770447,1537
888.887146,1529
889.003967,1525
889.120667,1492
889.237305,1499
889.354065,1468
889.470703,1507
889.587463,1501
889.704163,1483
889.820862,1473
889.937561,1492
890.054199,1518
890.170837,1496
890.287598,1451
890.404236,1505
890.520874,1503
890.637634,1536
890.754211,1503
890.87085,1553
890.987549,1491
891.104187,1520
891.220886,1526
891.337463,1530
891.454102,1524
891.57074,1520
891.687378,1542
891.804077,1529
891.920654,1507
892.037231,1476
892.15387,1548
892.270447,1484
892.387085,1518
892.503723,1502
892.6203,1531
892.736877,1510
892.853516,1540
892.970032,1481
893.08667,1521
893.203186,1566
893.319763,1490
893.43634,1542
893.552917,1512
893.669556,1496
893.786011,1536
893.902588,1518
894.019165,1502
894.135681,1483
894.252197,1497
894.368835,1502
894.485291,1478
894.601868,1528
894.718384,1530
894.8349,1512
894.951355,1540
895.067932,1495
895.184448,1523
895.300964,1521
895.417419,1495
895.533936,1500
895.650452,1494
895.766907,1557
895.883423,1490
895.999878,1491
896.116333,1514
896.232849,1465
896.349304,1505
896.465759,1524
896.582214,1534
896.698669,1493
896.815125,1525
896.931641,1512
897.048035,1506
897.164551,1502
897.280884,1542
897.397339,1549
897.513794,1547
897.630249,1537
897.746582,1543
897.863098,1527
897.979431,1515
898.095886,1552
898.212341,1525
898.328674,1546
898.445129,1565
898.561462,1512
898.677795,1559
898.794312,1483
898.910645,1534
899.026978,1546
899.143433,1536
899.259766,1558
899.37616,1551
899.492493,1544
899.608765,1528
899.725159,1547
899.841553,1552
899.957947,1573
900.07428,1563
900.190552,1577
900.306946,1537
900.423157,1526
900.53949,1580
900.655884,1544
900.772156,1574
900.888489,1551
901.004822,1510
901.121033,1587
901.237366,1552
901.353699,1518
901.46991,1569
901.586304,1580
901.702515,1551
901.818787,1617
901.93512,1574
902.051331,1625
902.167603,1671
902.283875,1663
902.400085,1706
902.516418,1671
902.632629,1705
902.74884,1727
902.865112,1718
902.981384,1758
903.097595,1700
903.213867,1712
903.330017,1688
903.446289,1698
903.5625,1661
903.67865,1662
903.794922,1699
903.911072,1665
904.027344,1666
904.143494,1629
904.259705,1646
904.375916,1602
904.492065,1584
904.608215,1583
904.724426,1553
904.840576,1614
904.956726,1577
905.072876,1543
905.189087,1555
905.305176,1570
905.421387,1574
905.537537,1570
905.653687,1593
905.769775,1535
905.885925,1545
906.002014,1548
906.118164,1527
906.234314,1571
906.350403,1550
906.466492,1506
906.582642,1514
906.69873,1546
906.814758,1507
906.930908,1506
907.046936,1504
907.163086,1520
907.279175,1495
907.395264,1472
907.511353,1504
907.62738,1511
907.743408,1476
907.859497,1494
907.975525,1516
908.091553,1499
908.207703,1551
908.32373,1536
908.439758,1519
908.555786,1526
908.671814,1585
908.787842,1583
908.90387,1523
909.019775,1539
909.135864,1517
909.251892,1561
909.367859,1558
909.483826,1507
909.599854,1546
909.715881,1548
909.831848,1519
909.947815,1536
910.063782,1555
910.179749,1550
910.295776,1561
910.411743,1505
910.527649,1529
910.643616,1524
910.759583,1522
910.875488,1514
910.991455,1513
911.107361,1441
911.223267,1515
911.339294,1527
911.4552,1495
911.571106,1512
911.687073,1549
911.802979,1461
911.918823,1532
912.034729,1516
912.150635,1542
912.266602,1528
912.382446,1517
912.498352,1491
912.614197,1505
912.730103,1526
912.846008,1489
792.44574,3812
792.56488,3621
792.68396,3667
792.80304,3587
792.92218,3507
793.041199,3389
793.160339,3293
793.279419,3240
793.398499,3173
793.517578,3178
793.636658,3052
793.755737,3112
793.874817,3064
793.993896,3076
794.112976,2937
794.232056,2923
794.351074,2923
794.470215,2811
794.589233,2795
794.708313,2781
794.827393,2775
794.946411,2722
795.065552,2731
795.18457,2650
795.303589,2693
795.422668,2652
795.541687,2618
795.660767,2589
795.779846,2596
795.898865,2541
796.017883,2507
796.136963,2517
796.255981,2528
796.375061,2484
796.49408,2510
796.613037,2436
796.732117,2422
796.851135,2454
796.970154,2384
797.089233,2365
797.208191,2369
797.327271,2354
797.446228,2347
797.565186,2356
797.684265,2273
797.803223,2291
797.922241,2262
798.04126,2278
798.160278,2241
798.279297,2181
798.398315,2256
798.517273,2230
798.636292,2196
798.75531,2248
798.874268,2186
798.993286,2211
799.112244,2209
799.231323,2170
799.350281,2191
799.469238,2191
799.588257,2163
799.707153,2151
799.826111,2150
799.945129,2125
800.064087,2112
800.183044,2095
800.302063,2111
800.421021,2129
800.539978,2065
800.658936,2091
800.777893,2053
800.896912,2045
801.015747,2052
801.134705,2051
801.253723,2076
801.37262,2059
801.491638,2027
801.610535,2008
801.729492,2034
801.84845,2024
801.967407,2028
802.086243,2002
802.205261,2042
802.324158,2008
802.443115,2018
802.562073,1963
802.680969,2032
802.799927,1959
802.918762,1938
803.037659,1942
803.156677,1993
803.275574,2009
803.39447,1962
803.513428,1935
803.632263,1938
803.751221,1967
803.870117,1915
803.989014,1939
804.107971,1909
804.226746,1938
804.345642,1917
804.4646,1920
804.583496,1954
804.702393,1940
804.821228,1913
804.940125,1946
805.059021,1894
805.177917,1946
805.296814,1935
805.415649,1874
805.534546,1946
805.653442,1875
805.772278,1931
805.891113,1905
806.01001,1903
806.128906,1889
806.247742,1931
806.366577,1887
806.485413,1905
806.604309,1906
806.723145,1903
806.84198,1854
806.960876,1894
807.079712,1907
807.198486,1902
807.317383,1896
807.436218,1909
807.554993,1894
807.673889,1918
807.792725,1883
807.91156,1854
808.030396,1887
808.14917,1914
808.268005,1914
808.386841,1935
808.505676,1898
808.624451,1929
808.743286,1874
808.862122,1912
808.980896,1882
809.099731,1914
809.218506,1877
809.337341,1915
809.456116,1939
809.57489,1920
809.693726,1975
809.8125,1984
809.931274,1963
810.050049,1962
810.168884,1953
810.287659,1964
810.406372,1984
810.525269,1980
810.643982,2012
810.762756,1929
810.881531,1961
811.000305,1979
811.11908,1988
811.237854,1919
811.356567,1972
811.475403,1994
811.594116,1967
811.71283,1960
811.831604,1976
811.950378,1955
812.069153,1965
812.187927,2002
812.30658,1973
812.425415,1988
812.544128,1943
812.662781,1912
812.781616,1938
812.900269,1962
813.019043,1930
813.137756,1901
813.256531,1919
813.375244,1892
813.493896,1923
813.612671,1931
813.731384,1873
813.850037,1901
813.96875,1887
814.087524,1905
814.206238,1847
814.324951,1880
814.443604,1895
814.562256,1858
814.68103,1878
814.799683,1861
814.918335,1802
815.037109,1823
815.155762,1841
815.274475,1893
815.393188,1832
815.511841,1832
815.630554,1842
815.749146,1798
815.867859,1824
815.986572,1848
816.105164,1763
816.223877,1814
816.342529,1810
816.461182,1798
816.579895,1820
816.698486,1777
816.817139,1855
816.935791,1855
817.054504,1888
817.173096,1866
817.291748,1798
817.4104,1854
817.529053,1781
817.647644,1845
817.766235,1800
817.884949,1795
818.00354,1841
818.122192,1747
818.240845,1787
818.359436,1822
818.478088,1776
818.59668,1853
818.715271,1833
818.833923,1804
818.952515,1779
819.071106,1831
819.189758,1763
819.30835,1817
819.426941,1746
819.545532,1791
819.664124,1775
819.782715,1794
819.901306,1805
820.019897,1711
820.138489,1801
820.25708,1757
820.375671,1803
820.494202,1751
820.612732,1772
820.731384,1731
820.849915,1696
820.968506,1712
821.087097,1717
821.205627,1726
821.324158,1712
821.442749,1706
821.561279,1698
821.679871,1686
821.798401,1651
821.916931,1697
822.035461,1688
822.154053,1680
822.272583,1626
822.391174,1605
822.509583,1561
822.628174,1584
822.746704,1579
822.865234,1563
822.983765,1586
823.102295,1583
823.220825,1569
823.339294,1589
823.457825,1570
823.576355,1581
823.694824,1579
823.813354,1619
823.931885,1584
824.050354,1559
824.168884,1559
824.287354,1562
824.405823,1576
824.524353,1589
824.642822,1570
824.761353,1608
824.879822,1609
824.998291,1568
825.116699,1592
825.235291,1555
825.353699,1586
825.472168,1532
825.590637,1573
825.709106,1520
825.827576,1572
825.946045,1521
826.064453,1577
826.182983,1588
826.301392,1543
826.4198,1531
826.53833,1531
826.656738,1531
826.775208,1543
826.893677,1509
827.012024,1516
827.130493,1519
827.248962,1557
827.36731,1536
827.485779,1559
827.604248,1523
827.722595,1527
827.841064,1532
827.959412,1467
828.077942,1495
828.196289,1478
828.314636,1512
828.433105,1474
828.551514,1505
828.669861,1534
828.78833,1493
828.906677,1514
829.025085,1442
829.143433,1523
829.261841,1532
829.38031,1508
829.498657,1482
829.617004,1484
829.735413,1548
829.85376,1509
829.972107,1499
830.090515,1449
830.208862,1498
830.327209,1525
830.445557,1493
830.563904,1493
830.682312,1488
830.800659,1458
830.919006,1486
831.037354,1482
831.155701,1546
831.274048,1502
831.392395,1525
831.51062,1455
831.629028,1524
831.747314,1501
831.865662,1540
831.984009,1532
832.102356,1540
832.220642,1517
832.338928,1559
832.457275,1518
832.575623,1524
832.693909,1526
832.812134,1528
832.930481,1509
833.048828,1504
833.167114,1493
833.2854,1534
833.403687,1477
833.521973,1490
833.640259,1515
833.758545,1532
833.876831,1521
833.995056,1523
834.113281,1535
834.231628,1519
834.349915,1502
834.468201,1524
834.586426,1549
834.704651,1506
834.822998,1481
834.941162,1539
835.059448,1544
835.177673,1529
835.295959,1511
835.414246,1560
835.53241,1538
835.650635,1522
835.768921,1500
835.887146,1536
836.005371,1484
836.123596,1533
836.241821,1508
836.360046,1494
836.478271,1486
836.596497,1543
836.714722,1499
836.832886,1450
836.95105,1495
837.069336,1539
837.1875,1516
837.305725,1525
837.423889,1502
837.542053,1521
837.660339,1548
837.778503,1546
837.896667,1478
838.014832,1552
838.132996,1500
838.25116,1511
838.369385,1535
838.487488,1540
838.605713,1513
838.723877,1570
838.84198,1562
838.960205,1569
839.078308,1539
839.196472,1530
839.314636,1504
839.4328,1502
839.550964,1557
839.669067,1568
839.787231,1539
839.905396,1624
840.023499,1643
840.141602,1578
840.259766,1624
840.377869,1589
840.495972,1649
840.614136,1593
840.732239,1595
840.850342,1633
840.968445,1630
841.086548,1628
841.204651,1636
841.322754,1616
841.440918,1642
841.55896,1665
841.677002,1675
841.795166,1702
841.913208,1693
842.031311,1673
842.149353,1685
842.267456,1663
842.385498,1734
842.503601,1638
842.621643,1631
842.739746,1687
842.857788,1631
842.97583,1692
843.093933,1690
843.211975,1689
843.330017,1725
843.44812,1806
843.566101,1686
843.684204,1747
843.802246,1730
843.920227,1804
844.038269,1746
844.156311,1774
844.274292,1727
844.392395,1749
844.510376,1741
844.628357,1761
844.74646,1729
844.864441,1760
844.982422,1708
845.100403,1746
845.218384,1765
845.336426,1726
845.454468,1715
845.572449,1710
845.69043,1717
845.808411,1689
845.926453,1722
846.044373,1714
846.162354,1708
846.280396,1676
846.398315,1705
846.516296,1755
846.634216,1705
846.752197,1686
846.870178,1693
846.988098,1714
847.106079,1728
847.22406,1733
847.34198,1738
847.4599,1770
847.577881,1775
847.695801,1747
847.813782,1704
847.931641,1794
848.049561,1791
848.167603,1815
848.285461,1834
848.403381,1800
848.521362,1817
848.639221,1864
848.75708,1824
848.875,1827
848.99292,1865
849.110901,1892
849.22876,1936
849.34668,1878
849.464539,1952
849.582458,1917
849.700317,2004
849.818176,1922
849.936096,1959
850.053955,1971
850.171875,1954
850.289673,1987
850.407593,1975
850.525452,1988
850.643311,1925
850.761169,1972
850.878967,1932
850.996887,1939
851.114746,1871
851.232544,1911
851.350403,1894
851.468262,1884
851.58606,1875
851.703979,1843
851.821777,1799
851.939636,1839
852.057434,1799
852.175232,1811
852.293091,1757
852.410889,1829
852.528687,1811
852.646545,1818
852.764343,1759
852.88208,1755
852.999939,1705
853.117676,1689
853.235535,1616
853.353271,1618
853.471069,1640
853.588928,1652
853.706604,1586
853.824402,1586
853.9422,1587
854.059998,1640
854.177734,1639
854.295532,1638
854.413269,1617
854.531006,1620
854.648804,1638
854.766541,1605
854.884277,1607
855.002014,1678
855.119751,1625
855.237549,1584
855.355225,1539
855.473022,1584
855.590698,1611
855.708435,1621
855.826172,1620
855.943848,1682
856.061646,1606
856.179321,1609
856.296997,1618
856.414795,1679
856.53241,1647
856.650085,1662
856.767822,1685
856.885559,1652
857.003174,1689
857.120911,1674
857.238586,1643
857.356201,1670
857.473938,1649
857.591614,1642
857.709351,1665
857.826965,1684
857.944641,1677
858.062317,1656
858.179993,1666
858.297668,1693
858.415283,1651
858.532959,1708
858.650574,1631
858.768188,1682
858.885803,1699
859.003479,1716
859.121094,1659
859.23877,1661
859.356384,1661
859.473999,1630
859.591675,1652
859.709229,1655
859.826843,1651
859.944458,1606
860.062012,1608
860.179626,1599
860.297302,1582
860.414856,1586
860.532471,1646
860.650024,1621
860.767639,1554
860.885193,1598
861.002808,1584
861.120361,1584
861.237976,1596
861.35553,1664
861.473022,1605
861.590698,1577
861.708191,1584
861.825745,1597
861.943298,1553
862.060852,1550
862.178406,1581
862.295959,1558
862.413513,1499
862.531006,1551
862.64856,1489
862.766113,1589
862.883667,1543
863.00116,1541
863.118713,1515
863.236206,1498
863.353699,1534
863.471252,1555
863.588745,1528
863.706177,1564
863.82373,1537
863.941162,1591
864.058716,1568
864.176208,1519
864.29364,1563
864.411194,1538
864.528687,1554
864.646118,1574
864.763611,1513
864.881042,1533
864.998535,1547
865.116028,1533
865.233459,1543
865.350891,1526
865.468384,1513
865.585754,1547
865.703308,1482
865.820679,1515
865.938171,1535
866.055542,1514
866.173035,1499
866.290466,1516
866.407837,1486
866.52533,1555
866.6427,1548
866.760071,1495
866.877563,1525
866.994934,1527
867.112305,1529
867.229736,1539
867.347107,1528
867.464539,1540
867.58197,1543
867.699341,1602
867.81665,1565
867.934082,1576
868.051453,1547
868.168823,1542
868.286194,1511
868.403564,1534
868.520935,1553
868.638306,1547
868.755676,1554
868.872986,1577
868.990295,1538
869.107727,1512
869.225037,1581
869.342346,1585
869.459717,1572
869.577026,1565
869.694336,1573
869.811707,1555
869.929016,1567
870.046326,1587
870.163635,1574
870.280945,1613
870.398254,1599
870.515564,1611
870.632812,1599
870.750183,1672
870.867432,1663
870.984741,1575
871.102051,1642
871.219299,1644
871.336609,1615
871.453918,1654
871.571106,1644
871.688416,1733
871.805664,1667
871.922852,1643
872.040222,1671
872.157471,1667
872.274719,1693
872.391968,1669
872.509155,1662
872.626465,1641
872.743652,1686
872.860962,1653
872.978149,1618
873.095337,1616
873.212646,1589
873.329834,1646
873.44696,1644
873.564209,1595
873.681396,1618
873.798645,1635
873.915894,1589
874.03302,1656
874.150208,1572
874.267456,1650
874.384583,1665
874.501831,1651
874.618958,1691
874.736145,1705
874.853333,1657
874.970459,1752
875.087646,1659
875.204834,1652
875.32196,1659
875.439148,1619
875.556274,1673
875.673401,1689
875.790527,1591
875.907715,1598
876.024841,1623
876.141968,1638
876.259094,1562
876.376282,1631
876.493347,1563
876.610474,1635
876.7276,1624
876.844727,1613
876.961853,1589
877.078918,1549
877.195984,1626
877.313171,1593
877.430237,1588
877.547302,1613
877.664368,1591
877.781433,1608
877.898499,1657
878.015625,1619
878.13269,1554
878.249695,1606
878.366821,1565
878.483887,1579
878.600952,1576
878.717957,1545
878.834961,1560
878.952087,1531
879.069092,1546
879.186157,1580
879.303162,1541
879.420227,1528
879.537231,1531
879.654236,1497
879.77124,1484
879.888306,1494
880.005249,1550
880.122314,1549
880.239319,1493
880.356323,1511
880.473328,1515
880.590271,1525
880.707275,1539
880.824341,1497
880.941284,1496
881.058228,1530
881.175232,1544
881.292236,1493
881.40918,1497
881.526123,1491
881.643066,1490
881.760071,1523
881.877014,1520
881.993958,1536
882.11084,1519
882.227783,1516
882.344727,1473
882.46167,1496
882.578613,1557
882.695618,1580
882.812439,1523
882.929382,1538
883.046326,1571
883.163208,1512
883.280151,1481
883.397034,1523
883.513916,1507
883.630798,1539
883.747742,1565
883.864563,1565
883.981506,1572
884.098389,1590
884.21521,1634
884.332153,1578
884.448975,1572
884.565796,1647
884.682678,1655
884.7995,1738
884.916443,1659
885.033264,1750
885.150085,1759
885.266968,1874
885.383789,1860
885.500671,1836
885.617493,1894
885.734314,1834
885.851196,1846
885.967896,1816
886.084717,1846
886.201599,1809
886.318359,1787
886.435181,1810
886.552002,1768
886.668762,1771
886.785645,1789
886.902344,1733
887.019165,1765
887.135925,1720
887.252747,1670
887.369446,1710
887.486267,1671
887.603027,1648
887.719788,1616
887.836548,1582
887.953247,1606
888.070068,1635
888.186829,1570
888.303528,1542
888.420288,1557
888.536987,1577
888.653687,1499
888.770447,1504
888.887146,1508
889.003967,1510
889.120667,1551
889.237305,1523
889.354065,1486
889.470703,1504
889.587463,1480
889.704163,1488
889.820862,1480
889.937561,1518
890.054199,1447
890.170837,1483
890.287598,1507
890.404236,1496
890.520874,1466
890.637634,1548
890.754211,1537
890.87085,1518
890.987549,1498
891.104187,1524
891.220886,1511
891.337463,1556
891.454102,1508
891.57074,1523
891.687378,1507
891.804077,1540
891.920654,1558
892.037231,1544
892.15387,1538
892.270447,1493
892.387085,1537
892.503723,1531
892.6203,1529
892.736877,1475
892.853516,1498
892.970032,1520
893.08667,1521
893.203186,1522
893.319763,1468
893.43634,1510
893.552917,1517
893.669556,1534
893.786011,1483
893.902588,1533
894.019165,1534
894.135681,1556
894.252197,1502
894.368835,1488
894.485291,1522
894.601868,1538
894.718384,1512
894.8349,1512
894.951355,1544
895.067932,1524
895.184448,1506
895.300964,1512
895.417419,1516
895.533936,1497
895.650452,1518
895.766907,1499
895.883423,1530
895.999878,1511
896.116333,1560
896.232849,1536
896.349304,1505
896.465759,1534
896.582214,1501
896.698669,1537
896.815125,1525
896.931641,1529
897.048035,1516
897.164551,1475
897.280884,1498
897.397339,1534
897.513794,1527
897.630249,1539
897.746582,1533
897.863098,1527
897.979431,1509
898.095886,1569
898.212341,1571
898.328674,1556
898.445129,1529
898.561462,1523
898.677795,1533
898.794312,1519
898.910645,1496
899.026978,1566
899.143433,1523
899.259766,1545
899.37616,1525
899.492493,1510
899.608765,1560
899.725159,1516
899.841553,1574
899.957947,1540
900.07428,1535
900.190552,1543
900.306946,1558
900.423157,1575
900.53949,1511
900.655884,1522
900.772156,1598
900.888489,1579
901.004822,1573
901.121033,1598
901.237366,1523
901.353699,1580
901.46991,1619
901.586304,1607
901.702515,1597
901.818787,1604
901.93512,1600
902.051331,1660
902.167603,1645
902.283875,1669
902.400085,1693
902.516418,1698
902.632629,1729
902.74884,1754
902.865112,1781
902.981384,1712
903.097595,1732
903.213867,1728
903.330017,1685
903.446289,1698
903.5625,1665
903.67865,1625
903.794922,1676
903.911072,1652
904.027344,1674
904.143494,1674
904.259705,1648
904.375916,1618
904.492065,1573
904.608215,1608
904.724426,1623
904.840576,1627
904.956726,1597
905.072876,1559
905.189087,1559
905.305176,1563
905.421387,1551
905.537537,1596
905.653687,1599
905.769775,1516
905.885925,1570
906.002014,1571
906.118164,1548
906.234314,1530
906.350403,1532
906.466492,1522
906.582642,1529
906.69873,1581
906.814758,1546
906.930908,1545
907.046936,1507
907.163086,1527
907.279175,1504
907.395264,1535
907.511353,1508
907.62738,1507
907.743408,1553
907.859497,1548
907.975525,1501
908.091553,1519
908.207703,1556
908.32373,1534
908.439758,1544
908.555786,1501
908.671814,1532
908.787842,1530
908.90387,1492
909.019775,1549
909.135864,1531
909.251892,1535
909.367859,1581
909.483826,1538
909.599854,1569
909.715881,1486
909.831848,1496
909.947815,1553
910.063782,1561
910.179749,1577
910.295776,1513
910.411743,1566
910.527649,1554
910.643616,1534
910.759583,1542
910.875488,1543
910.991455,1513
911.107361,1559
911.223267,1548
911.339294,1551
911.4552,1551
911.571106,1571
911.687073,1513
911.802979,1541
911.918823,1565
912.034729,1515
912.150635,1508
912.266602,1544
912.382446,1521
912.498352,1551
912.614197,1509
912.730103,1554
912.846008,1511
