792.44574,3054
792.56488,2997
792.68396,2920
792.80304,2922
792.92218,2792
793.041199,2736
793.160339,2779
793.279419,2672
793.398499,2713
793.517578,2639
793.636658,2565
793.755737,2511
793.874817,2583
793.993896,2502
794.112976,2470
794.232056,2397
794.351074,2389
794.470215,2392
794.589233,2346
794.708313,2311
794.827393,2294
794.946411,2275
795.065552,2297
795.18457,2284
795.303589,2233
795.422668,2281
795.541687,2239
795.660767,2248
795.779846,2191
795.898865,2163
796.017883,2192
796.136963,2113
796.255981,2145
796.375061,2167
796.49408,2088
796.613037,2108
796.732117,2099
796.851135,2081
796.970154,2044
797.089233,2072
797.208191,2025
797.327271,2066
797.446228,2036
797.565186,2021
797.684265,2004
797.803223,2045
797.922241,2034
798.04126,2000
798.160278,1972
798.279297,2040
798.398315,1974
798.517273,2008
798.636292,2019
798.75531,1928
798.874268,1988
798.993286,1977
799.112244,2024
799.231323,1970
799.350281,1954
799.469238,1983
799.588257,1957
799.707153,1927
799.826111,1998
799.945129,1940
800.064087,1940
800.183044,1927
800.302063,1934
800.421021,1951
800.539978,1941
800.658936,1927
800.777893,1933
800.896912,1914
801.015747,1919
801.134705,1939
801.253723,1913
801.37262,1874
801.491638,1920
801.610535,1921
801.729492,1917
801.84845,1876
801.967407,1921
802.086243,1980
802.205261,1903
802.324158,1864
802.443115,1909
802.562073,1856
802.680969,1945
802.799927,1908
802.918762,1914
803.037659,1920
803.156677,1885
803.275574,1911
803.39447,1937
803.513428,1939
803.632263,1873
803.751221,1918
803.870117,1949
803.989014,1875
804.107971,1909
804.226746,1938
804.345642,1868
804.4646,1933
804.583496,1899
804.702393,1902
804.821228,1862
804.940125,1906
805.059021,1951
805.177917,1965
805.296814,1905
805.415649,1912
805.534546,1917
805.653442,1900
805.772278,1914
805.891113,1936
806.01001,1943
806.128906,1919
806.247742,1962
806.366577,1939
806.485413,1935
806.604309,1966
806.723145,1960
806.84198,1946
806.960876,1919
807.079712,1890
807.198486,1899
807.317383,1910
807.436218,1918
807.554993,1892
807.673889,1963
807.792725,1921
807.91156,1968
808.030396,1959
808.14917,1955
808.268005,1936
808.386841,1940
808.505676,1956
808.624451,1978
808.743286,1912
808.862122,1906
808.980896,1940
809.099731,1930
809.218506,1959
809.337341,1935
809.456116,1972
809.57489,1962
809.693726,1923
809.8125,1912
809.931274,1915
810.050049,1975
810.168884,1953
810.287659,1996
810.406372,1938
810.525269,1958
810.643982,1943
810.762756,1924
810.881531,1969
811.000305,2006
811.11908,1979
811.237854,1908
811.356567,1934
811.475403,1957
811.594116,1937
811.71283,1966
811.831604,1974
811.950378,2006
812.069153,1960
812.187927,1970
812.30658,1975
812.425415,1970
812.544128,2005
812.662781,2016
812.781616,1957
812.900269,1965
813.019043,1965
813.137756,2006
813.256531,2010
813.375244,1958
813.493896,1976
813.612671,1921
813.731384,1913
813.850037,1961
813.96875,1935
814.087524,1935
814.206238,1945
814.324951,1930
814.443604,1968
814.562256,1951
814.68103,1899
814.799683,1951
814.918335,1900
815.037109,1920
815.155762,1932
815.274475,1911
815.393188,1898
815.511841,1901
815.630554,1902
815.749146,1899
815.867859,1849
815.986572,1839
816.105164,1829
816.223877,1859
816.342529,1901
816.461182,1911
816.579895,1854
816.698486,1909
816.817139,1860
816.935791,1929
817.054504,1934
817.173096,1897
817.291748,1907
817.4104,1878
817.529053,1819
817.647644,1833
817.766235,1815
817.884949,1773
818.00354,1726
818.122192,1765
818.240845,1737
818.359436,1677
818.478088,1633
818.59668,1622
818.715271,1610
818.833923,1661
818.952515,1625
819.071106,1582
819.189758,1602
819.30835,1558
819.426941,1549
819.545532,1531
819.664124,1554
819.782715,1544
819.901306,1525
820.019897,1490
820.138489,1557
820.25708,1521
820.375671,1495
820.494202,1551
820.612732,1518
820.731384,1489
820.849915,1447
820.968506,1496
821.087097,1484
821.205627,1507
821.324158,1461
821.442749,1469
821.561279,1467
821.679871,1455
821.798401,1490
821.916931,1468
822.035461,1446
822.154053,1437
822.272583,1428
822.391174,1447
822.509583,1460
822.628174,1410
822.746704,1433
822.865234,1448
822.983765,1465
823.102295,1440
823.220825,1425
823.339294,1447
823.457825,1439
823.576355,1446
823.694824,1484
823.813354,1476
823.931885,1482
824.050354,1456
824.168884,1421
824.287354,1509
824.405823,1464
824.524353,1478
824.642822,1510
824.761353,1458
824.879822,1433
824.998291,1487
825.116699,1470
825.235291,1483
825.353699,1446
825.472168,1433
825.590637,1437
825.709106,1422
825.827576,1483
825.946045,1407
826.064453,1382
826.182983,1449
826.301392,1377
826.4198,1422
826.53833,1398
826.656738,1426
826.775208,1383
826.893677,1436
827.012024,1447
827.130493,1429
827.248962,1423
827.36731,1433
827.485779,1405
827.604248,1380
827.722595,1382
827.841064,1424
827.959412,1386
828.077942,1351
828.196289,1400
828.314636,1377
828.433105,1353
828.551514,1378
828.669861,1372
828.78833,1372
828.906677,1334
829.025085,1372
829.143433,1396
829.261841,1380
829.38031,1366
829.498657,1334
829.617004,1352
829.735413,1379
829.85376,1353
829.972107,1371
830.090515,1363
830.208862,1347
830.327209,1376
830.445557,1364
830.563904,1374
830.682312,1354
830.800659,1363
830.919006,1385
831.037354,1382
831.155701,1420
831.274048,1406
831.392395,1395
831.51062,1408
831.629028,1323
831.747314,1406
831.865662,1345
831.984009,1406
832.102356,1379
832.220642,1400
832.338928,1382
832.457275,1426
832.575623,1376
832.693909,1358
832.812134,1402
832.930481,1380
833.048828,1369
833.167114,1379
833.2854,1407
833.403687,1375
833.521973,1382
833.640259,1336
833.758545,1414
833.876831,1362
833.995056,1415
834.113281,1390
834.231628,1363
834.349915,1379
834.468201,1388
834.586426,1401
834.704651,1434
834.822998,1338
834.941162,1390
835.059448,1399
835.177673,1427
835.295959,1347
835.414246,1394
835.53241,1376
835.650635,1384
835.768921,1370
835.887146,1387
836.005371,1380
836.123596,1429
836.241821,1380
836.360046,1396
836.478271,1444
836.596497,1401
836.714722,1399
836.832886,1418
836.95105,1415
837.069336,1416
837.1875,1383
837.305725,1429
837.423889,1443
837.542053,1395
837.660339,1418
837.778503,1459
837.896667,1400
838.014832,1455
838.132996,1404
838.25116,1411
838.369385,1426
838.487488,1427
838.605713,1438
838.723877,1450
838.84198,1384
838.960205,1406
839.078308,1442
839.196472,1422
839.314636,1425
839.4328,1452
839.550964,1441
839.669067,1456
839.787231,1411
839.905396,1413
840.023499,1404
840.141602,1465
840.259766,1462
840.377869,1469
840.495972,1457
840.614136,1453
840.732239,1421
840.850342,1452
840.968445,1436
841.086548,1408
841.204651,1439
841.322754,1490
841.440918,1456
841.55896,1427
841.677002,1463
841.795166,1466
841.913208,1446
842.031311,1474
842.149353,1451
842.267456,1423
842.385498,1415
842.503601,1387
842.621643,1423
842.739746,1414
842.857788,1418
842.97583,1394
843.093933,1446
843.211975,1404
843.330017,1417
843.44812,1409
843.566101,1438
843.684204,1397
843.802246,1386
843.920227,1447
844.038269,1410
844.156311,1431
844.274292,1398
844.392395,1441
844.510376,1422
844.628357,1381
844.74646,1414
844.864441,1413
844.982422,1419
845.100403,1387
845.218384,1385
845.336426,1394
845.454468,1391
845.572449,1428
845.69043,1371
845.808411,1412
845.926453,1396
846.044373,1385
846.162354,1373
846.280396,1363
846.398315,1394
846.516296,1378
846.634216,1418
846.752197,1405
846.870178,1391
846.988098,1411
847.106079,1360
847.22406,1385
847.34198,1382
847.4599,1388
847.577881,1387
847.695801,1376
847.813782,1395
847.931641,1434
848.049561,1390
848.167603,1416
848.285461,1434
848.403381,1387
848.521362,1410
848.639221,1455
848.75708,1432
848.875,1401
848.99292,1452
849.110901,1416
849.22876,1406
849.34668,1407
849.464539,1433
849.582458,1390
849.700317,1409
849.818176,1449
849.936096,1395
850.053955,1433
850.171875,1431
850.289673,1401
850.407593,1431
850.525452,1398
850.643311,1357
850.761169,1403
850.878967,1416
850.996887,1455
851.114746,1398
851.232544,1419
851.350403,1411
851.468262,1397
851.58606,1310
851.703979,1382
851.821777,1388
851.939636,1423
852.057434,1374
852.175232,1415
852.293091,1386
852.410889,1452
852.528687,1455
852.646545,1477
852.764343,1478
852.88208,1500
852.999939,1476
853.117676,1484
853.235535,1458
853.353271,1404
853.471069,1445
853.588928,1427
853.706604,1378
853.824402,1450
853.9422,1406
854.059998,1420
854.177734,1434
854.295532,1437
854.413269,1443
854.531006,1403
854.648804,1454
854.766541,1465
854.884277,1433
855.002014,1434
855.119751,1398
855.237549,1465
855.355225,1425
855.473022,1416
855.590698,1418
855.708435,1464
855.826172,1389
855.943848,1445
856.061646,1388
856.179321,1445
856.296997,1418
856.414795,1460
856.53241,1400
856.650085,1447
856.767822,1448
856.885559,1469
857.003174,1465
857.120911,1494
857.238586,1496
857.356201,1469
857.473938,1441
857.591614,1430
857.709351,1463
857.826965,1461
857.944641,1477
858.062317,1455
858.179993,1429
858.297668,1449
858.415283,1441
858.532959,1455
858.650574,1489
858.768188,1418
858.885803,1415
859.003479,1487
859.121094,1403
859.23877,1416
859.356384,1406
859.473999,1448
859.591675,1443
859.709229,1405
859.826843,1396
859.944458,1468
860.062012,1373
860.179626,1418
860.297302,1382
860.414856,1429
860.532471,1403
860.650024,1448
860.767639,1416
860.885193,1454
861.002808,1453
861.120361,1423
861.237976,1342
861.35553,1433
861.473022,1387
861.590698,1392
861.708191,1422
861.825745,1422
861.943298,1415
862.060852,1391
862.178406,1426
862.295959,1412
862.413513,1343
862.531006,1379
862.64856,1423
862.766113,1380
862.883667,1381
863.00116,1334
863.118713,1368
863.236206,1412
863.353699,1396
863.471252,1416
863.588745,1387
863.706177,1386
863.82373,1407
863.941162,1371
864.058716,1420
864.176208,1416
864.29364,1389
864.411194,1410
864.528687,1422
864.646118,1418
864.763611,1401
864.881042,1411
864.998535,1377
865.116028,1395
865.233459,1402
865.350891,1387
865.468384,1413
865.585754,1352
865.703308,1398
865.820679,1390
865.938171,1392
866.055542,1410
866.173035,1393
866.290466,1422
866.407837,1358
866.52533,1411
866.6427,1393
866.760071,1433
866.877563,1380
866.994934,1402
867.112305,1369
867.229736,1410
867.347107,1431
867.464539,1407
867.58197,1400
867.699341,1414
867.81665,1440
867.934082,1372
868.051453,1414
868.168823,1424
868.286194,1390
868.403564,1439
868.520935,1406
868.638306,1428
868.755676,1408
868.872986,1378
868.990295,1400
869.107727,1419
869.225037,1389
869.342346,1413
869.459717,1465
869.577026,1448
869.694336,1396
869.811707,1440
869.929016,1426
870.046326,1435
870.163635,1450
870.280945,1443
870.398254,1437
870.515564,1475
870.632812,1421
870.750183,1482
870.867432,1429
870.984741,1426
871.102051,1448
871.219299,1432
871.336609,1491
871.453918,1465
871.571106,1488
871.688416,1468
871.805664,1464
871.922852,1464
872.040222,1512
872.157471,1527
872.274719,1509
872.391968,1476
872.509155,1446
872.626465,1461
872.743652,1503
872.860962,1475
872.978149,1428
873.095337,1462
873.212646,1437
873.329834,1478
873.44696,1481
873.564209,1418
873.681396,1452
873.798645,1503
873.915894,1467
874.03302,1415
874.150208,1481
874.267456,1468
874.384583,1440
874.501831,1473
874.618958,1488
874.736145,1519
874.853333,1478
874.970459,1458
875.087646,1469
875.204834,1498
875.32196,1470
875.439148,1436
875.556274,1459
875.673401,1465
875.790527,1470
875.907715,1452
876.024841,1418
876.141968,1495
876.259094,1466
876.376282,1450
876.493347,1441
876.610474,1432
876.7276,1416
876.844727,1416
876.961853,1453
877.078918,1438
877.195984,1446
877.313171,1414
877.430237,1423
877.547302,1418
877.664368,1466
877.781433,1414
877.898499,1483
878.015625,1404
878.13269,1448
878.249695,1408
878.366821,1450
878.483887,1412
878.600952,1412
878.717957,1390
878.834961,1423
878.952087,1407
879.069092,1422
879.186157,1392
879.303162,1402
879.420227,1420
879.537231,1412
879.654236,1355
879.77124,1405
879.888306,1366
880.005249,1400
880.122314,1406
880.239319,1437
880.356323,1376
880.473328,1415
880.590271,1400
880.707275,1398
880.824341,1380
880.941284,1420
881.058228,1400
881.175232,1407
881.292236,1385
881.40918,1403
881.526123,1386
881.643066,1353
881.760071,1385
881.877014,1368
881.993958,1403
882.11084,1384
882.227783,1403
882.344727,1393
882.46167,1401
882.578613,1437
882.695618,1388
882.812439,1427
882.929382,1380
883.046326,1457
883.163208,1390
883.280151,1407
883.397034,1387
883.513916,1437
883.630798,1407
883.747742,1435
883.864563,1413
883.981506,1397
884.098389,1428
884.21521,1464
884.332153,1405
884.448975,1447
884.565796,1454
884.682678,1498
884.7995,1496
884.916443,1477
885.033264,1533
885.150085,1555
885.266968,1572
885.383789,1583
885.500671,1594
885.617493,1626
885.734314,1545
885.851196,1592
885.967896,1612
886.084717,1625
886.201599,1564
886.318359,1570
886.435181,1566
886.552002,1584
886.668762,1572
886.785645,1543
886.902344,1581
887.019165,1551
887.135925,1533
887.252747,1474
887.369446,1539
887.486267,1526
887.603027,1489
887.719788,1483
887.836548,1410
887.953247,1500
888.070068,1451
888.186829,1436
888.303528,1456
888.420288,1451
888.536987,1429
888.653687,1419
888.770447,1427
888.887146,1391
889.003967,1460
889.120667,1371
889.237305,1447
889.354065,1384
889.470703,1421
889.587463,1391
889.704163,1400
889.820862,1410
889.937561,1440
890.054199,1398
890.170837,1389
890.287598,1405
890.404236,1422
890.520874,1388
890.637634,1426
890.754211,1385
890.87085,1435
890.987549,1404
891.104187,1425
891.220886,1365
891.337463,1443
891.454102,1439
891.57074,1376
891.687378,1441
891.804077,1429
891.920654,1383
892.037231,1415
892.15387,1392
892.270447,1415
892.387085,1410
892.503723,1391
892.6203,1433
892.736877,1383
892.853516,1402
892.970032,1459
893.08667,1432
893.203186,1427
893.319763,1396
893.43634,1435
893.552917,1379
893.669556,1448
893.786011,1422
893.902588,1421
894.019165,1423
894.135681,1451
894.252197,1375
894.368835,1390
894.485291,1416
894.601868,1443
894.718384,1452
894.8349,1439
894.951355,1431
895.067932,1382
895.184448,1425
895.300964,1396
895.417419,1379
895.533936,1430
895.650452,1413
895.766907,1431
895.883423,1442
895.999878,1439
896.116333,1436
896.232849,1401
896.349304,1449
896.465759,1421
896.582214,1431
896.698669,1419
896.815125,1445
896.931641,1416
897.048035,1435
897.164551,1441
897.280884,1423
897.397339,1427
897.513794,1424
897.630249,1424
897.746582,1387
897.863098,1428
897.979431,1475
898.095886,1460
898.212341,1446
898.328674,1446
898.445129,1475
898.561462,1456
898.677795,1447
898.794312,1430
898.910645,1453
899.026978,1427
899.143433,1432
899.259766,1410
899.37616,1441
899.492493,1410
899.608765,1428
899.725159,1438
899.841553,1430
899.957947,1445
900.07428,1457
900.190552,1391
900.306946,1439
900.423157,1455
900.53949,1441
900.655884,1415
900.772156,1457
900.888489,1434
901.004822,1423
901.121033,1466
901.237366,1438
901.353699,1455
901.46991,1449
901.586304,1456
901.702515,1420
901.818787,1464
901.93512,1491
902.051331,1465
902.167603,1484
902.283875,1501
902.400085,1539
902.516418,1522
902.632629,1560
902.74884,1560
902.865112,1549
902.981384,1573
903.097595,1564
903.213867,1562
903.330017,1536
903.446289,1557
903.5625,1550
903.67865,1537
903.794922,1510
903.911072,1503
904.027344,1512
904.143494,1480
904.259705,1521
904.375916,1506
904.492065,1525
904.608215,1466
904.724426,1466
904.840576,1471
904.956726,1434
905.072876,1448
905.189087,1437
905.305176,1433
905.421387,1453
905.537537,1439
905.653687,1418
905.769775,1458
905.885925,1491
906.002014,1438
906.118164,1470
906.234314,1460
906.350403,1431
906.466492,1415
906.582642,1480
906.69873,1455
906.814758,1455
906.930908,1492
907.046936,1399
907.163086,1442
907.279175,1448
907.395264,1441
907.511353,1455
907.62738,1417
907.743408,1444
907.859497,1437
907.975525,1443
908.091553,1405
908.207703,1443
908.32373,1444
908.439758,1433
908.555786,1459
908.671814,1473
908.787842,1431
908.90387,1432
909.019775,1427
909.135864,1472
909.251892,1464
909.367859,1422
909.483826,1441
909.599854,1440
909.715881,1454
909.831848,1463
909.947815,1464
910.063782,1462
910.179749,1460
910.295776,1460
910.411743,1428
910.527649,1427
910.643616,1430
910.759583,1447
910.875488,1457
910.991455,1412
911.107361,1457
911.223267,1425
911.339294,1438
911.4552,1410
911.571106,1431
911.687073,1419
911.802979,1430
911.918823,1445
912.034729,1464
912.150635,1465
912.266602,1474
912.382446,1426
912.498352,1446
912.614197,1450
912.730103,1434
912.846008,1374
792.44574,3089
792.56488,3017
792.68396,2985
792.80304,2907
792.92218,2864
793.041199,2730
793.160339,2770
793.279419,2750
793.398499,2709
793.517578,2684
793.636658,2608
793.755737,2576
793.874817,2560
793.993896,2533
794.112976,2528
794.232056,2446
794.351074,2476
794.470215,2399
794.589233,2400
794.708313,2378
794.827393,2341
794.946411,2309
795.065552,2370
795.18457,2304
795.303589,2346
795.422668,2275
795.541687,2288
795.660767,2253
795.779846,2212
795.898865,2186
796.017883,2253
796.136963,2133
796.255981,2197
796.375061,2242
796.49408,2163
796.613037,2150
796.732117,2193
796.851135,2119
796.970154,2110
797.089233,2101
797.208191,2094
797.327271,2118
797.446228,2100
797.565186,2083
797.684265,2079
797.803223,2029
797.922241,2068
798.04126,2052
798.160278,2051
798.279297,2043
798.398315,2042
798.517273,2008
798.636292,2026
798.75531,1993
798.874268,1965
798.993286,2008
799.112244,2022
799.231323,1918
799.350281,1988
799.469238,2055
799.588257,1954
799.707153,1985
799.826111,1981
799.945129,2004
800.064087,2015
800.183044,1961
800.302063,1958
800.421021,1954
800.539978,1938
800.658936,1944
800.777893,1951
800.896912,1930
801.015747,1936
801.134705,2001
801.253723,1939
801.37262,1947
801.491638,1987
801.610535,1960
801.729492,1919
801.84845,1985
801.967407,1999
802.086243,2007
802.205261,1966
802.324158,1958
802.443115,1944
802.562073,1996
802.680969,1979
802.799927,1920
802.918762,1914
803.037659,1979
803.156677,1974
803.275574,1958
803.39447,1971
803.513428,1940
803.632263,1914
803.751221,1953
803.870117,1988
803.989014,1926
804.107971,1928
804.226746,1983
804.345642,1947
804.4646,1964
804.583496,1958
804.702393,1924
804.821228,1927
804.940125,1956
805.059021,1933
805.177917,1993
805.296814,1949
805.415649,1942
805.534546,2009
805.653442,1991
805.772278,1911
805.891113,1958
806.01001,2013
806.128906,1992
806.247742,1988
806.366577,1981
806.485413,1969
806.604309,1993
806.723145,1952
806.84198,1928
806.960876,1905
807.079712,1992
807.198486,1999
807.317383,1978
807.436218,1943
807.554993,1993
807.673889,1957
807.792725,1974
807.91156,1927
808.030396,1953
808.14917,1958
808.268005,1947
808.386841,1961
808.505676,1984
808.624451,1947
808.743286,1949
808.862122,1987
808.980896,1961
809.099731,1964
809.218506,1923
809.337341,1969
809.456116,1992
809.57489,2004
809.693726,1970
809.8125,2015
809.931274,1996
810.050049,2006
810.168884,2008
810.287659,2034
810.406372,2001
810.525269,1982
810.643982,1948
810.762756,1933
810.881531,1933
811.000305,2003
811.11908,2012
811.237854,1974
811.356567,1998
811.475403,2035
811.594116,1998
811.71283,2010
811.831604,2016
811.950378,1975
812.069153,2031
812.187927,1998
812.30658,2032
812.425415,1996
812.544128,1984
812.662781,2036
812.781616,1986
812.900269,1964
813.019043,1974
813.137756,1970
813.256531,2004
813.375244,1988
813.493896,1949
813.612671,1967
813.731384,1975
813.850037,2059
813.96875,1983
814.087524,1989
814.206238,1955
814.324951,1967
814.443604,1961
814.562256,1965
814.68103,2004
814.799683,1945
814.918335,1971
815.037109,1927
815.155762,1945
815.274475,1981
815.393188,1927
815.511841,1968
815.630554,1931
815.749146,1935
815.867859,1870
815.986572,1881
816.105164,1951
816.223877,1925
816.342529,1928
816.461182,1924
816.579895,1885
816.698486,1964
816.817139,1975
816.935791,1984
817.054504,1924
817.173096,1888
817.291748,1908
817.4104,1878
817.529053,1866
817.647644,1868
817.766235,1793
817.884949,1816
818.00354,1768
818.122192,1738
818.240845,1740
818.359436,1690
818.478088,1748
818.59668,1685
818.715271,1693
818.833923,1678
818.952515,1584
819.071106,1615
819.189758,1631
819.30835,1580
819.426941,1566
819.545532,1562
819.664124,1610
819.782715,1582
819.901306,1545
820.019897,1530
820.138489,1497
820.25708,1565
820.375671,1489
820.494202,1567
820.612732,1530
820.731384,1590
820.849915,1496
820.968506,1500
821.087097,1534
821.205627,1552
821.324158,1495
821.442749,1514
821.561279,1507
821.679871,1493
821.798401,1477
821.916931,1542
822.035461,1508
822.154053,1529
822.272583,1468
822.391174,1478
822.509583,1499
822.628174,1471
822.746704,1503
822.865234,1506
822.983765,1480
823.102295,1440
823.220825,1465
823.339294,1445
823.457825,1486
823.576355,1477
823.694824,1481
823.813354,1481
823.931885,1469
824.050354,1538
824.168884,1480
824.287354,1528
824.405823,1516
824.524353,1520
824.642822,1471
824.761353,1492
824.879822,1498
824.998291,1437
825.116699,1460
825.235291,1508
825.353699,1497
825.472168,1435
825.590637,1439
825.709106,1472
825.827576,1451
825.946045,1454
826.064453,1478
826.182983,1419
826.301392,1453
826.4198,1465
826.53833,1437
826.656738,1431
826.775208,1429
826.893677,1449
827.012024,1418
827.130493,1463
827.248962,1412
827.36731,1398
827.485779,1407
827.604248,1399
827.722595,1421
827.841064,1396
827.959412,1447
828.077942,1388
828.196289,1366
828.314636,1402
828.433105,1415
828.551514,1411
828.669861,1363
828.78833,1412
828.906677,1374
829.025085,1374
829.143433,1404
829.261841,1387
829.38031,1439
829.498657,1385
829.617004,1382
829.735413,1393
829.85376,1363
829.972107,1374
830.090515,1383
830.208862,1423
830.327209,1358
830.445557,1371
830.563904,1371
830.682312,1383
830.800659,1406
830.919006,1399
831.037354,1409
831.155701,1422
831.274048,1413
831.392395,1415
831.51062,1349
831.629028,1361
831.747314,1405
831.865662,1414
831.984009,1406
832.102356,1409
832.220642,1390
832.338928,1396
832.457275,1385
832.575623,1456
832.693909,1366
832.812134,1445
832.930481,1388
833.048828,1416
833.167114,1384
833.2854,1390
833.403687,1400
833.521973,1401
833.640259,1400
833.758545,1408
833.876831,1362
833.995056,1392
834.113281,1416
834.231628,1411
834.349915,1412
834.468201,1439
834.586426,1434
834.704651,1411
834.822998,1393
834.941162,1405
835.059448,1407
835.177673,1436
835.295959,1406
835.414246,1437
835.53241,1446
835.650635,1458
835.768921,1380
835.887146,1393
836.005371,1418
836.123596,1367
836.241821,1449
836.360046,1399
836.478271,1398
836.596497,1426
836.714722,1433
836.832886,1484
836.95105,1458
837.069336,1425
837.1875,1408
837.305725,1455
837.423889,1419
837.542053,1449
837.660339,1430
837.778503,1458
837.896667,1472
838.014832,1437
838.132996,1472
838.25116,1459
838.369385,1444
838.487488,1468
838.605713,1472
838.723877,1456
838.84198,1497
838.960205,1456
839.078308,1435
839.196472,1429
839.314636,1470
839.4328,1470
839.550964,1436
839.669067,1493
839.787231,1471
839.905396,1504
840.023499,1460
840.141602,1463
840.259766,1444
840.377869,1456
840.495972,1453
840.614136,1467
840.732239,1472
840.850342,1463
840.968445,1508
841.086548,1441
841.204651,1422
841.322754,1452
841.440918,1471
841.55896,1480
841.677002,1411
841.795166,1441
841.913208,1504
842.031311,1435
842.149353,1433
842.267456,1420
842.385498,1455
842.503601,1445
842.621643,1470
842.739746,1445
842.857788,1456
842.97583,1406
843.093933,1465
843.211975,1413
843.330017,1408
843.44812,1432
843.566101,1482
843.684204,1447
843.802246,1472
843.920227,1433
844.038269,1465
844.156311,1437
844.274292,1426
844.392395,1431
844.510376,1437
844.628357,1392
844.74646,1415
844.864441,1394
844.982422,1423
845.100403,1428
845.218384,1378
845.336426,1396
845.454468,1439
845.572449,1443
845.69043,1467
845.808411,1386
845.926453,1412
846.044373,1399
846.162354,1391
846.280396,1437
846.398315,1397
846.516296,1413
846.634216,1411
846.752197,1442
846.870178,1411
846.988098,1435
847.106079,1430
847.22406,1365
847.34198,1416
847.4599,1399
847.577881,1440
847.695801,1398
847.813782,1382
847.931641,1397
848.049561,1412
848.167603,1459
848.285461,1445
848.403381,1458
848.521362,1438
848.639221,1414
848.75708,1417
848.875,1426
848.99292,1418
849.110901,1427
849.22876,1428
849.34668,1419
849.464539,1454
849.582458,1409
849.700317,1415
849.818176,1451
849.936096,1424
850.053955,1405
850.171875,1444
850.289673,1454
850.407593,1410
850.525452,1467
850.643311,1426
850.761169,1445
850.878967,1361
850.996887,1428
851.114746,1426
851.232544,1428
851.350403,1443
851.468262,1424
851.58606,1477
851.703979,1390
851.821777,1375
851.939636,1407
852.057434,1407
852.175232,1453
852.293091,1481
852.410889,1468
852.528687,1484
852.646545,1493
852.764343,1466
852.88208,1467
852.999939,1491
853.117676,1484
853.235535,1464
853.353271,1473
853.471069,1439
853.588928,1402
853.706604,1460
853.824402,1440
853.9422,1437
854.059998,1422
854.177734,1462
854.295532,1451
854.413269,1439
854.531006,1438
854.648804,1476
854.766541,1468
854.884277,1447
855.002014,1451
855.119751,1457
855.237549,1467
855.355225,1461
855.473022,1430
855.590698,1445
855.708435,1422
855.826172,1447
855.943848,1480
856.061646,1456
856.179321,1449
856.296997,1444
856.414795,1483
856.53241,1431
856.650085,1454
856.767822,1446
856.885559,1455
857.003174,1456
857.120911,1501
857.238586,1485
857.356201,1515
857.473938,1494
857.591614,1479
857.709351,1473
857.826965,1495
857.944641,1450
858.062317,1465
858.179993,1488
858.297668,1506
858.415283,1455
858.532959,1480
858.650574,1469
858.768188,1491
858.885803,1511
859.003479,1494
859.121094,1419
859.23877,1490
859.356384,1484
859.473999,1418
859.591675,1381
859.709229,1449
859.826843,1427
859.944458,1404
860.062012,1423
860.179626,1448
860.297302,1443
860.414856,1382
860.532471,1452
860.650024,1383
860.767639,1495
860.885193,1402
861.002808,1481
861.120361,1444
861.237976,1423
861.35553,1416
861.473022,1410
861.590698,1454
861.708191,1456
861.825745,1448
861.943298,1412
862.060852,1403
862.178406,1416
862.295959,1403
862.413513,1447
862.531006,1375
862.64856,1405
862.766113,1441
862.883667,1415
863.00116,1407
863.118713,1429
863.236206,1405
863.353699,1445
863.471252,1372
863.588745,1466
863.706177,1434
863.82373,1419
863.941162,1437
864.058716,1433
864.176208,1395
864.29364,1402
864.411194,1415
864.528687,1416
864.646118,1439
864.763611,1410
864.881042,1422
864.998535,1398
865.116028,1415
865.233459,1406
865.350891,1410
865.468384,1421
865.585754,1372
865.703308,1396
865.820679,1432
865.938171,1417
866.055542,1362
866.173035,1379
866.290466,1384
866.407837,1462
866.52533,1393
866.6427,1383
866.760071,1441
866.877563,1385
866.994934,1419
867.112305,1407
867.229736,1465
867.347107,1417
867.464539,1468
867.58197,1464
867.699341,1451
867.81665,1448
867.934082,1445
868.051453,1424
868.168823,1468
868.286194,1447
868.403564,1425
868.520935,1395
868.638306,1426
868.755676,1475
868.872986,1507
868.990295,1452
869.107727,1411
869.225037,1439
869.342346,1468
869.459717,1467
869.577026,1468
869.694336,1427
869.811707,1473
869.929016,1422
870.046326,1480
870.163635,1507
870.280945,1493
870.398254,1476
870.515564,1487
870.632812,1457
870.750183,1501
870.867432,1530
870.984741,1465
871.102051,1439
871.219299,1489
871.336609,1499
871.453918,1486
871.571106,1484
871.688416,1485
871.805664,1470
871.922852,1546
872.040222,1496
872.157471,1494
872.274719,1505
872.391968,1546
872.509155,1477
872.626465,1465
872.743652,1482
872.860962,1487
872.978149,1512
873.095337,1478
873.212646,1486
873.329834,1439
873.44696,1477
873.564209,1484
873.681396,1470
873.798645,1469
873.915894,1482
874.03302,1492
874.150208,1514
874.267456,1513
874.384583,1491
874.501831,1494
874.618958,1545
874.736145,1536
874.853333,1504
874.970459,1507
875.087646,1487
875.204834,1514
875.32196,1470
875.439148,1499
875.556274,1522
875.673401,1540
875.790527,1510
875.907715,1474
876.024841,1455
876.141968,1489
876.259094,1496
876.376282,1518
876.493347,1463
876.610474,1458
876.7276,1469
876.844727,1448
876.961853,1437
877.078918,1462
877.195984,1475
877.313171,1512
877.430237,1448
877.547302,1485
877.664368,1453
877.781433,1461
877.898499,1486
878.015625,1468
878.13269,1456
878.249695,1436
878.366821,1450
878.483887,1457
878.600952,1478
878.717957,1482
878.834961,1450
878.952087,1454
879.069092,1456
879.186157,1484
879.303162,1425
879.420227,1480
879.537231,1413
879.654236,1430
879.77124,1388
879.888306,1414
880.005249,1430
880.122314,1391
880.239319,1405
880.356323,1410
880.473328,1426
880.590271,1426
880.707275,1449
880.824341,1418
880.941284,1434
881.058228,1415
881.175232,1402
881.292236,1405
881.40918,1389
881.526123,1443
881.643066,1420
881.760071,1418
881.877014,1431
881.993958,1423
882.11084,1412
882.227783,1431
882.344727,1458
882.46167,1448
882.578613,1417
882.695618,1441
882.812439,1440
882.929382,1419
883.046326,1438
883.163208,1445
883.280151,1425
883.397034,1428
883.513916,1437
883.630798,1438
883.747742,1438
883.864563,1456
883.981506,1469
884.098389,1466
884.21521,1459
884.332153,1466
884.448975,1445
884.565796,1501
884.682678,1478
884.7995,1535
884.916443,1529
885.033264,1559
885.150085,1618
885.266968,1618
885.383789,1631
885.500671,1685
885.617493,1638
885.734314,1670
885.851196,1660
885.967896,1638
886.084717,1639
886.201599,1549
886.318359,1619
886.435181,1593
886.552002,1592
886.668762,1564
886.785645,1587
886.902344,1580
887.019165,1551
887.135925,1542
887.252747,1577
887.369446,1608
887.486267,1524
887.603027,1517
887.719788,1486
887.836548,1510
887.953247,1489
888.070068,1470
888.186829,1475
888.303528,1427
888.420288,1445
888.536987,1415
888.653687,1462
888.770447,1454
888.887146,1442
889.003967,1441
889.120667,1415
889.237305,1461
889.354065,1394
889.470703,1407
889.587463,1436
889.704163,1432
889.820862,1420
889.937561,1400
890.054199,1419
890.170837,1469
890.287598,1386
890.404236,1404
890.520874,1391
890.637634,1450
890.754211,1440
890.87085,1463
890.987549,1418
891.104187,1410
891.220886,1441
891.337463,1402
891.454102,1417
891.57074,1479
891.687378,1462
891.804077,1501
891.920654,1474
892.037231,1415
892.15387,1467
892.270447,1404
892.387085,1454
892.503723,1427
892.6203,1467
892.736877,1423
892.853516,1402
892.970032,1428
893.08667,1475
893.203186,1456
893.319763,1435
893.43634,1373
893.552917,1447
893.669556,1461
893.786011,1453
893.902588,1414
894.019165,1423
894.135681,1495
894.252197,1433
894.368835,1454
894.485291,1437
894.601868,1437
894.718384,1512
894.8349,1439
894.951355,1417
895.067932,1483
895.184448,1440
895.300964,1470
895.417419,1458
895.533936,1411
895.650452,1474
895.766907,1434
895.883423,1409
895.999878,1418
896.116333,1455
896.232849,1459
896.349304,1418
896.465759,1498
896.582214,1423
896.698669,1451
896.815125,1461
896.931641,1371
897.048035,1468
897.164551,1454
897.280884,1429
897.397339,1447
897.513794,1458
897.630249,1458
897.746582,1467
897.863098,1428
897.979431,1426
898.095886,1491
898.212341,1458
898.328674,1452
898.445129,1445
898.561462,1441
898.677795,1472
898.794312,1490
898.910645,1468
899.026978,1452
899.143433,1497
899.259766,1438
899.37616,1463
899.492493,1491
899.608765,1487
899.725159,1474
899.841553,1476
899.957947,1484
900.07428,1472
900.190552,1515
900.306946,1489
900.423157,1488
900.53949,1470
900.655884,1454
900.772156,1466
900.888489,1491
901.004822,1468
901.121033,1469
901.237366,1505
901.353699,1477
901.46991,1488
901.586304,1530
901.702515,1502
901.818787,1532
901.93512,1515
902.051331,1505
902.167603,1560
902.283875,1547
902.400085,1579
902.516418,1551
902.632629,1561
902.74884,1595
902.865112,1578
902.981384,1553
903.097595,1593
903.213867,1608
903.330017,1546
903.446289,1595
903.5625,1550
903.67865,1601
903.794922,1582
903.911072,1597
904.027344,1522
904.143494,1607
904.259705,1553
904.375916,1518
904.492065,1514
904.608215,1517
904.724426,1499
904.840576,1546
904.956726,1486
905.072876,1529
905.189087,1483
905.305176,1501
905.421387,1516
905.537537,1488
905.653687,1509
905.769775,1467
905.885925,1491
906.002014,1511
906.118164,1437
906.234314,1458
906.350403,1458
906.466492,1476
906.582642,1452
906.69873,1492
906.814758,1490
906.930908,1480
907.046936,1441
907.163086,1498
907.279175,1493
907.395264,1469
907.511353,1451
907.62738,1452
907.743408,1505
907.859497,1439
907.975525,1488
908.091553,1478
908.207703,1444
908.32373,1522
908.439758,1499
908.555786,1502
908.671814,1459
908.787842,1486
908.90387,1479
909.019775,1475
909.135864,1478
909.251892,1488
909.367859,1457
909.483826,1531
909.599854,1495
909.715881,1509
909.831848,1506
909.947815,1476
910.063782,1492
910.179749,1506
910.295776,1539
910.411743,1480
910.527649,1492
910.643616,1476
910.759583,1503
910.875488,1482
910.991455,1452
911.107361,1479
911.223267,1478
911.339294,1460
911.4552,1470
911.571106,1446
911.687073,1527
911.802979,1484
911.918823,1458
912.034729,1471
912.150635,1433
912.266602,1491
912.382446,1480
912.498352,1463
912.614197,1499
912.730103,1466
912.846008,1447
792.44574,3086
792.56488,3024
792.68396,3015
792.80304,2914
792.92218,2855
793.041199,2799
793.160339,2774
793.279419,2711
793.398499,2719
793.517578,2645
793.636658,2684
793.755737,2596
793.874817,2585
793.993896,2535
794.112976,2508
794.232056,2506
794.351074,2485
794.470215,2466
794.589233,2403
794.708313,2426
794.827393,2389
794.946411,2374
795.065552,2321
795.18457,2274
795.303589,2333
795.422668,2297
795.541687,2279
795.660767,2282
795.779846,2235
795.898865,2149
796.017883,2204
796.136963,2216
796.255981,2134
796.375061,2198
796.49408,2162
796.613037,2209
796.732117,2170
796.851135,2128
796.970154,2109
797.089233,2093
797.208191,2084
797.327271,2087
797.446228,2042
797.565186,2084
797.684265,2080
797.803223,2066
797.922241,2078
798.04126,2028
798.160278,2029
798.279297,2009
798.398315,2068
798.517273,2018
798.636292,2060
798.75531,2031
798.874268,2072
798.993286,2009
799.112244,1991
799.231323,2057
799.350281,2046
799.469238,2016
799.588257,2068
799.707153,2036
799.826111,1995
799.945129,1995
800.064087,1986
800.183044,2027
800.302063,1991
800.421021,1961
800.539978,1953
800.658936,1959
800.777893,1985
800.896912,1981
801.015747,2015
801.134705,1968
801.253723,2004
801.37262,1941
801.491638,2002
801.610535,1938
801.729492,2015
801.84845,1993
801.967407,1980
802.086243,1988
802.205261,1963
802.324158,1918
802.443115,2005
802.562073,1962
802.680969,1981
802.799927,1958
802.918762,1926
803.037659,1986
803.156677,1935
803.275574,1961
803.39447,1935
803.513428,1983
803.632263,1906
803.751221,1947
803.870117,1960
803.989014,1997
804.107971,2000
804.226746,2008
804.345642,1969
804.4646,2030
804.583496,2009
804.702393,1936
804.821228,1989
804.940125,2014
805.059021,1934
805.177917,1959
805.296814,2008
805.415649,1952
805.534546,2014
805.653442,1984
805.772278,2006
805.891113,1937
806.01001,1994
806.128906,2049
806.247742,1972
806.366577,1969
806.485413,1981
806.604309,1984
806.723145,1954
806.84198,1979
806.960876,1927
807.079712,2002
807.198486,1962
807.317383,1964
807.436218,1969
807.554993,1970
807.673889,1963
807.792725,1976
807.91156,1928
808.030396,1957
808.14917,1957
808.268005,1968
808.386841,2019
808.505676,1976
808.624451,1993
808.743286,1971
808.862122,1984
808.980896,1928
809.099731,1951
809.218506,2007
809.337341,1980
809.456116,1940
809.57489,2017
809.693726,1949
809.8125,1987
809.931274,2011
810.050049,2012
810.168884,2016
810.287659,2020
810.406372,2013
810.525269,2035
810.643982,2002
810.762756,2059
810.881531,2019
811.000305,2021
811.11908,1978
811.237854,2059
811.356567,1991
811.475403,1982
811.594116,1969
811.71283,2048
811.831604,2000
811.950378,2002
812.069153,1981
812.187927,2027
812.30658,2027
812.425415,2045
812.544128,2023
812.662781,2000
812.781616,2028
812.900269,1998
813.019043,2032
813.137756,2005
813.256531,2033
813.375244,2044
813.493896,2014
813.612671,2017
813.731384,1970
813.850037,2003
813.96875,1961
814.087524,1943
814.206238,1942
814.324951,1965
814.443604,1975
814.562256,1980
814.68103,1964
814.799683,2004
814.918335,1909
815.037109,1993
815.155762,1946
815.274475,2025
815.393188,1945
815.511841,1950
815.630554,1912
815.749146,1968
815.867859,1903
815.986572,1919
816.105164,1867
816.223877,1902
816.342529,1891
816.461182,1952
816.579895,1932
816.698486,1927
816.817139,1922
816.935791,1964
817.054504,1933
817.173096,1961
817.291748,1931
817.4104,1921
817.529053,1885
817.647644,1864
817.766235,1850
817.884949,1827
818.00354,1812
818.122192,1777
818.240845,1756
818.359436,1763
818.478088,1725
818.59668,1700
818.715271,1686
818.833923,1653
818.952515,1676
819.071106,1604
819.189758,1617
819.30835,1605
819.426941,1576
819.545532,1556
819.664124,1565
819.782715,1606
819.901306,1576
820.019897,1562
820.138489,1546
820.25708,1595
820.375671,1567
820.494202,1559
820.612732,1579
820.731384,1571
820.849915,1546
820.968506,1509
821.087097,1537
821.205627,1520
821.324158,1539
821.442749,1521
821.561279,1506
821.679871,1522
821.798401,1519
821.916931,1514
822.035461,1527
822.154053,1478
822.272583,1464
822.391174,1521
822.509583,1483
822.628174,1528
822.746704,1504
822.865234,1482
822.983765,1453
823.102295,1525
823.220825,1466
823.339294,1511
823.457825,1499
823.576355,1520
823.694824,1506
823.813354,1551
823.931885,1531
824.050354,1485
824.168884,1517
824.287354,1508
824.405823,1500
824.524353,1530
824.642822,1495
824.761353,1491
824.879822,1505
824.998291,1517
825.116699,1512
825.235291,1465
825.353699,1461
825.472168,1517
825.590637,1488
825.709106,1495
825.827576,1446
825.946045,1432
826.064453,1464
826.182983,1468
826.301392,1484
826.4198,1460
826.53833,1463
826.656738,1420
826.775208,1500
826.893677,1428
827.012024,1461
827.130493,1427
827.248962,1419
827.36731,1477
827.485779,1419
827.604248,1458
827.722595,1409
827.841064,1427
827.959412,1429
828.077942,1400
828.196289,1467
828.314636,1432
828.433105,1443
828.551514,1376
828.669861,1411
828.78833,1408
828.906677,1411
829.025085,1387
829.143433,1416
829.261841,1406
829.38031,1417
829.498657,1414
829.617004,1392
829.735413,1403
829.85376,1441
829.972107,1430
830.090515,1423
830.208862,1407
830.327209,1418
830.445557,1422
830.563904,1393
830.682312,1411
830.800659,1412
830.919006,1451
831.037354,1397
831.155701,1428
831.274048,1440
831.392395,1419
831.51062,1450
831.629028,1431
831.747314,1376
831.865662,1396
831.984009,1418
832.102356,1394
832.220642,1437
832.338928,1407
832.457275,1471
832.575623,1434
832.693909,1397
832.812134,1440
832.930481,1423
833.048828,1455
833.167114,1388
833.2854,1401
833.403687,1444
833.521973,1426
833.640259,1408
833.758545,1423
833.876831,1403
833.995056,1440
834.113281,1408
834.231628,1418
834.349915,1383
834.468201,1400
834.586426,1474
834.704651,1375
834.822998,1418
834.941162,1418
835.059448,1412
835.177673,1460
835.295959,1399
835.414246,1464
835.53241,1416
835.650635,1404
835.768921,1445
835.887146,1448
836.005371,1383
836.123596,1465
836.241821,1414
836.360046,1434
836.478271,1445
836.596497,1462
836.714722,1464
836.832886,1410
836.95105,1426
837.069336,1473
837.1875,1443
837.305725,1446
837.423889,1472
837.542053,1471
837.660339,1441
837.778503,1479
837.896667,1452
838.014832,1477
838.132996,1462
838.25116,1425
838.369385,1494
838.487488,1443
838.605713,1456
838.723877,1476
838.84198,1452
838.960205,1424
839.078308,1463
839.196472,1468
839.314636,1426
839.4328,1462
839.550964,1436
839.669067,1485
839.787231,1516
839.905396,1436
840.023499,1470
840.141602,1492
840.259766,1457
840.377869,1442
840.495972,1458
840.614136,1452
840.732239,1479
840.850342,1511
840.968445,1488
841.086548,1497
841.204651,1490
841.322754,1482
841.440918,1513
841.55896,1503
841.677002,1497
841.795166,1515
841.913208,1458
842.031311,1545
842.149353,1451
842.267456,1473
842.385498,1452
842.503601,1465
842.621643,1421
842.739746,1424
842.857788,1487
842.97583,1473
843.093933,1437
843.211975,1483
843.330017,1475
843.44812,1455
843.566101,1452
843.684204,1432
843.802246,1457
843.920227,1463
844.038269,1472
844.156311,1438
844.274292,1415
844.392395,1411
844.510376,1471
844.628357,1395
844.74646,1462
844.864441,1437
844.982422,1411
845.100403,1430
845.218384,1424
845.336426,1434
845.454468,1418
845.572449,1376
845.69043,1420
845.808411,1428
845.926453,1422
846.044373,1356
846.162354,1382
846.280396,1398
846.398315,1450
846.516296,1450
846.634216,1412
846.752197,1438
846.870178,1403
846.988098,1419
847.106079,1385
847.22406,1440
847.34198,1411
847.4599,1444
847.577881,1446
847.695801,1458
847.813782,1433
847.931641,1503
848.049561,1421
848.167603,1436
848.285461,1423
848.403381,1412
848.521362,1429
848.639221,1403
848.75708,1475
848.875,1405
848.99292,1475
849.110901,1412
849.22876,1430
849.34668,1451
849.464539,1424
849.582458,1436
849.700317,1439
849.818176,1462
849.936096,1434
850.053955,1452
850.171875,1413
850.289673,1490
850.407593,1466
850.525452,1445
850.643311,1456
850.761169,1444
850.878967,1438
850.996887,1467
851.114746,1404
851.232544,1438
851.350403,1452
851.468262,1392
851.58606,1435
851.703979,1432
851.821777,1441
851.939636,1448
852.057434,1418
852.175232,1449
852.293091,1503
852.410889,1524
852.528687,1510
852.646545,1483
852.764343,1492
852.88208,1485
852.999939,1469
853.117676,1509
853.235535,1503
853.353271,1446
853.471069,1464
853.588928,1480
853.706604,1428
853.824402,1419
853.9422,1406
854.059998,1448
854.177734,1429
854.295532,1421
854.413269,1481
854.531006,1468
854.648804,1453
854.766541,1440
854.884277,1443
855.002014,1430
855.119751,1450
855.237549,1428
855.355225,1453
855.473022,1453
855.590698,1466
855.708435,1477
855.826172,1420
855.943848,1436
856.061646,1463
856.179321,1471
856.296997,1464
856.414795,1505
856.53241,1494
856.650085,1515
856.767822,1469
856.885559,1466
857.003174,1480
857.120911,1460
857.238586,1451
857.356201,1491
857.473938,1472
857.591614,1527
857.709351,1480
857.826965,1457
857.944641,1543
858.062317,1500
858.179993,1488
858.297668,1478
858.415283,1487
858.532959,1493
858.650574,1507
858.768188,1490
858.885803,1475
859.003479,1485
859.121094,1453
859.23877,1480
859.356384,1447
859.473999,1456
859.591675,1437
859.709229,1461
859.826843,1417
859.944458,1432
860.062012,1402
860.179626,1469
860.297302,1441
860.414856,1403
860.532471,1465
860.650024,1463
860.767639,1470
860.885193,1432
861.002808,1433
861.120361,1442
861.237976,1458
861.35553,1464
861.473022,1417
861.590698,1446
861.708191,1438
861.825745,1461
861.943298,1430
862.060852,1433
862.178406,1433
862.295959,1399
862.413513,1417
862.531006,1430
862.64856,1439
862.766113,1457
862.883667,1410
863.00116,1427
863.118713,1429
863.236206,1415
863.353699,1426
863.471252,1381
863.588745,1461
863.706177,1407
863.82373,1443
863.941162,1438
864.058716,1450
864.176208,1460
864.29364,1422
864.411194,1432
864.528687,1435
864.646118,1447
864.763611,1412
864.881042,1439
864.998535,1458
865.116028,1418
865.233459,1427
865.350891,1432
865.468384,1418
865.585754,1439
865.703308,1365
865.820679,1454
865.938171,1412
866.055542,1455
866.173035,1438
866.290466,1426
866.407837,1437
866.52533,1480
866.6427,1442
866.760071,1445
866.877563,1430
866.994934,1462
867.112305,1464
867.229736,1435
867.347107,1478
867.464539,1466
867.58197,1465
867.699341,1448
867.81665,1450
867.934082,1446
868.051453,1418
868.168823,1454
868.286194,1434
868.403564,1476
868.520935,1485
868.638306,1438
868.755676,1456
868.872986,1424
868.990295,1457
869.107727,1461
869.225037,1494
869.342346,1479
869.459717,1498
869.577026,1483
869.694336,1459
869.811707,1513
869.929016,1482
870.046326,1483
870.163635,1451
870.280945,1497
870.398254,1504
870.515564,1506
870.632812,1494
870.750183,1506
870.867432,1481
870.984741,1487
871.102051,1486
871.219299,1488
871.336609,1545
871.453918,1521
871.571106,1515
871.688416,1520
871.805664,1499
871.922852,1496
872.040222,1533
872.157471,1577
872.274719,1497
872.391968,1498
872.509155,1551
872.626465,1510
872.743652,1487
872.860962,1494
872.978149,1472
873.095337,1489
873.212646,1475
873.329834,1511
873.44696,2949
873.564209,1832
873.681396,1504
873.798645,1526
873.915894,1523
874.03302,1464
874.150208,1576
874.267456,1549
874.384583,1521
874.501831,1474
874.618958,1574
874.736145,1548
874.853333,1550
874.970459,1524
875.087646,1517
875.204834,1541
875.32196,1558
875.439148,1489
875.556274,1534
875.673401,1484
875.790527,1478
875.907715,1508
876.024841,1524
876.141968,1497
876.259094,1491
876.376282,1463
876.493347,1545
876.610474,1454
876.7276,1475
876.844727,1493
876.961853,1498
877.078918,1476
877.195984,1490
877.313171,1491
877.430237,1478
877.547302,1517
877.664368,1456
877.781433,1465
877.898499,1468
878.015625,1437
878.13269,1443
878.249695,1473
878.366821,1433
878.483887,1462
878.600952,1498
878.717957,1471
878.834961,1443
878.952087,1440
879.069092,1485
879.186157,1485
879.303162,1439
879.420227,1416
879.537231,1442
879.654236,1453
879.77124,1457
879.888306,1436
880.005249,1462
880.122314,1434
880.239319,1433
880.356323,1441
880.473328,1446
880.590271,1410
880.707275,1451
880.824341,1444
880.941284,1424
881.058228,1453
881.175232,1441
881.292236,1396
881.40918,1468
881.526123,1415
881.643066,1396
881.760071,1422
881.877014,1453
881.993958,1485
882.11084,1444
882.227783,1441
882.344727,1447
882.46167,1412
882.578613,1431
882.695618,1471
882.812439,1418
882.929382,1423
883.046326,1492
883.163208,1416
883.280151,1481
883.397034,1455
883.513916,1451
883.630798,1454
883.747742,1462
883.864563,1463
883.981506,1458
884.098389,1460
884.21521,1433
884.332153,1488
884.448975,1522
884.565796,1513
884.682678,1526
884.7995,1521
884.916443,1586
885.033264,1594
885.150085,1607
885.266968,1608
885.383789,1672
885.500671,1699
885.617493,1626
885.734314,1648
885.851196,1676
885.967896,1669
886.084717,1700
886.201599,1640
886.318359,1633
886.435181,1619
886.552002,1608
886.668762,1616
886.785645,1556
886.902344,1609
887.019165,1592
887.135925,1610
887.252747,1568
887.369446,1558
887.486267,1555
887.603027,1542
887.719788,1491
887.836548,1483
887.953247,1521
888.070068,1484
888.186829,1501
888.303528,1467
888.420288,1497
888.536987,1495
888.653687,1425
888.770447,1476
888.887146,1472
889.003967,1477
889.120667,1461
889.237305,1439
889.354065,1426
889.470703,1411
889.587463,1419
889.704163,1503
889.820862,1432
889.937561,1439
890.054199,1409
890.170837,1427
890.287598,1444
890.404236,1451
890.520874,1404
890.637634,1440
890.754211,1444
890.87085,1425
890.987549,1440
891.104187,1438
891.220886,1444
891.337463,1436
891.454102,1483
891.57074,1442
891.687378,1458
891.804077,1472
891.920654,1485
892.037231,1423
892.15387,1482
892.270447,1434
892.387085,1474
892.503723,1417
892.6203,1450
892.736877,1468
892.853516,1443
892.970032,1458
893.08667,1516
893.203186,1460
893.319763,1486
893.43634,1473
893.552917,1441
893.669556,1470
893.786011,1482
893.902588,1482
894.019165,1437
894.135681,1461
894.252197,1444
894.368835,1422
894.485291,1441
894.601868,1429
894.718384,1494
894.8349,1452
894.951355,1481
895.067932,1428
895.184448,1459
895.300964,1501
895.417419,1433
895.533936,1481
895.650452,1444
895.766907,1461
895.883423,1490
895.999878,1484
896.116333,1438
896.232849,1464
896.349304,1479
896.465759,1436
896.582214,1469
896.698669,1452
896.815125,1471
896.931641,1470
897.048035,1444
897.164551,1460
897.280884,1481
897.397339,1447
897.513794,1462
897.630249,1416
897.746582,1504
897.863098,1475
897.979431,1460
898.095886,1473
898.212341,1508
898.328674,1495
898.445129,1440
898.561462,1479
898.677795,1500
898.794312,1497
898.910645,1464
899.026978,1517
899.143433,1512
899.259766,1458
899.37616,1493
899.492493,1470
899.608765,1457
899.725159,1461
899.841553,1466
899.957947,1489
900.07428,1475
900.190552,1473
900.306946,1456
900.423157,1494
900.53949,1474
900.655884,1475
900.772156,1463
900.888489,1476
901.004822,1486
901.121033,1517
901.237366,1512
901.353699,1491
901.46991,1507
901.586304,1482
901.702515,1484
901.818787,1497
901.93512,1548
902.051331,1501
902.167603,1539
902.283875,1552
902.400085,1576
902.516418,1583
902.632629,1586
902.74884,1614
902.865112,1630
902.981384,1577
903.097595,1589
903.213867,1597
903.330017,1593
903.446289,1582
903.5625,1577
903.67865,1600
903.794922,1549
903.911072,1567
904.027344,1557
904.143494,1570
904.259705,1577
904.375916,1537
904.492065,1555
904.608215,1559
904.724426,1541
904.840576,1518
904.956726,1523
905.072876,1516
905.189087,1515
905.305176,1521
905.421387,1495
905.537537,1488
905.653687,1498
905.769775,1529
905.885925,1530
906.002014,1518
906.118164,1491
906.234314,1460
906.350403,1455
906.466492,1459
906.582642,1473
906.69873,1435
906.814758,1501
906.930908,1462
907.046936,1510
907.163086,1467
907.279175,1508
907.395264,1473
907.511353,1474
907.62738,1507
907.743408,1503
907.859497,1511
907.975525,1473
908.091553,1512
908.207703,1494
908.32373,1488
908.439758,1511
908.555786,1480
908.671814,1524
908.787842,1482
908.90387,1466
909.019775,1508
909.135864,1519
909.251892,1519
909.367859,1544
909.483826,1470
909.599854,1533
909.715881,1478
909.831848,1536
909.947815,1476
910.063782,1511
910.179749,1515
910.295776,1473
910.411743,1505
910.527649,1515
910.643616,1490
910.759583,1484
910.875488,1538
910.991455,1516
911.107361,1499
911.223267,1519
911.339294,1484
911.4552,1476
911.571106,1509
911.687073,1494
911.802979,1501
911.918823,1477
912.034729,1513
912.150635,1480
912.266602,1468
912.382446,1486
912.498352,1498
912.614197,1512
912.730103,1473
912.846008,1493
