792.44574,1647
792.56488,1616
792.68396,1666
792.80304,1601
792.92218,1570
793.041199,1585
793.160339,1566
793.279419,1600
793.398499,1594
793.517578,1584
793.636658,1593
793.755737,1557
793.874817,1550
793.993896,1579
794.112976,1581
794.232056,1511
794.351074,1533
794.470215,1544
794.589233,1539
794.708313,1533
794.827393,1492
794.946411,1545
795.065552,1501
795.18457,1489
795.303589,1504
795.422668,1508
795.541687,1558
795.660767,1523
795.779846,1495
795.898865,1494
796.017883,1473
796.136963,1493
796.255981,1508
796.375061,1477
796.49408,1478
796.613037,1509
796.732117,1516
796.851135,1461
796.970154,1491
797.089233,1500
797.208191,1464
797.327271,1493
797.446228,1517
797.565186,1461
797.684265,1525
797.803223,1505
797.922241,1500
798.04126,1447
798.160278,1431
798.279297,1507
798.398315,1474
798.517273,1511
798.636292,1437
798.75531,1508
798.874268,1467
798.993286,1486
799.112244,1430
799.231323,1469
799.350281,1453
799.469238,1464
799.588257,1452
799.707153,1451
799.826111,1492
799.945129,1423
800.064087,1491
800.183044,1465
800.302063,1490
800.421021,1482
800.539978,1435
800.658936,1429
800.777893,1487
800.896912,1469
801.015747,1482
801.134705,1484
801.253723,1475
801.37262,1441
801.491638,1508
801.610535,1459
801.729492,1448
801.84845,1468
801.967407,1443
802.086243,1491
802.205261,1486
802.324158,1456
802.443115,1434
802.562073,1453
802.680969,1473
802.799927,1496
802.918762,1443
803.037659,1479
803.156677,1441
803.275574,1435
803.39447,1474
803.513428,1481
803.632263,1452
803.751221,1476
803.870117,1441
803.989014,1434
804.107971,1423
804.226746,1477
804.345642,1457
804.4646,1471
804.583496,1473
804.702393,1445
804.821228,1431
804.940125,1451
805.059021,1439
805.177917,1447
805.296814,1453
805.415649,1441
805.534546,1461
805.653442,1430
805.772278,1492
805.891113,1457
806.01001,1444
806.128906,1494
806.247742,1458
806.366577,1485
806.485413,1421
806.604309,1433
806.723145,1435
806.84198,1465
806.960876,1453
807.079712,1450
807.198486,1451
807.317383,1478
807.436218,1461
807.554993,1434
807.673889,1452
807.792725,1423
807.91156,1453
808.030396,1459
808.14917,1412
808.268005,1477
808.386841,1490
808.505676,1425
808.624451,1416
808.743286,1455
808.862122,1443
808.980896,1437
809.099731,1456
809.218506,1433
809.337341,1460
809.456116,1450
809.57489,1495
809.693726,1477
809.8125,1460
809.931274,1473
810.050049,1403
810.168884,1428
810.287659,1505
810.406372,1466
810.525269,1502
810.643982,1448
810.762756,1458
810.881531,1449
811.000305,1451
811.11908,1450
811.237854,1456
811.356567,1426
811.475403,1448
811.594116,1439
811.71283,1419
811.831604,1458
811.950378,1462
812.069153,1483
812.187927,1387
812.30658,1516
812.425415,1402
812.544128,1374
812.662781,1453
812.781616,1387
812.900269,1461
813.019043,1457
813.137756,1452
813.256531,1474
813.375244,1431
813.493896,1449
813.612671,1432
813.731384,1434
813.850037,1443
813.96875,1434
814.087524,1437
814.206238,1403
814.324951,1479
814.443604,1438
814.562256,1443
814.68103,1424
814.799683,1454
814.918335,1409
815.037109,1434
815.155762,1446
815.274475,1393
815.393188,1408
815.511841,1405
815.630554,1432
815.749146,1395
815.867859,1424
815.986572,1455
816.105164,1408
816.223877,1428
816.342529,1437
816.461182,1428
816.579895,1410
816.698486,1440
816.817139,1457
816.935791,1420
817.054504,1448
817.173096,1435
817.291748,1444
817.4104,1421
817.529053,1429
817.647644,1409
817.766235,1392
817.884949,1373
818.00354,1362
818.122192,1401
818.240845,1398
818.359436,1388
818.478088,1421
818.59668,1358
818.715271,1369
818.833923,1312
818.952515,1401
819.071106,1333
819.189758,1376
819.30835,1348
819.426941,1335
819.545532,1347
819.664124,1381
819.782715,1314
819.901306,1332
820.019897,1351
820.138489,1321
820.25708,1382
820.375671,1327
820.494202,1315
820.612732,1312
820.731384,1375
820.849915,1311
820.968506,1316
821.087097,1348
821.205627,1339
821.324158,1323
821.442749,1351
821.561279,1330
821.679871,1319
821.798401,1364
821.916931,1321
822.035461,1331
822.154053,1338
822.272583,1319
822.391174,1326
822.509583,1358
822.628174,1305
822.746704,1326
822.865234,1278
822.983765,1303
823.102295,1336
823.220825,1274
823.339294,1342
823.457825,1309
823.576355,1324
823.694824,1327
823.813354,1315
823.931885,1320
824.050354,1327
824.168884,1320
824.287354,1320
824.405823,1323
824.524353,1289
824.642822,1359
824.761353,1334
824.879822,1293
824.998291,1307
825.116699,1293
825.235291,1336
825.353699,1278
825.472168,1309
825.590637,1312
825.709106,1299
825.827576,1286
825.946045,1294
826.064453,1306
826.182983,1277
826.301392,1295
826.4198,1304
826.53833,1303
826.656738,1306
826.775208,1297
826.893677,1310
827.012024,1322
827.130493,1322
827.248962,1269
827.36731,1283
827.485779,1326
827.604248,1298
827.722595,1282
827.841064,1314
827.959412,1283
828.077942,1297
828.196289,1295
828.314636,1277
828.433105,1264
828.551514,1295
828.669861,1274
828.78833,1295
828.906677,1260
829.025085,1287
829.143433,1305
829.261841,1266
829.38031,1293
829.498657,1251
829.617004,1305
829.735413,1279
829.85376,1254
829.972107,1288
830.090515,1304
830.208862,1311
830.327209,1300
830.445557,1256
830.563904,1282
830.682312,1251
830.800659,1292
830.919006,1289
831.037354,1266
831.155701,1274
831.274048,1286
831.392395,1275
831.51062,1285
831.629028,1282
831.747314,1280
831.865662,1301
831.984009,1251
832.102356,1280
832.220642,1233
832.338928,1270
832.457275,1309
832.575623,1272
832.693909,1252
832.812134,1250
832.930481,1232
833.048828,1294
833.167114,1260
833.2854,1278
833.403687,1260
833.521973,1291
833.640259,1258
833.758545,1267
833.876831,1263
833.995056,1281
834.113281,1287
834.231628,1285
834.349915,1259
834.468201,1290
834.586426,1258
834.704651,1242
834.822998,1259
834.941162,1242
835.059448,1263
835.177673,1333
835.295959,1239
835.414246,1282
835.53241,1268
835.650635,1264
835.768921,1299
835.887146,1317
836.005371,1252
836.123596,1258
836.241821,1232
836.360046,1270
836.478271,1291
836.596497,1261
836.714722,1261
836.832886,1264
836.95105,1267
837.069336,1307
837.1875,1301
837.305725,1249
837.423889,1280
837.542053,1294
837.660339,1306
837.778503,1271
837.896667,1313
838.014832,1289
838.132996,1275
838.25116,1269
838.369385,1287
838.487488,1302
838.605713,1301
838.723877,1293
838.84198,1281
838.960205,1277
839.078308,1248
839.196472,1241
839.314636,1296
839.4328,1256
839.550964,1288
839.669067,1296
839.787231,1267
839.905396,1284
840.023499,1278
840.141602,1273
840.259766,1264
840.377869,1298
840.495972,1274
840.614136,1262
840.732239,1253
840.850342,1278
840.968445,1277
841.086548,1288
841.204651,1259
841.322754,1264
841.440918,1231
841.55896,1269
841.677002,1261
841.795166,1281
841.913208,1281
842.031311,1253
842.149353,1309
842.267456,1247
842.385498,1286
842.503601,1276
842.621643,1272
842.739746,1272
842.857788,1297
842.97583,1273
843.093933,1234
843.211975,1234
843.330017,1261
843.44812,1284
843.566101,1248
843.684204,1255
843.802246,1268
843.920227,1268
844.038269,1283
844.156311,1292
844.274292,1252
844.392395,1283
844.510376,1260
844.628357,1286
844.74646,1294
844.864441,1231
844.982422,1261
845.100403,1258
845.218384,1285
845.336426,1278
845.454468,1229
845.572449,1260
845.69043,1267
845.808411,1259
845.926453,1239
846.044373,1276
846.162354,1240
846.280396,1246
846.398315,1233
846.516296,1261
846.634216,1248
846.752197,1270
846.870178,1270
846.988098,1275
847.106079,1253
847.22406,1249
847.34198,1272
847.4599,1280
847.577881,1267
847.695801,1239
847.813782,1271
847.931641,1221
848.049561,1274
848.167603,1256
848.285461,1258
848.403381,1270
848.521362,1267
848.639221,1251
848.75708,1251
848.875,1284
848.99292,1225
849.110901,1282
849.22876,1284
849.34668,1263
849.464539,1270
849.582458,1259
849.700317,1278
849.818176,1262
849.936096,1288
850.053955,1283
850.171875,1253
850.289673,1239
850.407593,1258
850.525452,1229
850.643311,1263
850.761169,1255
850.878967,1232
850.996887,1290
851.114746,1264
851.232544,1244
851.350403,1228
851.468262,1266
851.58606,1249
851.703979,1305
851.821777,1252
851.939636,1267
852.057434,1237
852.175232,1255
852.293091,1244
852.410889,1260
852.528687,1278
852.646545,1253
852.764343,1238
852.88208,1271
852.999939,1278
853.117676,1287
853.235535,1249
853.353271,1285
853.471069,1308
853.588928,1240
853.706604,1289
853.824402,1303
853.9422,1260
854.059998,1276
854.177734,1255
854.295532,1252
854.413269,1289
854.531006,1234
854.648804,1247
854.766541,1275
854.884277,1237
855.002014,1255
855.119751,1285
855.237549,1282
855.355225,1302
855.473022,1264
855.590698,1245
855.708435,1280
855.826172,1271
855.943848,1294
856.061646,1300
856.179321,1246
856.296997,1278
856.414795,1283
856.53241,1279
856.650085,1307
856.767822,1242
856.885559,1260
857.003174,1263
857.120911,1258
857.238586,1316
857.356201,1323
857.473938,1308
857.591614,1297
857.709351,1260
857.826965,1280
857.944641,1249
858.062317,1283
858.179993,1274
858.297668,1224
858.415283,1274
858.532959,1304
858.650574,1249
858.768188,1298
858.885803,1279
859.003479,1284
859.121094,1267
859.23877,1270
859.356384,1274
859.473999,1260
859.591675,1282
859.709229,1285
859.826843,1270
859.944458,1294
860.062012,1285
860.179626,1238
860.297302,1279
860.414856,1273
860.532471,1276
860.650024,1286
860.767639,1296
860.885193,1262
861.002808,1253
861.120361,1268
861.237976,1249
861.35553,1283
861.473022,1243
861.590698,1293
861.708191,1276
861.825745,1288
861.943298,1267
862.060852,1284
862.178406,1281
862.295959,1285
862.413513,1261
862.531006,1271
862.64856,1286
862.766113,1256
862.883667,1246
863.00116,1275
863.118713,1289
863.236206,1320
863.353699,1268
863.471252,1258
863.588745,1266
863.706177,1288
863.82373,1281
863.941162,1277
864.058716,1271
864.176208,1273
864.29364,1266
864.411194,1341
864.528687,1292
864.646118,1293
864.763611,1237
864.881042,1284
864.998535,1285
865.116028,1275
865.233459,1281
865.350891,1271
865.468384,1299
865.585754,1297
865.703308,1287
865.820679,1295
865.938171,1308
866.055542,1284
866.173035,1293
866.290466,1281
866.407837,1307
866.52533,1300
866.6427,1265
866.760071,1264
866.877563,1278
866.994934,1302
867.112305,1254
867.229736,1287
867.347107,1255
867.464539,1294
867.58197,1241
867.699341,1284
867.81665,1301
867.934082,1272
868.051453,1275
868.168823,1271
868.286194,1315
868.403564,1283
868.520935,1289
868.638306,1284
868.755676,1258
868.872986,1266
868.990295,1293
869.107727,1311
869.225037,1299
869.342346,1281
869.459717,1275
869.577026,1292
869.694336,1328
869.811707,1293
869.929016,1324
870.046326,1284
870.163635,1299
870.280945,1298
870.398254,1268
870.515564,1309
870.632812,1264
870.750183,1300
870.867432,1238
870.984741,1235
871.102051,1285
871.219299,1298
871.336609,1294
871.453918,1309
871.571106,1297
871.688416,1272
871.805664,1297
871.922852,1296
872.040222,1321
872.157471,1290
872.274719,1302
872.391968,1291
872.509155,1310
872.626465,1244
872.743652,1310
872.860962,1288
872.978149,1296
873.095337,1297
873.212646,1291
873.329834,1338
873.44696,1272
873.564209,1295
873.681396,1341
873.798645,1260
873.915894,1320
874.03302,1312
874.150208,1274
874.267456,1319
874.384583,1327
874.501831,1276
874.618958,1319
874.736145,1317
874.853333,1300
874.970459,1299
875.087646,1301
875.204834,1302
875.32196,1289
875.439148,1299
875.556274,1293
875.673401,1296
875.790527,1280
875.907715,1272
876.024841,1293
876.141968,1289
876.259094,1290
876.376282,1339
876.493347,1331
876.610474,1301
876.7276,1348
876.844727,1282
876.961853,1295
877.078918,1319
877.195984,1308
877.313171,1322
877.430237,1323
877.547302,1293
877.664368,1286
877.781433,1312
877.898499,1285
878.015625,1283
878.13269,1281
878.249695,1303
878.366821,1274
878.483887,1327
878.600952,1274
878.717957,1313
878.834961,1290
878.952087,1323
879.069092,1301
879.186157,1340
879.303162,1294
879.420227,1321
879.537231,1272
879.654236,1304
879.77124,1345
879.888306,1314
880.005249,1344
880.122314,1267
880.239319,1320
880.356323,1309
880.473328,1314
880.590271,1334
880.707275,1290
880.824341,1294
880.941284,1306
881.058228,1303
881.175232,1288
881.292236,1280
881.40918,1358
881.526123,1285
881.643066,1311
881.760071,1304
881.877014,1302
881.993958,1309
882.11084,1318
882.227783,1297
882.344727,1318
882.46167,1347
882.578613,1276
882.695618,1369
882.812439,1292
882.929382,1320
883.046326,1288
883.163208,1307
883.280151,1271
883.397034,1306
883.513916,1291
883.630798,1316
883.747742,1293
883.864563,1294
883.981506,1320
884.098389,1287
884.21521,1279
884.332153,1326
884.448975,1283
884.565796,1299
884.682678,1328
884.7995,1319
884.916443,1306
885.033264,1371
885.150085,1300
885.266968,1314
885.383789,1328
885.500671,1320
885.617493,1334
885.734314,1334
885.851196,1312
885.967896,1310
886.084717,1320
886.201599,1328
886.318359,1369
886.435181,1323
886.552002,1288
886.668762,1333
886.785645,1317
886.902344,1315
887.019165,1319
887.135925,1330
887.252747,1349
887.369446,1368
887.486267,1319
887.603027,1330
887.719788,1308
887.836548,1300
887.953247,1343
888.070068,1308
888.186829,1329
888.303528,1292
888.420288,1305
888.536987,1340
888.653687,1330
888.770447,1351
888.887146,1314
889.003967,1305
889.120667,1334
889.237305,1356
889.354065,1336
889.470703,1348
889.587463,1397
889.704163,1312
889.820862,1331
889.937561,1340
890.054199,1355
890.170837,1350
890.287598,1367
890.404236,1313
890.520874,1331
890.637634,1364
890.754211,1325
890.87085,1325
890.987549,1345
891.104187,1345
891.220886,1351
891.337463,1340
891.454102,1385
891.57074,1363
891.687378,1352
891.804077,1327
891.920654,1375
892.037231,1370
892.15387,1329
892.270447,1340
892.387085,1345
892.503723,1373
892.6203,1340
892.736877,1309
892.853516,1342
892.970032,1342
893.08667,1344
893.203186,1319
893.319763,1328
893.43634,1348
893.552917,1355
893.669556,1387
893.786011,1340
893.902588,1332
894.019165,1356
894.135681,1364
894.252197,1351
894.368835,1386
894.485291,1348
894.601868,1380
894.718384,1377
894.8349,1356
894.951355,1364
895.067932,1365
895.184448,1326
895.300964,1335
895.417419,1368
895.533936,1374
895.650452,1346
895.766907,1347
895.883423,1358
895.999878,1305
896.116333,1405
896.232849,1378
896.349304,1330
896.465759,1339
896.582214,1364
896.698669,1381
896.815125,1381
896.931641,1423
897.048035,1358
897.164551,1333
897.280884,1388
897.397339,1345
897.513794,1403
897.630249,1338
897.746582,1374
897.863098,1358
897.979431,1378
898.095886,1353
898.212341,1358
898.328674,1328
898.445129,1392
898.561462,1328
898.677795,1337
898.794312,1392
898.910645,1369
899.026978,1348
899.143433,1349
899.259766,1372
899.37616,1383
899.492493,1353
899.608765,1391
899.725159,1392
899.841553,1379
899.957947,1357
900.07428,1366
900.190552,1394
900.306946,1367
900.423157,1402
900.53949,1346
900.655884,1403
900.772156,1365
900.888489,1376
901.004822,1342
901.121033,1350
901.237366,1392
901.353699,1357
901.46991,1364
901.586304,1389
901.702515,1361
901.818787,1360
901.93512,1411
902.051331,1371
902.167603,1395
902.283875,1381
902.400085,1359
902.516418,1426
902.632629,1385
902.74884,1395
902.865112,1371
902.981384,1357
903.097595,1382
903.213867,1389
903.330017,1361
903.446289,1373
903.5625,1362
903.67865,1365
903.794922,1394
903.911072,1379
904.027344,1412
904.143494,1378
904.259705,1371
904.375916,1347
904.492065,1373
904.608215,1369
904.724426,1392
904.840576,1371
904.956726,1435
905.072876,1367
905.189087,1390
905.305176,1386
905.421387,1383
905.537537,1410
905.653687,1377
905.769775,1390
905.885925,1410
906.002014,1377
906.118164,1395
906.234314,1374
906.350403,1372
906.466492,1369
906.582642,1450
906.69873,1384
906.814758,1412
906.930908,1377
907.046936,1404
907.163086,1371
907.279175,1385
907.395264,1381
907.511353,1404
907.62738,1410
907.743408,1387
907.859497,1411
907.975525,1376
908.091553,1382
908.207703,1406
908.32373,1389
908.439758,1419
908.555786,1394
908.671814,1402
908.787842,1414
908.90387,1423
909.019775,1403
909.135864,1399
909.251892,1395
909.367859,1391
909.483826,1406
909.599854,1367
909.715881,1381
909.831848,1398
909.947815,1428
910.063782,1378
910.179749,1406
910.295776,1381
910.411743,1398
910.527649,1366
910.643616,1396
910.759583,1394
910.875488,1400
910.991455,1441
911.107361,1399
911.223267,1401
911.339294,1423
911.4552,1424
911.571106,1403
911.687073,1414
911.802979,1372
911.918823,1364
912.034729,1403
912.150635,1405
912.266602,1420
912.382446,1369
912.498352,1395
912.614197,1374
912.730103,1378
912.846008,1401
792.44574,1635
792.56488,1610
792.68396,1655
792.80304,1629
792.92218,1633
793.041199,1598
793.160339,1572
793.279419,1613
793.398499,1628
793.517578,1601
793.636658,1570
793.755737,1585
793.874817,1610
793.993896,1565
794.112976,1547
794.232056,1542
794.351074,1554
794.470215,1576
794.589233,1549
794.708313,1507
794.827393,1525
794.946411,1511
795.065552,1535
795.18457,1538
795.303589,1526
795.422668,1528
795.541687,1531
795.660767,1517
795.779846,1559
795.898865,1587
796.017883,1532
796.136963,1516
796.255981,1540
796.375061,1501
796.49408,1533
796.613037,1559
796.732117,1522
796.851135,1517
796.970154,1529
797.089233,1508
797.208191,1473
797.327271,1509
797.446228,1530
797.565186,1496
797.684265,1555
797.803223,1465
797.922241,1524
798.04126,1503
798.160278,1515
798.279297,1520
798.398315,1496
798.517273,1492
798.636292,1489
798.75531,1521
798.874268,1466
798.993286,1486
799.112244,1481
799.231323,1521
799.350281,1469
799.469238,1489
799.588257,1508
799.707153,1503
799.826111,1532
799.945129,1488
800.064087,1538
800.183044,1452
800.302063,1481
800.421021,1494
800.539978,1479
800.658936,1494
800.777893,1496
800.896912,1490
801.015747,1471
801.134705,1448
801.253723,1474
801.37262,1477
801.491638,1505
801.610535,1495
801.729492,1457
801.84845,1470
801.967407,1511
802.086243,1461
802.205261,1448
802.324158,1487
802.443115,1520
802.562073,1485
802.680969,1477
802.799927,1506
802.918762,1439
803.037659,1471
803.156677,1444
803.275574,1488
803.39447,1481
803.513428,1459
803.632263,1502
803.751221,1455
803.870117,1472
803.989014,1532
804.107971,1463
804.226746,1490
804.345642,1465
804.4646,1497
804.583496,1497
804.702393,1483
804.821228,1486
804.940125,1489
805.059021,1499
805.177917,1470
805.296814,1485
805.415649,1458
805.534546,1498
805.653442,1516
805.772278,1492
805.891113,1481
806.01001,1446
806.128906,1456
806.247742,1495
806.366577,1470
806.485413,1483
806.604309,1504
806.723145,1500
806.84198,1486
806.960876,1464
807.079712,1485
807.198486,1546
807.317383,1489
807.436218,1509
807.554993,1452
807.673889,1451
807.792725,1464
807.91156,1439
808.030396,1475
808.14917,1476
808.268005,1465
808.386841,1470
808.505676,1473
808.624451,1468
808.743286,1500
808.862122,1431
808.980896,1476
809.099731,1467
809.218506,1517
809.337341,1467
809.456116,1493
809.57489,1443
809.693726,1463
809.8125,1444
809.931274,1474
810.050049,1487
810.168884,1485
810.287659,1463
810.406372,1539
810.525269,1489
810.643982,1460
810.762756,1473
810.881531,1466
811.000305,1494
811.11908,1471
811.237854,1477
811.356567,1490
811.475403,1510
811.594116,1483
811.71283,1459
811.831604,1465
811.950378,1494
812.069153,1455
812.187927,1471
812.30658,1468
812.425415,1437
812.544128,1432
812.662781,1491
812.781616,1475
812.900269,1458
813.019043,1473
813.137756,1463
813.256531,1511
813.375244,1441
813.493896,1440
813.612671,1457
813.731384,1425
813.850037,1433
813.96875,1486
814.087524,1464
814.206238,1440
814.324951,1459
814.443604,1482
814.562256,1439
814.68103,1471
814.799683,1466
814.918335,1452
815.037109,1405
815.155762,1434
815.274475,1445
815.393188,1458
815.511841,1439
815.630554,1450
815.749146,1443
815.867859,1436
815.986572,1431
816.105164,1455
816.223877,1402
816.342529,1478
816.461182,1410
816.579895,1410
816.698486,1454
816.817139,1448
816.935791,1437
817.054504,1452
817.173096,1473
817.291748,1430
817.4104,1439
817.529053,1428
817.647644,1421
817.766235,1422
817.884949,1439
818.00354,1423
818.122192,1408
818.240845,1431
818.359436,1413
818.478088,1426
818.59668,1411
818.715271,1379
818.833923,1393
818.952515,1355
819.071106,1376
819.189758,1369
819.30835,1362
819.426941,1353
819.545532,1367
819.664124,1370
819.782715,1369
819.901306,1365
820.019897,1418
820.138489,1417
820.25708,1334
820.375671,1365
820.494202,1375
820.612732,1354
820.731384,1367
820.849915,1332
820.968506,1370
821.087097,1381
821.205627,1333
821.324158,1383
821.442749,1342
821.561279,1369
821.679871,1371
821.798401,1306
821.916931,1381
822.035461,1352
822.154053,1380
822.272583,1351
822.391174,1346
822.509583,1391
822.628174,1363
822.746704,1347
822.865234,1343
822.983765,1368
823.102295,1352
823.220825,1303
823.339294,1346
823.457825,1353
823.576355,1384
823.694824,1377
823.813354,1352
823.931885,1350
824.050354,1374
824.168884,1330
824.287354,1313
824.405823,1325
824.524353,1347
824.642822,1326
824.761353,1345
824.879822,1357
824.998291,1301
825.116699,1360
825.235291,1279
825.353699,1303
825.472168,1308
825.590637,1352
825.709106,1312
825.827576,1350
825.946045,1364
826.064453,1352
826.182983,1342
826.301392,1379
826.4198,1258
826.53833,1298
826.656738,1306
826.775208,1343
826.893677,1298
827.012024,1307
827.130493,1328
827.248962,1327
827.36731,1289
827.485779,1328
827.604248,1333
827.722595,1315
827.841064,1321
827.959412,1327
828.077942,1316
828.196289,1322
828.314636,1308
828.433105,1277
828.551514,1304
828.669861,1337
828.78833,1315
828.906677,1306
829.025085,1314
829.143433,1342
829.261841,1336
829.38031,1318
829.498657,1269
829.617004,1300
829.735413,1298
829.85376,1341
829.972107,1296
830.090515,1314
830.208862,1314
830.327209,1308
830.445557,1323
830.563904,1347
830.682312,1279
830.800659,1292
830.919006,1289
831.037354,1332
831.155701,1296
831.274048,1344
831.392395,1278
831.51062,1306
831.629028,1316
831.747314,1324
831.865662,1284
831.984009,1336
832.102356,1279
832.220642,1283
832.338928,1287
832.457275,1307
832.575623,1321
832.693909,1309
832.812134,1328
832.930481,1339
833.048828,1268
833.167114,1308
833.2854,1284
833.403687,1319
833.521973,1294
833.640259,1277
833.758545,1280
833.876831,1296
833.995056,1326
834.113281,1278
834.231628,1303
834.349915,1296
834.468201,1302
834.586426,1264
834.704651,1295
834.822998,1277
834.941162,1324
835.059448,1295
835.177673,1282
835.295959,1306
835.414246,1335
835.53241,1297
835.650635,1289
835.768921,1278
835.887146,1314
836.005371,1314
836.123596,1318
836.241821,1279
836.360046,1291
836.478271,1311
836.596497,1315
836.714722,1287
836.832886,1334
836.95105,1289
837.069336,1267
837.1875,1309
837.305725,1246
837.423889,1334
837.542053,1278
837.660339,1319
837.778503,1341
837.896667,1320
838.014832,1304
838.132996,1279
838.25116,1308
838.369385,1287
838.487488,1318
838.605713,1298
838.723877,1292
838.84198,1303
838.960205,1297
839.078308,1302
839.196472,1323
839.314636,1321
839.4328,1241
839.550964,1301
839.669067,1262
839.787231,1294
839.905396,1264
840.023499,1297
840.141602,1306
840.259766,1267
840.377869,1287
840.495972,1342
840.614136,1295
840.732239,1275
840.850342,1273
840.968445,1270
841.086548,1283
841.204651,1294
841.322754,1302
841.440918,1268
841.55896,1322
841.677002,1322
841.795166,1249
841.913208,1295
842.031311,1280
842.149353,1322
842.267456,1342
842.385498,1288
842.503601,1298
842.621643,1268
842.739746,1307
842.857788,1283
842.97583,1303
843.093933,1299
843.211975,1292
843.330017,1286
843.44812,1289
843.566101,1245
843.684204,1272
843.802246,1262
843.920227,1279
844.038269,1313
844.156311,1327
844.274292,1281
844.392395,1286
844.510376,1278
844.628357,1277
844.74646,1294
844.864441,1338
844.982422,1294
845.100403,1322
845.218384,1308
845.336426,1266
845.454468,1285
845.572449,1292
845.69043,1312
845.808411,1303
845.926453,1266
846.044373,1291
846.162354,1264
846.280396,1295
846.398315,1298
846.516296,1271
846.634216,1274
846.752197,1269
846.870178,1330
846.988098,1283
847.106079,1296
847.22406,1257
847.34198,1287
847.4599,1292
847.577881,1305
847.695801,1279
847.813782,1340
847.931641,1273
848.049561,1278
848.167603,1299
848.285461,1273
848.403381,1243
848.521362,1258
848.639221,1283
848.75708,1320
848.875,1250
848.99292,1288
849.110901,1273
849.22876,1303
849.34668,1262
849.464539,1244
849.582458,1276
849.700317,1279
849.818176,1284
849.936096,1298
850.053955,1292
850.171875,1304
850.289673,1279
850.407593,1289
850.525452,1287
850.643311,1312
850.761169,1313
850.878967,1278
850.996887,1309
851.114746,1302
851.232544,1273
851.350403,1285
851.468262,1281
851.58606,1308
851.703979,1269
851.821777,1312
851.939636,1277
852.057434,1310
852.175232,1266
852.293091,1290
852.410889,1266
852.528687,1289
852.646545,1304
852.764343,1275
852.88208,1304
852.999939,1293
853.117676,1296
853.235535,1261
853.353271,1286
853.471069,1311
853.588928,1279
853.706604,1273
853.824402,1298
853.9422,1311
854.059998,1289
854.177734,1321
854.295532,1263
854.413269,1282
854.531006,1282
854.648804,1260
854.766541,1291
854.884277,1283
855.002014,1265
855.119751,1270
855.237549,1273
855.355225,1280
855.473022,1284
855.590698,1324
855.708435,1296
855.826172,1280
855.943848,1298
856.061646,1316
856.179321,1305
856.296997,1312
856.414795,1318
856.53241,1295
856.650085,1335
856.767822,1317
856.885559,1314
857.003174,1256
857.120911,1285
857.238586,1314
857.356201,1315
857.473938,1317
857.591614,1310
857.709351,1297
857.826965,1299
857.944641,1314
858.062317,1308
858.179993,1318
858.297668,1301
858.415283,1284
858.532959,1301
858.650574,1317
858.768188,1293
858.885803,1243
859.003479,1289
859.121094,1294
859.23877,1284
859.356384,1291
859.473999,1299
859.591675,1319
859.709229,1294
859.826843,1293
859.944458,1253
860.062012,1274
860.179626,1263
860.297302,1289
860.414856,1308
860.532471,1308
860.650024,1294
860.767639,1286
860.885193,1294
861.002808,1299
861.120361,1284
861.237976,1303
861.35553,1328
861.473022,1273
861.590698,1300
861.708191,1287
861.825745,1315
861.943298,1292
862.060852,1271
862.178406,1302
862.295959,1311
862.413513,1321
862.531006,1295
862.64856,1291
862.766113,1331
862.883667,1307
863.00116,1284
863.118713,1312
863.236206,1319
863.353699,1279
863.471252,1289
863.588745,1335
863.706177,1311
863.82373,1319
863.941162,1316
864.058716,1290
864.176208,1324
864.29364,1275
864.411194,1264
864.528687,1284
864.646118,1357
864.763611,1287
864.881042,1312
864.998535,1280
865.116028,1315
865.233459,1298
865.350891,1297
865.468384,1308
865.585754,1311
865.703308,1282
865.820679,1340
865.938171,1294
866.055542,1282
866.173035,1304
866.290466,1290
866.407837,1324
866.52533,1319
866.6427,1281
866.760071,1282
866.877563,1305
866.994934,1293
867.112305,1296
867.229736,1292
867.347107,1346
867.464539,1308
867.58197,1333
867.699341,1238
867.81665,1310
867.934082,1319
868.051453,1268
868.168823,1289
868.286194,1281
868.403564,1314
868.520935,1334
868.638306,1302
868.755676,1312
868.872986,1324
868.990295,1278
869.107727,1341
869.225037,1309
869.342346,1339
869.459717,1283
869.577026,1282
869.694336,1341
869.811707,1301
869.929016,1318
870.046326,1308
870.163635,1298
870.280945,1329
870.398254,1308
870.515564,1307
870.632812,1331
870.750183,1319
870.867432,1314
870.984741,1298
871.102051,1337
871.219299,1331
871.336609,1317
871.453918,1328
871.571106,1301
871.688416,1334
871.805664,1323
871.922852,1310
872.040222,1309
872.157471,1315
872.274719,1337
872.391968,1302
872.509155,1336
872.626465,1276
872.743652,1339
872.860962,1306
872.978149,1316
873.095337,1309
873.212646,1351
873.329834,1282
873.44696,1328
873.564209,1325
873.681396,1342
873.798645,1325
873.915894,1318
874.03302,1285
874.150208,1332
874.267456,1350
874.384583,1325
874.501831,1309
874.618958,1329
874.736145,1313
874.853333,1311
874.970459,1278
875.087646,1335
875.204834,1308
875.32196,1343
875.439148,1321
875.556274,1347
875.673401,1321
875.790527,1308
875.907715,1295
876.024841,1320
876.141968,1299
876.259094,1302
876.376282,1345
876.493347,1295
876.610474,1319
876.7276,1299
876.844727,1274
876.961853,1342
877.078918,1331
877.195984,1350
877.313171,1323
877.430237,1362
877.547302,1346
877.664368,1336
877.781433,1356
877.898499,1320
878.015625,1341
878.13269,1335
878.249695,1341
878.366821,1311
878.483887,1328
878.600952,1368
878.717957,1328
878.834961,1335
878.952087,1335
879.069092,1321
879.186157,1333
879.303162,1331
879.420227,1315
879.537231,1341
879.654236,1329
879.77124,1347
879.888306,1319
880.005249,1332
880.122314,1340
880.239319,1309
880.356323,1343
880.473328,1337
880.590271,1307
880.707275,1326
880.824341,1352
880.941284,1361
881.058228,1328
881.175232,1331
881.292236,1316
881.40918,1307
881.526123,1323
881.643066,1346
881.760071,1333
881.877014,1378
881.993958,1310
882.11084,1347
882.227783,1372
882.344727,1356
882.46167,1366
882.578613,1339
882.695618,1375
882.812439,1342
882.929382,1336
883.046326,1334
883.163208,1359
883.280151,1315
883.397034,1346
883.513916,1391
883.630798,1307
883.747742,1379
883.864563,1305
883.981506,1368
884.098389,1324
884.21521,1361
884.332153,1363
884.448975,1370
884.565796,1298
884.682678,1350
884.7995,1332
884.916443,1402
885.033264,1323
885.150085,1347
885.266968,1340
885.383789,1353
885.500671,1351
885.617493,1338
885.734314,1330
885.851196,1350
885.967896,1351
886.084717,1335
886.201599,1335
886.318359,1359
886.435181,1358
886.552002,1323
886.668762,1379
886.785645,1347
886.902344,1361
887.019165,1355
887.135925,1310
887.252747,1373
887.369446,1377
887.486267,1361
887.603027,1393
887.719788,1346
887.836548,1334
887.953247,1349
888.070068,1379
888.186829,1356
888.303528,1350
888.420288,1373
888.536987,1318
888.653687,1337
888.770447,1391
888.887146,1339
889.003967,1380
889.120667,1357
889.237305,1343
889.354065,1345
889.470703,1368
889.587463,1347
889.704163,1406
889.820862,1361
889.937561,1427
890.054199,1356
890.170837,1386
890.287598,1391
890.404236,1365
890.520874,1362
890.637634,1378
890.754211,1375
890.87085,1374
890.987549,1419
891.104187,1376
891.220886,1354
891.337463,1320
891.454102,1358
891.57074,1383
891.687378,1400
891.804077,1378
891.920654,1371
892.037231,1383
892.15387,1396
892.270447,1379
892.387085,1357
892.503723,1381
892.6203,1348
892.736877,1380
892.853516,1365
892.970032,1410
893.08667,1373
893.203186,1373
893.319763,1373
893.43634,1364
893.552917,1361
893.669556,1374
893.786011,1425
893.902588,1367
894.019165,1362
894.135681,1381
894.252197,1345
894.368835,1374
894.485291,1416
894.601868,1381
894.718384,1430
894.8349,1365
894.951355,1414
895.067932,1411
895.184448,1378
895.300964,1415
895.417419,1379
895.533936,1447
895.650452,1370
895.766907,1398
895.883423,1398
895.999878,1412
896.116333,1413
896.232849,1374
896.349304,1378
896.465759,1383
896.582214,1385
896.698669,1410
896.815125,1357
896.931641,1378
897.048035,1397
897.164551,1412
897.280884,1410
897.397339,1398
897.513794,1395
897.630249,1402
897.746582,1405
897.863098,1375
897.979431,1391
898.095886,1377
898.212341,1393
898.328674,1385
898.445129,1457
898.561462,1364
898.677795,1428
898.794312,1396
898.910645,1390
899.026978,1421
899.143433,1375
899.259766,1405
899.37616,1358
899.492493,1419
899.608765,1393
899.725159,1418
899.841553,1410
899.957947,1383
900.07428,1436
900.190552,1386
900.306946,1454
900.423157,1389
900.53949,1390
900.655884,1414
900.772156,1397
900.888489,1404
901.004822,1403
901.121033,1378
901.237366,1412
901.353699,1418
901.46991,1406
901.586304,1387
901.702515,1389
901.818787,1419
901.93512,1414
902.051331,1434
902.167603,1396
902.283875,1430
902.400085,1382
902.516418,1426
902.632629,1382
902.74884,1419
902.865112,1395
902.981384,1419
903.097595,1395
903.213867,1418
903.330017,1374
903.446289,1424
903.5625,1396
903.67865,1400
903.794922,1412
903.911072,1401
904.027344,1400
904.143494,1449
904.259705,1400
904.375916,1400
904.492065,1403
904.608215,1388
904.724426,1379
904.840576,1364
904.956726,1386
905.072876,1401
905.189087,1396
905.305176,1385
905.421387,1368
905.537537,1426
905.653687,1399
905.769775,1412
905.885925,1420
906.002014,1349
906.118164,1386
906.234314,1424
906.350403,1380
906.466492,1423
906.582642,1435
906.69873,1416
906.814758,1435
906.930908,1412
907.046936,1438
907.163086,1381
907.279175,1390
907.395264,1391
907.511353,1357
907.62738,1445
907.743408,1398
907.859497,1444
907.975525,1406
908.091553,1387
908.207703,1430
908.32373,1429
908.439758,1473
908.555786,1452
908.671814,1447
908.787842,1427
908.90387,1385
909.019775,1424
909.135864,1412
909.251892,1407
909.367859,1426
909.483826,1414
909.599854,1412
909.715881,1444
909.831848,1432
909.947815,1445
910.063782,1410
910.179749,1440
910.295776,1392
910.411743,1443
910.527649,1426
910.643616,1417
910.759583,1389
910.875488,1465
910.991455,1397
911.107361,1447
911.223267,1419
911.339294,1427
911.4552,1425
911.571106,1427
911.687073,1452
911.802979,1440
911.918823,1432
912.034729,1426
912.150635,1424
912.266602,1405
912.382446,1440
912.498352,1425
912.614197,1401
912.730103,1437
912.846008,1441
792.44574,1621
792.56488,1644
792.68396,1628
792.80304,1685
792.92218,1605
793.041199,1572
793.160339,1530
793.279419,1579
793.398499,1560
793.517578,1616
793.636658,1606
793.755737,1566
793.874817,1573
793.993896,1602
794.112976,1547
794.232056,1528
794.351074,1610
794.470215,1559
794.589233,1603
794.708313,1546
794.827393,1530
794.946411,1529
795.065552,1526
795.18457,1554
795.303589,1560
795.422668,1502
795.541687,1528
795.660767,1521
795.779846,1526
795.898865,1510
796.017883,1508
796.136963,1507
796.255981,1536
796.375061,1499
796.49408,1525
796.613037,1518
796.732117,1500
796.851135,1559
796.970154,1527
797.089233,1479
797.208191,1477
797.327271,1511
797.446228,1503
797.565186,1529
797.684265,1465
797.803223,1490
797.922241,1541
798.04126,1539
798.160278,1469
798.279297,1497
798.398315,1477
798.517273,1524
798.636292,1474
798.75531,1511
798.874268,1556
798.993286,1519
799.112244,1452
799.231323,1516
799.350281,1481
799.469238,1463
799.588257,1512
799.707153,1482
799.826111,1520
799.945129,1497
800.064087,1470
800.183044,1468
800.302063,1486
800.421021,1489
800.539978,1469
800.658936,1536
800.777893,1491
800.896912,1512
801.015747,1456
801.134705,1480
801.253723,1515
801.37262,1453
801.491638,1475
801.610535,1485
801.729492,1476
801.84845,1427
801.967407,1496
802.086243,1475
802.205261,1462
802.324158,1494
802.443115,1464
802.562073,1491
802.680969,1487
802.799927,1475
802.918762,1489
803.037659,1454
803.156677,1497
803.275574,1472
803.39447,1470
803.513428,1459
803.632263,1476
803.751221,1496
803.870117,1466
803.989014,1460
804.107971,1500
804.226746,1492
804.345642,1477
804.4646,1526
804.583496,1428
804.702393,1477
804.821228,1467
804.940125,1477
805.059021,1471
805.177917,1468
805.296814,1500
805.415649,1482
805.534546,1464
805.653442,1460
805.772278,1482
805.891113,1484
806.01001,1488
806.128906,1487
806.247742,1467
806.366577,1484
806.485413,1513
806.604309,1487
806.723145,1468
806.84198,1534
806.960876,1442
807.079712,1494
807.198486,1483
807.317383,1470
807.436218,1488
807.554993,1491
807.673889,1470
807.792725,1503
807.91156,1486
808.030396,1482
808.14917,1424
808.268005,1455
808.386841,1486
808.505676,1474
808.624451,1497
808.743286,1499
808.862122,1461
808.980896,1515
809.099731,1459
809.218506,1447
809.337341,1445
809.456116,1478
809.57489,1468
809.693726,1514
809.8125,1487
809.931274,1476
810.050049,1429
810.168884,1498
810.287659,1474
810.406372,1502
810.525269,1499
810.643982,1459
810.762756,1458
810.881531,1449
811.000305,1509
811.11908,1464
811.237854,1465
811.356567,1464
811.475403,1450
811.594116,1454
811.71283,1457
811.831604,1475
811.950378,1497
812.069153,1489
812.187927,1492
812.30658,1477
812.425415,1454
812.544128,1515
812.662781,1473
812.781616,1497
812.900269,1444
813.019043,1456
813.137756,1466
813.256531,1432
813.375244,1456
813.493896,1445
813.612671,1475
813.731384,1460
813.850037,1476
813.96875,1439
814.087524,1451
814.206238,1466
814.324951,1432
814.443604,1443
814.562256,1484
814.68103,1455
814.799683,1462
814.918335,1470
815.037109,1461
815.155762,1410
815.274475,1410
815.393188,1462
815.511841,1449
815.630554,1464
815.749146,1456
815.867859,1463
815.986572,1424
816.105164,1418
816.223877,1407
816.342529,1427
816.461182,1458
816.579895,1421
816.698486,1454
816.817139,1474
816.935791,1455
817.054504,1473
817.173096,1421
817.291748,1395
817.4104,1436
817.529053,1437
817.647644,1464
817.766235,1415
817.884949,1402
818.00354,1432
818.122192,1425
818.240845,1412
818.359436,1377
818.478088,1449
818.59668,1409
818.715271,1401
818.833923,1388
818.952515,1393
819.071106,1411
819.189758,1368
819.30835,1382
819.426941,1362
819.545532,1376
819.664124,1339
819.782715,1343
819.901306,1343
820.019897,1374
820.138489,1382
820.25708,1377
820.375671,1371
820.494202,1363
820.612732,1383
820.731384,1374
820.849915,1395
820.968506,1387
821.087097,1349
821.205627,1377
821.324158,1348
821.442749,1386
821.561279,1331
821.679871,1324
821.798401,1330
821.916931,1361
822.035461,1346
822.154053,1356
822.272583,1308
822.391174,1365
822.509583,1371
822.628174,1352
822.746704,1321
822.865234,1353
822.983765,1355
823.102295,1401
823.220825,1333
823.339294,1366
823.457825,1337
823.576355,1353
823.694824,1352
823.813354,1347
823.931885,1362
824.050354,1344
824.168884,1344
824.287354,1348
824.405823,1333
824.524353,1306
824.642822,1332
824.761353,1354
824.879822,1349
824.998291,1334
825.116699,1385
825.235291,1347
825.353699,1319
825.472168,1306
825.590637,1318
825.709106,1354
825.827576,1315
825.946045,1299
826.064453,1323
826.182983,1304
826.301392,1321
826.4198,1358
826.53833,1324
826.656738,1319
826.775208,1323
826.893677,1333
827.012024,1296
827.130493,1354
827.248962,1336
827.36731,1284
827.485779,1337
827.604248,1339
827.722595,1326
827.841064,1303
827.959412,1312
828.077942,1341
828.196289,1328
828.314636,1311
828.433105,1351
828.551514,1329
828.669861,1324
828.78833,1309
828.906677,1301
829.025085,1314
829.143433,1314
829.261841,1295
829.38031,1294
829.498657,1325
829.617004,1299
829.735413,1337
829.85376,1329
829.972107,1293
830.090515,1301
830.208862,1367
830.327209,1272
830.445557,1351
830.563904,1292
830.682312,1335
830.800659,1316
830.919006,1337
831.037354,1319
831.155701,1322
831.274048,1316
831.392395,1326
831.51062,1309
831.629028,1276
831.747314,1360
831.865662,1284
831.984009,1322
832.102356,1324
832.220642,1302
832.338928,1332
832.457275,1364
832.575623,1311
832.693909,1312
832.812134,1317
832.930481,1306
833.048828,1304
833.167114,1340
833.2854,1297
833.403687,1308
833.521973,1314
833.640259,1316
833.758545,1302
833.876831,1329
833.995056,1313
834.113281,1297
834.231628,1288
834.349915,1266
834.468201,1299
834.586426,1300
834.704651,1318
834.822998,1295
834.941162,1300
835.059448,1314
835.177673,1277
835.295959,1291
835.414246,1314
835.53241,1296
835.650635,1332
835.768921,1318
835.887146,1293
836.005371,1317
836.123596,1291
836.241821,1319
836.360046,1280
836.478271,1289
836.596497,1301
836.714722,1300
836.832886,1343
836.95105,1252
837.069336,1307
837.1875,1311
837.305725,1352
837.423889,1318
837.542053,1353
837.660339,1313
837.778503,1299
837.896667,1274
838.014832,1306
838.132996,1267
838.25116,1280
838.369385,1317
838.487488,1304
838.605713,1299
838.723877,1283
838.84198,1284
838.960205,1274
839.078308,1278
839.196472,1290
839.314636,1285
839.4328,1301
839.550964,1334
839.669067,1291
839.787231,1293
839.905396,1306
840.023499,1280
840.141602,1312
840.259766,1308
840.377869,1308
840.495972,1284
840.614136,1331
840.732239,1301
840.850342,1309
840.968445,1316
841.086548,1306
841.204651,1266
841.322754,1302
841.440918,1276
841.55896,1310
841.677002,1277
841.795166,1303
841.913208,1309
842.031311,1263
842.149353,1283
842.267456,1307
842.385498,1297
842.503601,1322
842.621643,1292
842.739746,1301
842.857788,1300
842.97583,1276
843.093933,1296
843.211975,1283
843.330017,1259
843.44812,1269
843.566101,1292
843.684204,1293
843.802246,1286
843.920227,1288
844.038269,1337
844.156311,1275
844.274292,1280
844.392395,1282
844.510376,1307
844.628357,1285
844.74646,1305
844.864441,1286
844.982422,1279
845.100403,1342
845.218384,1302
845.336426,1289
845.454468,1298
845.572449,1287
845.69043,1288
845.808411,1279
845.926453,1260
846.044373,1256
846.162354,1304
846.280396,1310
846.398315,1320
846.516296,1257
846.634216,1267
846.752197,1305
846.870178,1275
846.988098,1294
847.106079,1287
847.22406,1341
847.34198,1254
847.4599,1300
847.577881,1311
847.695801,1319
847.813782,1290
847.931641,1288
848.049561,1261
848.167603,1285
848.285461,1323
848.403381,1300
848.521362,1250
848.639221,1273
848.75708,1309
848.875,1290
848.99292,1291
849.110901,1270
849.22876,1338
849.34668,1292
849.464539,1290
849.582458,1297
849.700317,1298
849.818176,1278
849.936096,1268
850.053955,1322
850.171875,1290
850.289673,1325
850.407593,1241
850.525452,1293
850.643311,1278
850.761169,1299
850.878967,1304
850.996887,1293
851.114746,1290
851.232544,1282
851.350403,1336
851.468262,1262
851.58606,1313
851.703979,1285
851.821777,1285
851.939636,1257
852.057434,1309
852.175232,1316
852.293091,1273
852.410889,1297
852.528687,1313
852.646545,1255
852.764343,1306
852.88208,1304
852.999939,1281
853.117676,1333
853.235535,1264
853.353271,1331
853.471069,1305
853.588928,1287
853.706604,1271
853.824402,1304
853.9422,1290
854.059998,1271
854.177734,1275
854.295532,1295
854.413269,1278
854.531006,1302
854.648804,1278
854.766541,1276
854.884277,1288
855.002014,1301
855.119751,1287
855.237549,1305
855.355225,1316
855.473022,1267
855.590698,1275
855.708435,1294
855.826172,1264
855.943848,1341
856.061646,1286
856.179321,1286
856.296997,1324
856.414795,1299
856.53241,1303
856.650085,1313
856.767822,1291
856.885559,1320
857.003174,1337
857.120911,1327
857.238586,1281
857.356201,1300
857.473938,1289
857.591614,1309
857.709351,1298
857.826965,1338
857.944641,1292
858.062317,1306
858.179993,1276
858.297668,1297
858.415283,1299
858.532959,1298
858.650574,1345
858.768188,1311
858.885803,1339
859.003479,1347
859.121094,1286
859.23877,1332
859.356384,1308
859.473999,1308
859.591675,1318
859.709229,1315
859.826843,1299
859.944458,1287
860.062012,1283
860.179626,1280
860.297302,1328
860.414856,1306
860.532471,1262
860.650024,1320
860.767639,1325
860.885193,1283
861.002808,1287
861.120361,1309
861.237976,1295
861.35553,1347
861.473022,1291
861.590698,1301
861.708191,1334
861.825745,1312
861.943298,1259
862.060852,1318
862.178406,1329
862.295959,1289
862.413513,1314
862.531006,1308
862.64856,1321
862.766113,1303
862.883667,1325
863.00116,1277
863.118713,1340
863.236206,1283
863.353699,1278
863.471252,1297
863.588745,1322
863.706177,1278
863.82373,1306
863.941162,1310
864.058716,1322
864.176208,1313
864.29364,1269
864.411194,1327
864.528687,1298
864.646118,1319
864.763611,1311
864.881042,1320
864.998535,1303
865.116028,1350
865.233459,1303
865.350891,1303
865.468384,1318
865.585754,1348
865.703308,1280
865.820679,1314
865.938171,1338
866.055542,1318
866.173035,1282
866.290466,1299
866.407837,1327
866.52533,1320
866.6427,1307
866.760071,1308
866.877563,1344
866.994934,1311
867.112305,1292
867.229736,1344
867.347107,1331
867.464539,1323
867.58197,1330
867.699341,1315
867.81665,1316
867.934082,1305
868.051453,1312
868.168823,1315
868.286194,1349
868.403564,1317
868.520935,1320
868.638306,1320
868.755676,1335
868.872986,1308
868.990295,1301
869.107727,1317
869.225037,1349
869.342346,1282
869.459717,1324
869.577026,1288
869.694336,1312
869.811707,1298
869.929016,1299
870.046326,1330
870.163635,1315
870.280945,1304
870.398254,1315
870.515564,1317
870.632812,1322
870.750183,1291
870.867432,1355
870.984741,1309
871.102051,1295
871.219299,1345
871.336609,1272
871.453918,1319
871.571106,1310
871.688416,1324
871.805664,1292
871.922852,1329
872.040222,1330
872.157471,1347
872.274719,1318
872.391968,1322
872.509155,1357
872.626465,1316
872.743652,1356
872.860962,1302
872.978149,1343
873.095337,1314
873.212646,1342
873.329834,1306
873.44696,1323
873.564209,1306
873.681396,1334
873.798645,1294
873.915894,1302
874.03302,1322
874.150208,1311
874.267456,1324
874.384583,1341
874.501831,1317
874.618958,1316
874.736145,1320
874.853333,1321
874.970459,1362
875.087646,1333
875.204834,1355
875.32196,1326
875.439148,1344
875.556274,1333
875.673401,1377
875.790527,1314
875.907715,1292
876.024841,1285
876.141968,1341
876.259094,1350
876.376282,1291
876.493347,1320
876.610474,1332
876.7276,1367
876.844727,1352
876.961853,1338
877.078918,1290
877.195984,1339
877.313171,1368
877.430237,1361
877.547302,1323
877.664368,1361
877.781433,1341
877.898499,1382
878.015625,1319
878.13269,1308
878.249695,1329
878.366821,1309
878.483887,1321
878.600952,1323
878.717957,1360
878.834961,1370
878.952087,1373
879.069092,1312
879.186157,1335
879.303162,1362
879.420227,1344
879.537231,1360
879.654236,1362
879.77124,1335
879.888306,1303
880.005249,1341
880.122314,1365
880.239319,1303
880.356323,1308
880.473328,1365
880.590271,1309
880.707275,1348
880.824341,1320
880.941284,1349
881.058228,1316
881.175232,1334
881.292236,1322
881.40918,1329
881.526123,1332
881.643066,1319
881.760071,1353
881.877014,1358
881.993958,1339
882.11084,1392
882.227783,1278
882.344727,1343
882.46167,1344
882.578613,1341
882.695618,1356
882.812439,1333
882.929382,1350
883.046326,1349
883.163208,1366
883.280151,1339
883.397034,1337
883.513916,1317
883.630798,1333
883.747742,1335
883.864563,1349
883.981506,1362
884.098389,1310
884.21521,1338
884.332153,1341
884.448975,1336
884.565796,1336
884.682678,1352
884.7995,1350
884.916443,1361
885.033264,1368
885.150085,1349
885.266968,1350
885.383789,1328
885.500671,1366
885.617493,1333
885.734314,1343
885.851196,1381
885.967896,1390
886.084717,1373
886.201599,1304
886.318359,1381
886.435181,1357
886.552002,1364
886.668762,1395
886.785645,1367
886.902344,1380
887.019165,1360
887.135925,1350
887.252747,1353
887.369446,1381
887.486267,1405
887.603027,1358
887.719788,1374
887.836548,1343
887.953247,1336
888.070068,1380
888.186829,1378
888.303528,1382
888.420288,1329
888.536987,1419
888.653687,1349
888.770447,1338
888.887146,1397
889.003967,1316
889.120667,1410
889.237305,1414
889.354065,1388
889.470703,1328
889.587463,1387
889.704163,1368
889.820862,1359
889.937561,1380
890.054199,1371
890.170837,1448
890.287598,1340
890.404236,1348
890.520874,1419
890.637634,1340
890.754211,1388
890.87085,1358
890.987549,1361
891.104187,1360
891.220886,1374
891.337463,1372
891.454102,1353
891.57074,1383
891.687378,1367
891.804077,1370
891.920654,1359
892.037231,1384
892.15387,1386
892.270447,1350
892.387085,1414
892.503723,1395
892.6203,1345
892.736877,1347
892.853516,1400
892.970032,1411
893.08667,1388
893.203186,1363
893.319763,1384
893.43634,1383
893.552917,1381
893.669556,1377
893.786011,1361
893.902588,1411
894.019165,1376
894.135681,1371
894.252197,1396
894.368835,1405
894.485291,1398
894.601868,1373
894.718384,1403
894.8349,1389
894.951355,1395
895.067932,1412
895.184448,1379
895.300964,1394
895.417419,1374
895.533936,1368
895.650452,1378
895.766907,1419
895.883423,1375
895.999878,1415
896.116333,1376
896.232849,1449
896.349304,1363
896.465759,1419
896.582214,1391
896.698669,1429
896.815125,1367
896.931641,1409
897.048035,1357
897.164551,1406
897.280884,1379
897.397339,1394
897.513794,1408
897.630249,1401
897.746582,1388
897.863098,1390
897.979431,1403
898.095886,1418
898.212341,1427
898.328674,1397
898.445129,1406
898.561462,1386
898.677795,1413
898.794312,1393
898.910645,1412
899.026978,1388
899.143433,1380
899.259766,1387
899.37616,1426
899.492493,1417
899.608765,1398
899.725159,1415
899.841553,1406
899.957947,1409
900.07428,1425
900.190552,1390
900.306946,1360
900.423157,1400
900.53949,1402
900.655884,1412
900.772156,1397
900.888489,1420
901.004822,1385
901.121033,1412
901.237366,1377
901.353699,1403
901.46991,1412
901.586304,1414
901.702515,1410
901.818787,1418
901.93512,1407
902.051331,1403
902.167603,1408
902.283875,1424
902.400085,1380
902.516418,1470
902.632629,1393
902.74884,1438
902.865112,1427
902.981384,1424
903.097595,1417
903.213867,1393
903.330017,1364
903.446289,1468
903.5625,1428
903.67865,1435
903.794922,1446
903.911072,1413
904.027344,1427
904.143494,1410
904.259705,1383
904.375916,1434
904.492065,1411
904.608215,1422
904.724426,1409
904.840576,1404
904.956726,1386
905.072876,1427
905.189087,1409
905.305176,1452
905.421387,1437
905.537537,1413
905.653687,1421
905.769775,1450
905.885925,1475
906.002014,1452
906.118164,1411
906.234314,1416
906.350403,1456
906.466492,1409
906.582642,1409
906.69873,1416
906.814758,1438
906.930908,1432
907.046936,1426
907.163086,1421
907.279175,1419
907.395264,1460
907.511353,1444
907.62738,1459
907.743408,1431
907.859497,1428
907.975525,1438
908.091553,1407
908.207703,1427
908.32373,1398
908.439758,1425
908.555786,1464
908.671814,1451
908.787842,1431
908.90387,1403
909.019775,1417
909.135864,1445
909.251892,1453
909.367859,1487
909.483826,1452
909.599854,1414
909.715881,1448
909.831848,1454
909.947815,1440
910.063782,1383
910.179749,1458
910.295776,1426
910.411743,1407
910.527649,1484
910.643616,1463
910.759583,1448
910.875488,1441
910.991455,1446
911.107361,1474
911.223267,1420
911.339294,1450
911.4552,1432
911.571106,1421
911.687073,1494
911.802979,1411
911.918823,1435
912.034729,1461
912.150635,1449
912.266602,1446
912.382446,1502
912.498352,1415
912.614197,1464
912.730103,1453
912.846008,1455
