792.44574,2228
792.56488,2213
792.68396,2195
792.80304,2105
792.92218,2126
793.041199,2058
793.160339,2088
793.279419,2051
793.398499,2067
793.517578,1999
793.636658,1974
793.755737,2026
793.874817,2002
793.993896,1951
794.112976,1933
794.232056,1936
794.351074,1928
794.470215,1889
794.589233,1901
794.708313,1865
794.827393,1842
794.946411,1876
795.065552,1826
795.18457,1788
795.303589,1802
795.422668,1875
795.541687,1832
795.660767,1849
795.779846,1803
795.898865,1797
796.017883,1764
796.136963,1819
796.255981,1772
796.375061,1816
796.49408,1790
796.613037,1788
796.732117,1770
796.851135,1726
796.970154,1755
797.089233,1740
797.208191,1794
797.327271,1737
797.446228,1732
797.565186,1781
797.684265,1739
797.803223,1754
797.922241,1705
798.04126,1712
798.160278,1709
798.279297,1684
798.398315,1748
798.517273,1659
798.636292,1668
798.75531,1704
798.874268,1669
798.993286,1715
799.112244,1675
799.231323,1664
799.350281,1713
799.469238,1739
799.588257,1690
799.707153,1654
799.826111,1701
799.945129,1685
800.064087,1711
800.183044,1719
800.302063,1689
800.421021,1713
800.539978,1710
800.658936,1721
800.777893,1666
800.896912,1759
801.015747,1704
801.134705,1688
801.253723,1707
801.37262,1692
801.491638,1777
801.610535,1640
801.729492,1700
801.84845,1708
801.967407,1635
802.086243,1668
802.205261,1701
802.324158,1681
802.443115,1750
802.562073,1638
802.680969,1694
802.799927,1671
802.918762,1709
803.037659,1704
803.156677,1679
803.275574,1640
803.39447,1709
803.513428,1640
803.632263,1673
803.751221,1697
803.870117,1635
803.989014,1695
804.107971,1681
804.226746,1631
804.345642,1696
804.4646,1667
804.583496,1661
804.702393,1662
804.821228,1681
804.940125,1697
805.059021,1665
805.177917,1656
805.296814,1666
805.415649,1660
805.534546,1692
805.653442,1707
805.772278,1625
805.891113,1663
806.01001,1644
806.128906,1673
806.247742,1690
806.366577,1666
806.485413,1667
806.604309,1708
806.723145,1686
806.84198,1672
806.960876,1699
807.079712,1666
807.198486,1645
807.317383,1664
807.436218,1656
807.554993,1695
807.673889,1674
807.792725,1619
807.91156,1668
808.030396,1677
808.14917,1727
808.268005,1705
808.386841,1684
808.505676,1677
808.624451,1687
808.743286,1698
808.862122,1647
808.980896,1690
809.099731,1721
809.218506,1643
809.337341,1644
809.456116,1654
809.57489,1685
809.693726,1675
809.8125,1642
809.931274,1703
810.050049,1627
810.168884,1655
810.287659,1638
810.406372,1683
810.525269,1683
810.643982,1659
810.762756,1641
810.881531,1722
811.000305,1677
811.11908,1602
811.237854,1646
811.356567,1649
811.475403,1711
811.594116,1671
811.71283,1669
811.831604,1670
811.950378,1729
812.069153,1636
812.187927,1715
812.30658,1615
812.425415,1720
812.544128,1663
812.662781,1623
812.781616,1669
812.900269,1678
813.019043,1685
813.137756,1705
813.256531,1682
813.375244,1672
813.493896,1636
813.612671,1620
813.731384,1660
813.850037,1653
813.96875,1599
814.087524,1666
814.206238,1606
814.324951,1640
814.443604,1664
814.562256,1651
814.68103,1615
814.799683,1625
814.918335,1629
815.037109,1608
815.155762,1621
815.274475,1629
815.393188,1593
815.511841,1609
815.630554,1628
815.749146,1590
815.867859,1605
815.986572,1609
816.105164,1585
816.223877,1665
816.342529,1596
816.461182,1631
816.579895,1625
816.698486,1604
816.817139,1640
816.935791,1630
817.054504,1573
817.173096,1606
817.291748,1607
817.4104,1590
817.529053,1558
817.647644,1591
817.766235,1555
817.884949,1554
818.00354,1524
818.122192,1592
818.240845,1531
818.359436,1535
818.478088,1525
818.59668,1495
818.715271,1493
818.833923,1484
818.952515,1484
819.071106,1474
819.189758,1486
819.30835,1442
819.426941,1457
819.545532,1502
819.664124,1456
819.782715,1458
819.901306,1437
820.019897,1428
820.138489,1453
820.25708,1453
820.375671,1385
820.494202,1461
820.612732,1418
820.731384,1419
820.849915,1431
820.968506,1385
821.087097,1404
821.205627,1397
821.324158,1402
821.442749,1440
821.561279,1414
821.679871,1433
821.798401,1428
821.916931,1424
822.035461,1419
822.154053,1375
822.272583,1410
822.391174,1366
822.509583,1338
822.628174,1419
822.746704,1385
822.865234,1367
822.983765,1353
823.102295,1381
823.220825,1406
823.339294,1399
823.457825,1380
823.576355,1384
823.694824,1393
823.813354,1371
823.931885,1348
824.050354,1408
824.168884,1385
824.287354,1386
824.405823,1387
824.524353,1432
824.642822,1389
824.761353,1404
824.879822,1389
824.998291,1402
825.116699,1389
825.235291,1391
825.353699,1419
825.472168,1400
825.590637,1369
825.709106,1374
825.827576,1341
825.946045,1350
826.064453,1360
826.182983,1357
826.301392,1358
826.4198,1335
826.53833,1347
826.656738,1364
826.775208,1356
826.893677,1353
827.012024,1352
827.130493,1333
827.248962,1361
827.36731,1324
827.485779,1317
827.604248,1361
827.722595,1346
827.841064,1347
827.959412,1343
828.077942,1378
828.196289,1299
828.314636,1334
828.433105,1311
828.551514,1333
828.669861,1343
828.78833,1354
828.906677,1353
829.025085,1331
829.143433,1356
829.261841,1375
829.38031,1311
829.498657,1314
829.617004,1320
829.735413,1378
829.85376,1343
829.972107,1320
830.090515,1285
830.208862,1325
830.327209,1356
830.445557,1371
830.563904,1303
830.682312,1332
830.800659,1324
830.919006,1300
831.037354,1290
831.155701,1322
831.274048,1331
831.392395,1380
831.51062,1317
831.629028,1321
831.747314,1361
831.865662,1301
831.984009,1330
832.102356,1302
832.220642,1345
832.338928,1363
832.457275,1374
832.575623,1341
832.693909,1290
832.812134,1336
832.930481,1354
833.048828,1338
833.167114,1326
833.2854,1329
833.403687,1313
833.521973,1368
833.640259,1291
833.758545,1319
833.876831,1347
833.995056,1356
834.113281,1330
834.231628,1328
834.349915,1296
834.468201,1358
834.586426,1325
834.704651,1334
834.822998,1304
834.941162,1347
835.059448,1314
835.177673,1359
835.295959,1306
835.414246,1351
835.53241,1301
835.650635,1335
835.768921,1320
835.887146,1364
836.005371,1303
836.123596,1349
836.241821,1366
836.360046,1318
836.478271,1324
836.596497,1360
836.714722,1337
836.832886,1400
836.95105,1290
837.069336,1332
837.1875,1305
837.305725,1326
837.423889,1323
837.542053,1314
837.660339,1306
837.778503,1340
837.896667,1344
838.014832,1357
838.132996,1363
838.25116,1320
838.369385,1354
838.487488,1369
838.605713,1313
838.723877,1372
838.84198,1358
838.960205,1341
839.078308,1339
839.196472,1346
839.314636,1322
839.4328,1350
839.550964,1323
839.669067,1410
839.787231,1332
839.905396,1334
840.023499,1351
840.141602,1363
840.259766,1327
840.377869,1362
840.495972,1375
840.614136,1346
840.732239,1373
840.850342,1357
840.968445,1378
841.086548,1337
841.204651,1360
841.322754,1357
841.440918,1356
841.55896,1365
841.677002,1322
841.795166,1401
841.913208,1402
842.031311,1351
842.149353,1337
842.267456,1341
842.385498,1364
842.503601,1361
842.621643,1387
842.739746,1314
842.857788,1383
842.97583,1329
843.093933,1340
843.211975,1335
843.330017,1330
843.44812,1357
843.566101,1378
843.684204,1354
843.802246,1369
843.920227,1338
844.038269,1369
844.156311,1369
844.274292,1316
844.392395,1400
844.510376,1288
844.628357,1370
844.74646,1358
844.864441,1363
844.982422,1345
845.100403,1378
845.218384,1327
845.336426,1343
845.454468,1336
845.572449,1337
845.69043,1304
845.808411,1321
845.926453,1330
846.044373,1337
846.162354,1379
846.280396,1357
846.398315,1337
846.516296,1347
846.634216,1325
846.752197,1327
846.870178,1329
846.988098,1328
847.106079,1346
847.22406,1344
847.34198,1371
847.4599,1347
847.577881,1359
847.695801,1366
847.813782,1387
847.931641,1332
848.049561,1333
848.167603,1322
848.285461,1351
848.403381,1360
848.521362,1351
848.639221,1326
848.75708,1317
848.875,1369
848.99292,1315
849.110901,1327
849.22876,1352
849.34668,1354
849.464539,1353
849.582458,1395
849.700317,1345
849.818176,1367
849.936096,1374
850.053955,1380
850.171875,1329
850.289673,1356
850.407593,1356
850.525452,1351
850.643311,1387
850.761169,1362
850.878967,1354
850.996887,1363
851.114746,1355
851.232544,1390
851.350403,1364
851.468262,1366
851.58606,1383
851.703979,1355
851.821777,1426
851.939636,1383
852.057434,1381
852.175232,1334
852.293091,1344
852.410889,1346
852.528687,1390
852.646545,1385
852.764343,1345
852.88208,1399
852.999939,1329
853.117676,1357
853.235535,1359
853.353271,1366
853.471069,1363
853.588928,1337
853.706604,1350
853.824402,1341
853.9422,1311
854.059998,1341
854.177734,1362
854.295532,1319
854.413269,1345
854.531006,1312
854.648804,1403
854.766541,1365
854.884277,1356
855.002014,1365
855.119751,1320
855.237549,1346
855.355225,1342
855.473022,1351
855.590698,1356
855.708435,1346
855.826172,1330
855.943848,1373
856.061646,1363
856.179321,1332
856.296997,1336
856.414795,1350
856.53241,1340
856.650085,1341
856.767822,1395
856.885559,1350
857.003174,1384
857.120911,1354
857.238586,1347
857.356201,1374
857.473938,1340
857.591614,1358
857.709351,1351
857.826965,1355
857.944641,1329
858.062317,1331
858.179993,1359
858.297668,1369
858.415283,1444
858.532959,1371
858.650574,1360
858.768188,1408
858.885803,1381
859.003479,1329
859.121094,1372
859.23877,1348
859.356384,1364
859.473999,1359
859.591675,1370
859.709229,1378
859.826843,1337
859.944458,1353
860.062012,1333
860.179626,1319
860.297302,1366
860.414856,1331
860.532471,1355
860.650024,1344
860.767639,1316
860.885193,1332
861.002808,1355
861.120361,1386
861.237976,1335
861.35553,1342
861.473022,1374
861.590698,1341
861.708191,1349
861.825745,1353
861.943298,1360
862.060852,1330
862.178406,1354
862.295959,1329
862.413513,1347
862.531006,1322
862.64856,1316
862.766113,1314
862.883667,1287
863.00116,1338
863.118713,1320
863.236206,1315
863.353699,1352
863.471252,1348
863.588745,1344
863.706177,1322
863.82373,1352
863.941162,1369
864.058716,1355
864.176208,1370
864.29364,1375
864.411194,1355
864.528687,1346
864.646118,1346
864.763611,1348
864.881042,1348
864.998535,1350
865.116028,1347
865.233459,1348
865.350891,1372
865.468384,1370
865.585754,1322
865.703308,1337
865.820679,1310
865.938171,1355
866.055542,1341
866.173035,1344
866.290466,1337
866.407837,1351
866.52533,1334
866.6427,1351
866.760071,1338
866.877563,1385
866.994934,1353
867.112305,1361
867.229736,1345
867.347107,1328
867.464539,1351
867.58197,1359
867.699341,1400
867.81665,1361
867.934082,1344
868.051453,1400
868.168823,1341
868.286194,1337
868.403564,1381
868.520935,1379
868.638306,1335
868.755676,1351
868.872986,1396
868.990295,1359
869.107727,1354
869.225037,1367
869.342346,1326
869.459717,1353
869.577026,1364
869.694336,1337
869.811707,1358
869.929016,1384
870.046326,1373
870.163635,1359
870.280945,1353
870.398254,1382
870.515564,1382
870.632812,1373
870.750183,1379
870.867432,1368
870.984741,1359
871.102051,1364
871.219299,1359
871.336609,1381
871.453918,1345
871.571106,1393
871.688416,1393
871.805664,1381
871.922852,1428
872.040222,1397
872.157471,1397
872.274719,1399
872.391968,1399
872.509155,1423
872.626465,1408
872.743652,1354
872.860962,1426
872.978149,1331
873.095337,1396
873.212646,1440
873.329834,1406
873.44696,1349
873.564209,1399
873.681396,1360
873.798645,1382
873.915894,1353
874.03302,1392
874.150208,1364
874.267456,1408
874.384583,1383
874.501831,1417
874.618958,1367
874.736145,1389
874.853333,1371
874.970459,1416
875.087646,1352
875.204834,1413
875.32196,1445
875.439148,1375
875.556274,1372
875.673401,1434
875.790527,1356
875.907715,1386
876.024841,1373
876.141968,1362
876.259094,1379
876.376282,1368
876.493347,1374
876.610474,1413
876.7276,1361
876.844727,1360
876.961853,1357
877.078918,1342
877.195984,1396
877.313171,1427
877.430237,1355
877.547302,1371
877.664368,1353
877.781433,1362
877.898499,1344
878.015625,1347
878.13269,1373
878.249695,1344
878.366821,1330
878.483887,1387
878.600952,1360
878.717957,1368
878.834961,1395
878.952087,1375
879.069092,1352
879.186157,1337
879.303162,1350
879.420227,1318
879.537231,1341
879.654236,1326
879.77124,1378
879.888306,1357
880.005249,1353
880.122314,1364
880.239319,1305
880.356323,1292
880.473328,1344
880.590271,1352
880.707275,1378
880.824341,1339
880.941284,1316
881.058228,1353
881.175232,1370
881.292236,1353
881.40918,1349
881.526123,1352
881.643066,1332
881.760071,1353
881.877014,1325
881.993958,1360
882.11084,1332
882.227783,1352
882.344727,1355
882.46167,1385
882.578613,1327
882.695618,1380
882.812439,1348
882.929382,1365
883.046326,1388
883.163208,1353
883.280151,1385
883.397034,1379
883.513916,1335
883.630798,1343
883.747742,1362
883.864563,1376
883.981506,1352
884.098389,1396
884.21521,1405
884.332153,1397
884.448975,1412
884.565796,1406
884.682678,1409
884.7995,1408
884.916443,1413
885.033264,1474
885.150085,1445
885.266968,1440
885.383789,1439
885.500671,1452
885.617493,1491
885.734314,1499
885.851196,1448
885.967896,1476
886.084717,1485
886.201599,1450
886.318359,1440
886.435181,1446
886.552002,1416
886.668762,1481
886.785645,1450
886.902344,1418
887.019165,1428
887.135925,1385
887.252747,1436
887.369446,1450
887.486267,1425
887.603027,1406
887.719788,1415
887.836548,1414
887.953247,1396
888.070068,1394
888.186829,1385
888.303528,1414
888.420288,1380
888.536987,1380
888.653687,1368
888.770447,1337
888.887146,1399
889.003967,1374
889.120667,1323
889.237305,1393
889.354065,1374
889.470703,1395
889.587463,1343
889.704163,1387
889.820862,1391
889.937561,1384
890.054199,1377
890.170837,1363
890.287598,1412
890.404236,1326
890.520874,1348
890.637634,1355
890.754211,1389
890.87085,1399
890.987549,1397
891.104187,1403
891.220886,1401
891.337463,1385
891.454102,1428
891.57074,1391
891.687378,1363
891.804077,1402
891.920654,1381
892.037231,1415
892.15387,1414
892.270447,1409
892.387085,1356
892.503723,1424
892.6203,1371
892.736877,1427
892.853516,1367
892.970032,1356
893.08667,1393
893.203186,1397
893.319763,1373
893.43634,1402
893.552917,1378
893.669556,1437
893.786011,1391
893.902588,1403
894.019165,1358
894.135681,1376
894.252197,1408
894.368835,1419
894.485291,1402
894.601868,1415
894.718384,1371
894.8349,1430
894.951355,1404
895.067932,1402
895.184448,1396
895.300964,1378
895.417419,1421
895.533936,1392
895.650452,1414
895.766907,1394
895.883423,1452
895.999878,1385
896.116333,1440
896.232849,1373
896.349304,1399
896.465759,1416
896.582214,1440
896.698669,1395
896.815125,1394
896.931641,1389
897.048035,1442
897.164551,1357
897.280884,1392
897.397339,1396
897.513794,1393
897.630249,1405
897.746582,1408
897.863098,1379
897.979431,1430
898.095886,1421
898.212341,1391
898.328674,1417
898.445129,1410
898.561462,1414
898.677795,1408
898.794312,1402
898.910645,1370
899.026978,1386
899.143433,1362
899.259766,1416
899.37616,1355
899.492493,1403
899.608765,1405
899.725159,1395
899.841553,1416
899.957947,1408
900.07428,1456
900.190552,1382
900.306946,1445
900.423157,1402
900.53949,1373
900.655884,1452
900.772156,1439
900.888489,1413
901.004822,1386
901.121033,1361
901.237366,1456
901.353699,1431
901.46991,1405
901.586304,1473
901.702515,1401
901.818787,1468
901.93512,1442
902.051331,1467
902.167603,1448
902.283875,1415
902.400085,1432
902.516418,1442
902.632629,1495
902.74884,1470
902.865112,1491
902.981384,1474
903.097595,1454
903.213867,1483
903.330017,1505
903.446289,1460
903.5625,1477
903.67865,1429
903.794922,1418
903.911072,1443
904.027344,1483
904.143494,1444
904.259705,1493
904.375916,1432
904.492065,1466
904.608215,1456
904.724426,1451
904.840576,1440
904.956726,1405
905.072876,1431
905.189087,1406
905.305176,1428
905.421387,1474
905.537537,1470
905.653687,1427
905.769775,1404
905.885925,1439
906.002014,1422
906.118164,1433
906.234314,1467
906.350403,1420
906.466492,1423
906.582642,1404
906.69873,1420
906.814758,1387
906.930908,1444
907.046936,1396
907.163086,1407
907.279175,1411
907.395264,1409
907.511353,1417
907.62738,1385
907.743408,1371
907.859497,1453
907.975525,1420
908.091553,1432
908.207703,1446
908.32373,1406
908.439758,1386
908.555786,1441
908.671814,1414
908.787842,1424
908.90387,1406
909.019775,1410
909.135864,1441
909.251892,1441
909.367859,1429
909.483826,1401
909.599854,1416
909.715881,1434
909.831848,1414
909.947815,1470
910.063782,1418
910.179749,1426
910.295776,1427
910.411743,1422
910.527649,1437
910.643616,1457
910.759583,1418
910.875488,1428
910.991455,1447
911.107361,1437
911.223267,1456
911.339294,1443
911.4552,1394
911.571106,1405
911.687073,1515
911.802979,1443
911.918823,1413
912.034729,1413
912.150635,1451
912.266602,1446
912.382446,1427
912.498352,1420
912.614197,1422
912.730103,1404
912.846008,1428
792.44574,2196
792.56488,2247
792.68396,2272
792.80304,2182
792.92218,2199
793.041199,2163
793.160339,2091
793.279419,2113
793.398499,2114
793.517578,2015
793.636658,1957
793.755737,2037
793.874817,1986
793.993896,1970
794.112976,1992
794.232056,1933
794.351074,1912
794.470215,1953
794.589233,1938
794.708313,1909
794.827393,1910
794.946411,1931
795.065552,1909
795.18457,1864
795.303589,1917
795.422668,1894
795.541687,1855
795.660767,1870
795.779846,1852
795.898865,1872
796.017883,1880
796.136963,1823
796.255981,1821
796.375061,1818
796.49408,1822
796.613037,1786
796.732117,1789
796.851135,1837
796.970154,1788
797.089233,1809
797.208191,1788
797.327271,1797
797.446228,1752
797.565186,1779
797.684265,1768
797.803223,1735
797.922241,1730
798.04126,1796
798.160278,1729
798.279297,1737
798.398315,1744
798.517273,1732
798.636292,1749
798.75531,1743
798.874268,1717
798.993286,1746
799.112244,1728
799.231323,1723
799.350281,1738
799.469238,1735
799.588257,1746
799.707153,1744
799.826111,1762
799.945129,1699
800.064087,1712
800.183044,1718
800.302063,1727
800.421021,1756
800.539978,1711
800.658936,1705
800.777893,1721
800.896912,1758
801.015747,1675
801.134705,1744
801.253723,1697
801.37262,1681
801.491638,1708
801.610535,1707
801.729492,1686
801.84845,1745
801.967407,1660
802.086243,1730
802.205261,1684
802.324158,1711
802.443115,1681
802.562073,1697
802.680969,1677
802.799927,1725
802.918762,1732
803.037659,1714
803.156677,1701
803.275574,1667
803.39447,1692
803.513428,1707
803.632263,1647
803.751221,1726
803.870117,1744
803.989014,1708
804.107971,1730
804.226746,1687
804.345642,1702
804.4646,1661
804.583496,1700
804.702393,1641
804.821228,1706
804.940125,1722
805.059021,1694
805.177917,1697
805.296814,1681
805.415649,1657
805.534546,1759
805.653442,1707
805.772278,1721
805.891113,1676
806.01001,1719
806.128906,1712
806.247742,1690
806.366577,1705
806.485413,1698
806.604309,1686
806.723145,1698
806.84198,1708
806.960876,1710
807.079712,1694
807.198486,1680
807.317383,1685
807.436218,1668
807.554993,1723
807.673889,1689
807.792725,1689
807.91156,1744
808.030396,1681
808.14917,1651
808.268005,1680
808.386841,1643
808.505676,1698
808.624451,1703
808.743286,1669
808.862122,1687
808.980896,1682
809.099731,1692
809.218506,1697
809.337341,1664
809.456116,1642
809.57489,1707
809.693726,1686
809.8125,1722
809.931274,1672
810.050049,1681
810.168884,1672
810.287659,1688
810.406372,1688
810.525269,1656
810.643982,1656
810.762756,1693
810.881531,1704
811.000305,1678
811.11908,1698
811.237854,1676
811.356567,1671
811.475403,1697
811.594116,1663
811.71283,1663
811.831604,1687
811.950378,1680
812.069153,1643
812.187927,1747
812.30658,1690
812.425415,1689
812.544128,1640
812.662781,1689
812.781616,1684
812.900269,1710
813.019043,1672
813.137756,1708
813.256531,1686
813.375244,1649
813.493896,1678
813.612671,1668
813.731384,1712
813.850037,1654
813.96875,1656
814.087524,1685
814.206238,1667
814.324951,1637
814.443604,1645
814.562256,1626
814.68103,1633
814.799683,1649
814.918335,1641
815.037109,1630
815.155762,1650
815.274475,1599
815.393188,1649
815.511841,1638
815.630554,1619
815.749146,1620
815.867859,1643
815.986572,1621
816.105164,1642
816.223877,1574
816.342529,1593
816.461182,1637
816.579895,1649
816.698486,1617
816.817139,1623
816.935791,1602
817.054504,1661
817.173096,1601
817.291748,1644
817.4104,1646
817.529053,1610
817.647644,1604
817.766235,1578
817.884949,1531
818.00354,1581
818.122192,1574
818.240845,1527
818.359436,1532
818.478088,1513
818.59668,1476
818.715271,1528
818.833923,1470
818.952515,1481
819.071106,1482
819.189758,1474
819.30835,1483
819.426941,1514
819.545532,1452
819.664124,1494
819.782715,1438
819.901306,1484
820.019897,1424
820.138489,1481
820.25708,1404
820.375671,1474
820.494202,1488
820.612732,1430
820.731384,1460
820.849915,1433
820.968506,1453
821.087097,1444
821.205627,1460
821.324158,1406
821.442749,1429
821.561279,1462
821.679871,1421
821.798401,1396
821.916931,1445
822.035461,1436
822.154053,1437
822.272583,1434
822.391174,1444
822.509583,1389
822.628174,1415
822.746704,1409
822.865234,1432
822.983765,1403
823.102295,1435
823.220825,1370
823.339294,1395
823.457825,1412
823.576355,1420
823.694824,1430
823.813354,1423
823.931885,1393
824.050354,1413
824.168884,1431
824.287354,1415
824.405823,1417
824.524353,1422
824.642822,1399
824.761353,1440
824.879822,1449
824.998291,1444
825.116699,1395
825.235291,1402
825.353699,1442
825.472168,1383
825.590637,1401
825.709106,1375
825.827576,1366
825.946045,1374
826.064453,1386
826.182983,1390
826.301392,1339
826.4198,1379
826.53833,1398
826.656738,1366
826.775208,1358
826.893677,1365
827.012024,1362
827.130493,1405
827.248962,1406
827.36731,1358
827.485779,1405
827.604248,1393
827.722595,1401
827.841064,1348
827.959412,1370
828.077942,1330
828.196289,1359
828.314636,1347
828.433105,1354
828.551514,1336
828.669861,1331
828.78833,1320
828.906677,1346
829.025085,1372
829.143433,1366
829.261841,1316
829.38031,1343
829.498657,1326
829.617004,1361
829.735413,1331
829.85376,1338
829.972107,1360
830.090515,1363
830.208862,1354
830.327209,1371
830.445557,1426
830.563904,1368
830.682312,1346
830.800659,1288
830.919006,1384
831.037354,1356
831.155701,1346
831.274048,1435
831.392395,1331
831.51062,1340
831.629028,1386
831.747314,1357
831.865662,1327
831.984009,1391
832.102356,1330
832.220642,1316
832.338928,1326
832.457275,1346
832.575623,1356
832.693909,1355
832.812134,1376
832.930481,1380
833.048828,1333
833.167114,1370
833.2854,1337
833.403687,1324
833.521973,1351
833.640259,1370
833.758545,1351
833.876831,1382
833.995056,1357
834.113281,1384
834.231628,1341
834.349915,1343
834.468201,1375
834.586426,1323
834.704651,1338
834.822998,1367
834.941162,1358
835.059448,1353
835.177673,1352
835.295959,1326
835.414246,1384
835.53241,1347
835.650635,1323
835.768921,1330
835.887146,1390
836.005371,1333
836.123596,1369
836.241821,1370
836.360046,1368
836.478271,1366
836.596497,1362
836.714722,1350
836.832886,1330
836.95105,1342
837.069336,1360
837.1875,1355
837.305725,1376
837.423889,1358
837.542053,1389
837.660339,1383
837.778503,1394
837.896667,1372
838.014832,1374
838.132996,1318
838.25116,1327
838.369385,1360
838.487488,1394
838.605713,1395
838.723877,1336
838.84198,1384
838.960205,1346
839.078308,1360
839.196472,1333
839.314636,1407
839.4328,1341
839.550964,1364
839.669067,1365
839.787231,1384
839.905396,1394
840.023499,1389
840.141602,1380
840.259766,1391
840.377869,1383
840.495972,1397
840.614136,1365
840.732239,1333
840.850342,1370
840.968445,1379
841.086548,1372
841.204651,1418
841.322754,1401
841.440918,1321
841.55896,1412
841.677002,1373
841.795166,1399
841.913208,1351
842.031311,1389
842.149353,1371
842.267456,1366
842.385498,1404
842.503601,1363
842.621643,1397
842.739746,1409
842.857788,1377
842.97583,1362
843.093933,1373
843.211975,1402
843.330017,1379
843.44812,1367
843.566101,1381
843.684204,1378
843.802246,1379
843.920227,1368
844.038269,1387
844.156311,1388
844.274292,1361
844.392395,1382
844.510376,1402
844.628357,1356
844.74646,1359
844.864441,1385
844.982422,1376
845.100403,1352
845.218384,1378
845.336426,1358
845.454468,1407
845.572449,1360
845.69043,1330
845.808411,1361
845.926453,1346
846.044373,1369
846.162354,1367
846.280396,1362
846.398315,1359
846.516296,1366
846.634216,1333
846.752197,1391
846.870178,1327
846.988098,1388
847.106079,1354
847.22406,1389
847.34198,1363
847.4599,1351
847.577881,1332
847.695801,1359
847.813782,1377
847.931641,1378
848.049561,1389
848.167603,1376
848.285461,1328
848.403381,1383
848.521362,1374
848.639221,1388
848.75708,1353
848.875,1363
848.99292,1415
849.110901,1418
849.22876,1394
849.34668,1422
849.464539,1424
849.582458,1373
849.700317,1399
849.818176,1379
849.936096,1381
850.053955,1390
850.171875,1420
850.289673,1419
850.407593,1398
850.525452,1390
850.643311,1421
850.761169,1368
850.878967,1371
850.996887,1383
851.114746,1409
851.232544,1394
851.350403,1374
851.468262,1373
851.58606,1381
851.703979,1387
851.821777,1390
851.939636,1388
852.057434,1352
852.175232,1352
852.293091,1380
852.410889,1401
852.528687,1383
852.646545,1400
852.764343,1371
852.88208,1390
852.999939,1410
853.117676,1376
853.235535,1376
853.353271,1396
853.471069,1381
853.588928,1385
853.706604,1348
853.824402,1385
853.9422,1358
854.059998,1402
854.177734,1352
854.295532,1365
854.413269,1381
854.531006,1422
854.648804,1342
854.766541,1363
854.884277,1409
855.002014,1348
855.119751,1341
855.237549,1377
855.355225,1361
855.473022,1346
855.590698,1376
855.708435,1351
855.826172,1343
855.943848,1332
856.061646,1405
856.179321,1391
856.296997,1368
856.414795,1386
856.53241,1436
856.650085,1388
856.767822,1394
856.885559,1411
857.003174,1397
857.120911,1408
857.238586,1377
857.356201,1372
857.473938,1381
857.591614,1418
857.709351,1399
857.826965,1386
857.944641,1382
858.062317,1411
858.179993,1406
858.297668,1393
858.415283,1403
858.532959,1383
858.650574,1441
858.768188,1379
858.885803,1408
859.003479,1418
859.121094,1368
859.23877,1379
859.356384,1374
859.473999,1376
859.591675,1415
859.709229,1392
859.826843,1387
859.944458,1402
860.062012,1374
860.179626,1370
860.297302,1363
860.414856,1392
860.532471,1378
860.650024,1378
860.767639,1418
860.885193,1358
861.002808,1341
861.120361,1340
861.237976,1386
861.35553,1389
861.473022,1391
861.590698,1392
861.708191,1349
861.825745,1355
861.943298,1383
862.060852,1342
862.178406,1372
862.295959,1311
862.413513,1397
862.531006,1341
862.64856,1362
862.766113,1355
862.883667,1315
863.00116,1338
863.118713,1403
863.236206,1376
863.353699,1367
863.471252,1391
863.588745,1364
863.706177,1366
863.82373,1395
863.941162,1380
864.058716,1351
864.176208,1355
864.29364,1359
864.411194,1380
864.528687,1358
864.646118,1365
864.763611,1348
864.881042,1341
864.998535,1367
865.116028,1355
865.233459,1346
865.350891,1335
865.468384,1359
865.585754,1387
865.703308,1357
865.820679,1371
865.938171,1386
866.055542,1388
866.173035,1342
866.290466,1370
866.407837,1380
866.52533,1367
866.6427,1397
866.760071,1349
866.877563,1362
866.994934,1345
867.112305,1367
867.229736,1348
867.347107,1379
867.464539,1421
867.58197,1362
867.699341,1355
867.81665,1398
867.934082,1382
868.051453,1363
868.168823,1363
868.286194,1369
868.403564,1380
868.520935,1380
868.638306,1407
868.755676,1353
868.872986,1409
868.990295,1352
869.107727,1396
869.225037,1371
869.342346,1348
869.459717,1405
869.577026,1362
869.694336,1403
869.811707,1377
869.929016,1360
870.046326,1428
870.163635,1369
870.280945,1414
870.398254,1372
870.515564,1378
870.632812,1377
870.750183,1367
870.867432,1404
870.984741,1448
871.102051,1386
871.219299,1435
871.336609,1420
871.453918,1430
871.571106,1398
871.688416,1403
871.805664,1390
871.922852,1410
872.040222,1434
872.157471,1361
872.274719,1404
872.391968,1446
872.509155,1409
872.626465,1425
872.743652,1426
872.860962,1401
872.978149,1400
873.095337,1411
873.212646,1404
873.329834,1387
873.44696,1419
873.564209,1397
873.681396,1429
873.798645,1422
873.915894,1405
874.03302,1387
874.150208,1409
874.267456,1430
874.384583,1362
874.501831,1437
874.618958,1443
874.736145,1452
874.853333,1435
874.970459,1383
875.087646,1406
875.204834,1414
875.32196,1444
875.439148,1438
875.556274,1393
875.673401,1407
875.790527,1403
875.907715,1396
876.024841,1425
876.141968,1405
876.259094,1412
876.376282,1397
876.493347,1424
876.610474,1425
876.7276,1425
876.844727,1385
876.961853,1373
877.078918,1455
877.195984,1405
877.313171,1411
877.430237,1382
877.547302,1394
877.664368,1334
877.781433,1387
877.898499,1370
878.015625,1428
878.13269,1365
878.249695,1441
878.366821,1404
878.483887,1403
878.600952,1378
878.717957,1407
878.834961,1415
878.952087,1407
879.069092,1382
879.186157,1441
879.303162,1388
879.420227,1412
879.537231,1389
879.654236,1341
879.77124,1398
879.888306,1365
880.005249,1371
880.122314,1393
880.239319,1356
880.356323,1376
880.473328,1392
880.590271,1371
880.707275,1405
880.824341,1365
880.941284,1395
881.058228,1389
881.175232,1386
881.292236,1343
881.40918,1355
881.526123,1317
881.643066,1396
881.760071,1408
881.877014,1361
881.993958,1401
882.11084,1406
882.227783,1383
882.344727,1404
882.46167,1384
882.578613,1416
882.695618,1359
882.812439,1337
882.929382,1385
883.046326,1392
883.163208,1363
883.280151,1375
883.397034,1389
883.513916,1418
883.630798,1397
883.747742,1424
883.864563,1352
883.981506,1450
884.098389,1392
884.21521,1412
884.332153,1431
884.448975,1390
884.565796,1420
884.682678,1411
884.7995,1442
884.916443,1435
885.033264,1445
885.150085,1479
885.266968,1473
885.383789,1485
885.500671,1489
885.617493,1506
885.734314,1541
885.851196,1472
885.967896,1504
886.084717,1493
886.201599,1498
886.318359,1501
886.435181,1489
886.552002,1512
886.668762,1449
886.785645,1485
886.902344,1479
887.019165,1413
887.135925,1491
887.252747,1426
887.369446,1481
887.486267,1484
887.603027,1443
887.719788,1460
887.836548,1445
887.953247,1439
888.070068,1391
888.186829,1424
888.303528,1431
888.420288,1454
888.536987,1373
888.653687,1401
888.770447,1362
888.887146,1438
889.003967,1402
889.120667,1414
889.237305,1387
889.354065,1447
889.470703,1380
889.587463,1397
889.704163,1418
889.820862,1414
889.937561,1409
890.054199,1386
890.170837,1432
890.287598,1411
890.404236,1372
890.520874,1414
890.637634,1419
890.754211,1379
890.87085,1393
890.987549,1415
891.104187,1412
891.220886,1431
891.337463,1419
891.454102,1375
891.57074,1411
891.687378,1442
891.804077,1454
891.920654,1433
892.037231,1410
892.15387,1401
892.270447,1410
892.387085,1422
892.503723,1425
892.6203,1443
892.736877,1424
892.853516,1422
892.970032,1386
893.08667,1444
893.203186,1446
893.319763,1409
893.43634,1415
893.552917,1439
893.669556,1418
893.786011,1421
893.902588,1368
894.019165,1446
894.135681,1408
894.252197,1461
894.368835,1436
894.485291,1426
894.601868,1443
894.718384,1439
894.8349,1424
894.951355,1419
895.067932,1407
895.184448,1416
895.300964,1406
895.417419,1370
895.533936,1371
895.650452,1426
895.766907,1413
895.883423,1465
895.999878,1459
896.116333,1443
896.232849,1399
896.349304,1431
896.465759,1438
896.582214,1406
896.698669,1427
896.815125,1363
896.931641,1431
897.048035,1436
897.164551,1459
897.280884,1400
897.397339,1459
897.513794,1384
897.630249,1443
897.746582,1414
897.863098,1442
897.979431,1458
898.095886,1428
898.212341,1428
898.328674,1484
898.445129,1433
898.561462,1422
898.677795,1428
898.794312,1459
898.910645,1435
899.026978,1440
899.143433,1456
899.259766,1433
899.37616,1445
899.492493,1419
899.608765,1396
899.725159,1455
899.841553,1434
899.957947,1481
900.07428,1429
900.190552,1499
900.306946,1417
900.423157,1427
900.53949,1494
900.655884,1459
900.772156,1423
900.888489,1447
901.004822,1464
901.121033,1465
901.237366,1470
901.353699,1457
901.46991,1439
901.586304,1457
901.702515,1449
901.818787,1508
901.93512,1454
902.051331,1464
902.167603,1446
902.283875,1497
902.400085,1536
902.516418,1480
902.632629,1458
902.74884,1496
902.865112,1526
902.981384,1481
903.097595,1489
903.213867,1512
903.330017,1474
903.446289,1517
903.5625,1460
903.67865,1487
903.794922,1438
903.911072,1507
904.027344,1493
904.143494,1501
904.259705,1491
904.375916,1433
904.492065,1449
904.608215,1472
904.724426,1482
904.840576,1472
904.956726,1465
905.072876,1477
905.189087,1485
905.305176,1472
905.421387,1489
905.537537,1432
905.653687,1454
905.769775,1455
905.885925,1497
906.002014,1439
906.118164,1466
906.234314,1453
906.350403,1465
906.466492,1473
906.582642,1450
906.69873,1446
906.814758,1441
906.930908,1452
907.046936,1445
907.163086,1425
907.279175,1434
907.395264,1422
907.511353,1435
907.62738,1484
907.743408,1437
907.859497,1495
907.975525,1452
908.091553,1449
908.207703,1441
908.32373,1460
908.439758,1459
908.555786,1455
908.671814,1467
908.787842,1492
908.90387,1467
909.019775,1485
909.135864,1426
909.251892,1459
909.367859,1456
909.483826,1438
909.599854,1465
909.715881,1422
909.831848,1488
909.947815,1441
910.063782,1463
910.179749,1451
910.295776,1474
910.411743,1474
910.527649,1479
910.643616,1488
910.759583,1478
910.875488,1472
910.991455,1446
911.107361,1450
911.223267,1480
911.339294,1465
911.4552,1497
911.571106,1481
911.687073,1470
911.802979,1465
911.918823,1475
912.034729,1476
912.150635,1502
912.266602,1427
912.382446,1454
912.498352,1443
912.614197,1464
912.730103,1478
912.846008,1453
792.44574,2259
792.56488,2295
792.68396,2283
792.80304,2174
792.92218,2115
793.041199,2128
793.160339,2095
793.279419,2101
793.398499,2110
793.517578,2044
793.636658,2018
793.755737,2082
793.874817,2072
793.993896,1981
794.112976,2006
794.232056,1934
794.351074,1957
794.470215,1958
794.589233,1909
794.708313,1890
794.827393,1914
794.946411,1911
795.065552,1920
795.18457,1845
795.303589,1915
795.422668,1872
795.541687,1870
795.660767,1860
795.779846,1841
795.898865,1883
796.017883,1869
796.136963,1833
796.255981,1833
796.375061,1819
796.49408,1838
796.613037,1806
796.732117,1820
796.851135,1825
796.970154,1795
797.089233,1762
797.208191,1815
797.327271,1771
797.446228,1789
797.565186,1841
797.684265,1790
797.803223,1724
797.922241,1797
798.04126,1783
798.160278,1747
798.279297,1739
798.398315,1753
798.517273,1777
798.636292,1747
798.75531,1766
798.874268,1726
798.993286,1735
799.112244,1730
799.231323,1790
799.350281,1772
799.469238,1756
799.588257,1743
799.707153,1734
799.826111,1735
799.945129,1756
800.064087,1722
800.183044,1731
800.302063,1734
800.421021,1744
800.539978,1699
800.658936,1704
800.777893,1757
800.896912,1698
801.015747,1718
801.134705,1712
801.253723,1736
801.37262,1733
801.491638,1689
801.610535,1717
801.729492,1699
801.84845,1681
801.967407,1728
802.086243,1720
802.205261,1701
802.324158,1728
802.443115,1713
802.562073,1695
802.680969,1693
802.799927,1697
802.918762,1695
803.037659,1695
803.156677,1712
803.275574,1727
803.39447,1730
803.513428,1701
803.632263,1739
803.751221,1695
803.870117,1681
803.989014,1663
804.107971,1684
804.226746,1655
804.345642,1726
804.4646,1736
804.583496,1677
804.702393,1739
804.821228,1703
804.940125,1686
805.059021,1729
805.177917,1706
805.296814,1704
805.415649,1704
805.534546,1703
805.653442,1709
805.772278,1699
805.891113,1719
806.01001,1712
806.128906,1667
806.247742,1656
806.366577,1637
806.485413,1714
806.604309,1692
806.723145,1729
806.84198,1673
806.960876,1701
807.079712,1620
807.198486,1708
807.317383,1706
807.436218,1699
807.554993,1664
807.673889,1703
807.792725,1693
807.91156,1708
808.030396,1715
808.14917,1714
808.268005,1707
808.386841,1711
808.505676,1694
808.624451,1676
808.743286,1708
808.862122,1708
808.980896,1650
809.099731,1670
809.218506,1658
809.337341,1688
809.456116,1664
809.57489,1696
809.693726,1666
809.8125,1697
809.931274,1675
810.050049,1662
810.168884,1670
810.287659,1699
810.406372,1662
810.525269,1652
810.643982,1735
810.762756,1713
810.881531,1706
811.000305,1703
811.11908,1690
811.237854,1644
811.356567,1655
811.475403,1675
811.594116,1646
811.71283,1654
811.831604,1641
811.950378,1689
812.069153,1689
812.187927,1697
812.30658,1681
812.425415,1701
812.544128,1698
812.662781,1670
812.781616,1697
812.900269,1691
813.019043,1675
813.137756,1664
813.256531,1654
813.375244,1627
813.493896,1630
813.612671,1710
813.731384,1688
813.850037,1612
813.96875,1695
814.087524,1642
814.206238,1643
814.324951,1633
814.443604,1626
814.562256,1634
814.68103,1680
814.799683,1620
814.918335,1614
815.037109,1626
815.155762,1665
815.274475,1679
815.393188,1650
815.511841,1638
815.630554,1627
815.749146,1612
815.867859,1626
815.986572,1645
816.105164,1569
816.223877,1589
816.342529,1569
816.461182,1612
816.579895,1638
816.698486,1633
816.817139,1611
816.935791,1652
817.054504,1632
817.173096,1657
817.291748,1576
817.4104,1632
817.529053,1594
817.647644,1630
817.766235,1582
817.884949,1521
818.00354,1533
818.122192,1495
818.240845,1541
818.359436,1564
818.478088,1495
818.59668,1487
818.715271,1512
818.833923,1519
818.952515,1452
819.071106,1511
819.189758,1484
819.30835,1492
819.426941,1499
819.545532,1494
819.664124,1475
819.782715,1500
819.901306,1515
820.019897,1507
820.138489,1466
820.25708,1458
820.375671,1446
820.494202,1434
820.612732,1475
820.731384,1455
820.849915,1455
820.968506,1497
821.087097,1492
821.205627,1455
821.324158,1446
821.442749,1432
821.561279,1434
821.679871,1431
821.798401,1426
821.916931,1428
822.035461,1446
822.154053,1468
822.272583,1383
822.391174,1434
822.509583,1411
822.628174,1449
822.746704,1397
822.865234,1444
822.983765,1424
823.102295,1446
823.220825,1416
823.339294,1453
823.457825,1416
823.576355,1416
823.694824,1411
823.813354,1443
823.931885,1412
824.050354,1414
824.168884,1420
824.287354,1440
824.405823,1441
824.524353,1443
824.642822,1468
824.761353,1412
824.879822,1447
824.998291,1402
825.116699,1419
825.235291,1429
825.353699,1402
825.472168,1435
825.590637,1395
825.709106,1420
825.827576,1398
825.946045,1352
826.064453,1433
826.182983,1403
826.301392,1394
826.4198,1404
826.53833,1359
826.656738,1409
826.775208,1411
826.893677,1370
827.012024,1389
827.130493,1383
827.248962,1429
827.36731,1391
827.485779,1344
827.604248,1402
827.722595,1352
827.841064,1366
827.959412,1405
828.077942,1348
828.196289,1337
828.314636,1313
828.433105,1339
828.551514,1342
828.669861,1380
828.78833,1381
828.906677,1345
829.025085,1380
829.143433,1385
829.261841,1354
829.38031,1348
829.498657,1368
829.617004,1348
829.735413,1366
829.85376,1319
829.972107,1390
830.090515,1295
830.208862,1386
830.327209,1325
830.445557,1386
830.563904,1378
830.682312,1389
830.800659,1319
830.919006,1367
831.037354,1380
831.155701,1357
831.274048,1401
831.392395,1344
831.51062,1344
831.629028,1328
831.747314,1337
831.865662,1369
831.984009,1367
832.102356,1364
832.220642,1348
832.338928,1419
832.457275,1440
832.575623,1368
832.693909,1333
832.812134,1361
832.930481,1342
833.048828,1349
833.167114,1346
833.2854,1352
833.403687,1332
833.521973,1389
833.640259,1355
833.758545,1390
833.876831,1322
833.995056,1378
834.113281,1389
834.231628,1371
834.349915,1384
834.468201,1367
834.586426,1394
834.704651,1345
834.822998,1335
834.941162,1349
835.059448,1326
835.177673,1381
835.295959,1337
835.414246,1339
835.53241,1322
835.650635,1335
835.768921,1374
835.887146,1362
836.005371,1332
836.123596,1380
836.241821,1352
836.360046,1381
836.478271,1345
836.596497,1377
836.714722,1386
836.832886,1367
836.95105,1348
837.069336,1357
837.1875,1346
837.305725,1404
837.423889,1391
837.542053,1341
837.660339,1390
837.778503,1386
837.896667,1388
838.014832,1404
838.132996,1388
838.25116,1419
838.369385,1375
838.487488,1399
838.605713,1369
838.723877,1405
838.84198,1380
838.960205,1375
839.078308,1383
839.196472,1386
839.314636,1413
839.4328,1333
839.550964,1395
839.669067,1420
839.787231,1382
839.905396,1365
840.023499,1388
840.141602,1366
840.259766,1373
840.377869,1425
840.495972,1420
840.614136,1406
840.732239,1401
840.850342,1385
840.968445,1405
841.086548,1376
841.204651,1365
841.322754,1407
841.440918,1363
841.55896,1360
841.677002,1338
841.795166,1392
841.913208,1385
842.031311,1385
842.149353,1399
842.267456,1405
842.385498,1398
842.503601,1377
842.621643,1416
842.739746,1345
842.857788,1381
842.97583,1410
843.093933,1395
843.211975,1364
843.330017,1356
843.44812,1444
843.566101,1415
843.684204,1348
843.802246,1384
843.920227,1398
844.038269,1368
844.156311,1385
844.274292,1398
844.392395,1384
844.510376,1401
844.628357,1360
844.74646,1397
844.864441,1368
844.982422,1365
845.100403,1420
845.218384,1366
845.336426,1363
845.454468,1391
845.572449,1353
845.69043,1373
845.808411,1401
845.926453,1345
846.044373,1362
846.162354,1383
846.280396,1400
846.398315,1402
846.516296,1361
846.634216,1359
846.752197,1401
846.870178,1381
846.988098,1385
847.106079,1377
847.22406,1368
847.34198,1370
847.4599,1395
847.577881,1385
847.695801,1378
847.813782,1367
847.931641,1369
848.049561,1367
848.167603,1363
848.285461,1368
848.403381,1378
848.521362,1365
848.639221,1381
848.75708,1353
848.875,1389
848.99292,1386
849.110901,1419
849.22876,1415
849.34668,1447
849.464539,1388
849.582458,1406
849.700317,1433
849.818176,1446
849.936096,1410
850.053955,1399
850.171875,1424
850.289673,1411
850.407593,1406
850.525452,1428
850.643311,1405
850.761169,1416
850.878967,1358
850.996887,1394
851.114746,1391
851.232544,1378
851.350403,1368
851.468262,1438
851.58606,1408
851.703979,1367
851.821777,1423
851.939636,1384
852.057434,1346
852.175232,1396
852.293091,1366
852.410889,1442
852.528687,1405
852.646545,1399
852.764343,1383
852.88208,1424
852.999939,1407
853.117676,1426
853.235535,1395
853.353271,1404
853.471069,1367
853.588928,1383
853.706604,1372
853.824402,1362
853.9422,1363
854.059998,1401
854.177734,1399
854.295532,1413
854.413269,1384
854.531006,1373
854.648804,1364
854.766541,1359
854.884277,1381
855.002014,1396
855.119751,1374
855.237549,1380
855.355225,1371
855.473022,1400
855.590698,1388
855.708435,1407
855.826172,1396
855.943848,1406
856.061646,1364
856.179321,1369
856.296997,1344
856.414795,1399
856.53241,1364
856.650085,1425
856.767822,1378
856.885559,1435
857.003174,1386
857.120911,1404
857.238586,1413
857.356201,1386
857.473938,1431
857.591614,1401
857.709351,1381
857.826965,1415
857.944641,1441
858.062317,1419
858.179993,1436
858.297668,1423
858.415283,1417
858.532959,1382
858.650574,1376
858.768188,1411
858.885803,1414
859.003479,1423
859.121094,1418
859.23877,1402
859.356384,1347
859.473999,1416
859.591675,1377
859.709229,1367
859.826843,1403
859.944458,1408
860.062012,1391
860.179626,1406
860.297302,1346
860.414856,1395
860.532471,1389
860.650024,1377
860.767639,1359
860.885193,1375
861.002808,1385
861.120361,1405
861.237976,1403
861.35553,1374
861.473022,1413
861.590698,1455
861.708191,1409
861.825745,1365
861.943298,1402
862.060852,1380
862.178406,1394
862.295959,1375
862.413513,1327
862.531006,1387
862.64856,1359
862.766113,1366
862.883667,1395
863.00116,1350
863.118713,1359
863.236206,1363
863.353699,1367
863.471252,1377
863.588745,1361
863.706177,1392
863.82373,1354
863.941162,1338
864.058716,1366
864.176208,1395
864.29364,1386
864.411194,1390
864.528687,1384
864.646118,1383
864.763611,1358
864.881042,1365
864.998535,1348
865.116028,1400
865.233459,1323
865.350891,1349
865.468384,1399
865.585754,1380
865.703308,1373
865.820679,1369
865.938171,1372
866.055542,1363
866.173035,1374
866.290466,1383
866.407837,1356
866.52533,1373
866.6427,1362
866.760071,1374
866.877563,1384
866.994934,1376
867.112305,1385
867.229736,1388
867.347107,1394
867.464539,1375
867.58197,1399
867.699341,1438
867.81665,1371
867.934082,1380
868.051453,1400
868.168823,1405
868.286194,1397
868.403564,1401
868.520935,1384
868.638306,1375
868.755676,1359
868.872986,1394
868.990295,1399
869.107727,1430
869.225037,1392
869.342346,1431
869.459717,1417
869.577026,1370
869.694336,1429
869.811707,1405
869.929016,1380
870.046326,1429
870.163635,1401
870.280945,1412
870.398254,1418
870.515564,1364
870.632812,1397
870.750183,1455
870.867432,1411
870.984741,1398
871.102051,1373
871.219299,1448
871.336609,1455
871.453918,1450
871.571106,1442
871.688416,1441
871.805664,1397
871.922852,1412
872.040222,1437
872.157471,1449
872.274719,1420
872.391968,1430
872.509155,1443
872.626465,1453
872.743652,1438
872.860962,1430
872.978149,1444
873.095337,1404
873.212646,1453
873.329834,1390
873.44696,1442
873.564209,1408
873.681396,1428
873.798645,1429
873.915894,1411
874.03302,1439
874.150208,1426
874.267456,1399
874.384583,1434
874.501831,1439
874.618958,1434
874.736145,1415
874.853333,1415
874.970459,1421
875.087646,1457
875.204834,1417
875.32196,1421
875.439148,1432
875.556274,1451
875.673401,1483
875.790527,1407
875.907715,1424
876.024841,1414
876.141968,1414
876.259094,1399
876.376282,1430
876.493347,1443
876.610474,1378
876.7276,1416
876.844727,1430
876.961853,1403
877.078918,1411
877.195984,1400
877.313171,1380
877.430237,1435
877.547302,1387
877.664368,1396
877.781433,1427
877.898499,1410
878.015625,1410
878.13269,1442
878.249695,1439
878.366821,1396
878.483887,1431
878.600952,1414
878.717957,1420
878.834961,1438
878.952087,1413
879.069092,1406
879.186157,1413
879.303162,1397
879.420227,1402
879.537231,1370
879.654236,1390
879.77124,1410
879.888306,1416
880.005249,1412
880.122314,1404
880.239319,1359
880.356323,1420
880.473328,1390
880.590271,1373
880.707275,1383
880.824341,1375
880.941284,1393
881.058228,1356
881.175232,1420
881.292236,1368
881.40918,1383
881.526123,1397
881.643066,1394
881.760071,1374
881.877014,1355
881.993958,1417
882.11084,1397
882.227783,1373
882.344727,1416
882.46167,1387
882.578613,1413
882.695618,1408
882.812439,1428
882.929382,1373
883.046326,1433
883.163208,1380
883.280151,1394
883.397034,1395
883.513916,1400
883.630798,1427
883.747742,1400
883.864563,1409
883.981506,1406
884.098389,1415
884.21521,1427
884.332153,1448
884.448975,1420
884.565796,1417
884.682678,1418
884.7995,1442
884.916443,1456
885.033264,1457
885.150085,1455
885.266968,1498
885.383789,1512
885.500671,1496
885.617493,1519
885.734314,1502
885.851196,1500
885.967896,1523
886.084717,1506
886.201599,1474
886.318359,1492
886.435181,1470
886.552002,1510
886.668762,1502
886.785645,1525
886.902344,1466
887.019165,1476
887.135925,1472
887.252747,1491
887.369446,1449
887.486267,1455
887.603027,1461
887.719788,1476
887.836548,1452
887.953247,1481
888.070068,1432
888.186829,1425
888.303528,1439
888.420288,1421
888.536987,1405
888.653687,1399
888.770447,1433
888.887146,1383
889.003967,1420
889.120667,1413
889.237305,1401
889.354065,1427
889.470703,1438
889.587463,1367
889.704163,1406
889.820862,1430
889.937561,1410
890.054199,1379
890.170837,1427
890.287598,1403
890.404236,1385
890.520874,1394
890.637634,1424
890.754211,1395
890.87085,1416
890.987549,1439
891.104187,1435
891.220886,1449
891.337463,1425
891.454102,1453
891.57074,1427
891.687378,1441
891.804077,1369
891.920654,1430
892.037231,1426
892.15387,1467
892.270447,1410
892.387085,1450
892.503723,1411
892.6203,1422
892.736877,1399
892.853516,1426
892.970032,1388
893.08667,1452
893.203186,1436
893.319763,1418
893.43634,1452
893.552917,1397
893.669556,1426
893.786011,1412
893.902588,1457
894.019165,1435
894.135681,1457
894.252197,1440
894.368835,1444
894.485291,1439
894.601868,1430
894.718384,1430
894.8349,1441
894.951355,1446
895.067932,1393
895.184448,1456
895.300964,1453
895.417419,1404
895.533936,1449
895.650452,1443
895.766907,1443
895.883423,1404
895.999878,1450
896.116333,1433
896.232849,1426
896.349304,1419
896.465759,1390
896.582214,1398
896.698669,1426
896.815125,1444
896.931641,1438
897.048035,1412
897.164551,1467
897.280884,1450
897.397339,1431
897.513794,1444
897.630249,1370
897.746582,1434
897.863098,1441
897.979431,1437
898.095886,1451
898.212341,1479
898.328674,1493
898.445129,1423
898.561462,1456
898.677795,1448
898.794312,1447
898.910645,1414
899.026978,1478
899.143433,1421
899.259766,1451
899.37616,1404
899.492493,1455
899.608765,1467
899.725159,1480
899.841553,1449
899.957947,1458
900.07428,1471
900.190552,1422
900.306946,1446
900.423157,1433
900.53949,1461
900.655884,1449
900.772156,1434
900.888489,1461
901.004822,1441
901.121033,1483
901.237366,1482
901.353699,1509
901.46991,1445
901.586304,1458
901.702515,1434
901.818787,1476
901.93512,1431
902.051331,1521
902.167603,1468
902.283875,1508
902.400085,1520
902.516418,1504
902.632629,1465
902.74884,1547
902.865112,1483
902.981384,1508
903.097595,1483
903.213867,1501
903.330017,1501
903.446289,1534
903.5625,1487
903.67865,1521
903.794922,1549
903.911072,1521
904.027344,1493
904.143494,1529
904.259705,1499
904.375916,1477
904.492065,1506
904.608215,1478
904.724426,1453
904.840576,1453
904.956726,1505
905.072876,1481
905.189087,1481
905.305176,1488
905.421387,1454
905.537537,1470
905.653687,1428
905.769775,1492
905.885925,1461
906.002014,1470
906.118164,1457
906.234314,1490
906.350403,1481
906.466492,1415
906.582642,1489
906.69873,1503
906.814758,1510
906.930908,1452
907.046936,1445
907.163086,1470
907.279175,1447
907.395264,1468
907.511353,1435
907.62738,1451
907.743408,1447
907.859497,1467
907.975525,1479
908.091553,1453
908.207703,1464
908.32373,1481
908.439758,1473
908.555786,1485
908.671814,1445
908.787842,1510
908.90387,1465
909.019775,1432
909.135864,1494
909.251892,1462
909.367859,1480
909.483826,1424
909.599854,1491
909.715881,1535
909.831848,1449
909.947815,1499
910.063782,1503
910.179749,1511
910.295776,1537
910.411743,1454
910.527649,1498
910.643616,1468
910.759583,1459
910.875488,1500
910.991455,1475
911.107361,1480
911.223267,1479
911.339294,1483
911.4552,1512
911.571106,1465
911.687073,1443
911.802979,1465
911.918823,1440
912.034729,1474
912.150635,1477
912.266602,1466
912.382446,1474
912.498352,1462
912.614197,1463
912.730103,1429
912.846008,1498
