792.44574,1553
792.56488,1607
792.68396,1613
792.80304,1571
792.92218,1565
793.041199,1523
793.160339,1511
793.279419,1530
793.398499,1506
793.517578,1558
793.636658,1502
793.755737,1528
793.874817,1526
793.993896,1516
794.112976,1528
794.232056,1497
794.351074,1461
794.470215,1550
794.589233,1453
794.708313,1450
794.827393,1468
794.946411,1458
795.065552,1466
795.18457,1439
795.303589,1495
795.422668,1452
795.541687,1456
795.660767,1502
795.779846,1469
795.898865,1506
796.017883,1448
796.136963,1507
796.255981,1457
796.375061,1495
796.49408,1465
796.613037,1465
796.732117,1492
796.851135,1498
796.970154,1469
797.089233,1446
797.208191,1460
797.327271,1461
797.446228,1442
797.565186,1452
797.684265,1468
797.803223,1446
797.922241,1466
798.04126,1435
798.160278,1442
798.279297,1464
798.398315,1466
798.517273,1432
798.636292,1423
798.75531,1474
798.874268,1408
798.993286,1466
799.112244,1396
799.231323,1431
799.350281,1426
799.469238,1469
799.588257,1405
799.707153,1429
799.826111,1438
799.945129,1464
800.064087,1458
800.183044,1404
800.302063,1468
800.421021,1442
800.539978,1421
800.658936,1445
800.777893,1482
800.896912,1446
801.015747,1428
801.134705,1424
801.253723,1438
801.37262,1452
801.491638,1420
801.610535,1471
801.729492,1436
801.84845,1433
801.967407,1421
802.086243,1411
802.205261,1430
802.324158,1440
802.443115,1415
802.562073,1393
802.680969,1398
802.799927,1427
802.918762,1427
803.037659,1424
803.156677,1433
803.275574,1428
803.39447,1427
803.513428,1429
803.632263,1426
803.751221,1473
803.870117,1433
803.989014,1427
804.107971,1426
804.226746,1434
804.345642,1418
804.4646,1429
804.583496,1442
804.702393,1425
804.821228,1421
804.940125,1410
805.059021,1423
805.177917,1417
805.296814,1430
805.415649,1403
805.534546,1417
805.653442,1447
805.772278,1385
805.891113,1434
806.01001,1478
806.128906,1420
806.247742,1429
806.366577,1453
806.485413,1429
806.604309,1389
806.723145,1386
806.84198,1405
806.960876,1418
807.079712,1384
807.198486,1441
807.317383,1410
807.436218,1425
807.554993,1383
807.673889,1437
807.792725,1401
807.91156,1432
808.030396,1417
808.14917,1429
808.268005,1441
808.386841,1418
808.505676,1433
808.624451,1394
808.743286,1434
808.862122,1436
808.980896,1376
809.099731,1403
809.218506,1432
809.337341,1401
809.456116,1356
809.57489,1414
809.693726,1427
809.8125,1398
809.931274,1415
810.050049,1450
810.168884,1384
810.287659,1422
810.406372,1471
810.525269,1407
810.643982,1403
810.762756,1414
810.881531,1364
811.000305,1446
811.11908,1416
811.237854,1403
811.356567,1417
811.475403,1419
811.594116,1396
811.71283,1427
811.831604,1381
811.950378,1435
812.069153,1375
812.187927,1409
812.30658,1405
812.425415,1398
812.544128,1420
812.662781,1394
812.781616,1429
812.900269,1407
813.019043,1403
813.137756,1389
813.256531,1415
813.375244,1395
813.493896,1395
813.612671,1414
813.731384,1388
813.850037,1400
813.96875,1371
814.087524,1416
814.206238,1391
814.324951,1382
814.443604,1365
814.562256,1359
814.68103,1381
814.799683,1415
814.918335,1373
815.037109,1392
815.155762,1398
815.274475,1391
815.393188,1384
815.511841,1362
815.630554,1399
815.749146,1361
815.867859,1365
815.986572,1383
816.105164,1374
816.223877,1368
816.342529,1366
816.461182,1417
816.579895,1377
816.698486,1384
816.817139,1345
816.935791,1373
817.054504,1379
817.173096,1398
817.291748,1375
817.4104,1379
817.529053,1372
817.647644,1387
817.766235,1387
817.884949,1371
818.00354,1379
818.122192,1347
818.240845,1346
818.359436,1375
818.478088,1378
818.59668,1301
818.715271,1339
818.833923,1318
818.952515,1341
819.071106,1338
819.189758,1350
819.30835,1314
819.426941,1298
819.545532,1325
819.664124,1321
819.782715,1330
819.901306,1339
820.019897,1365
820.138489,1333
820.25708,1329
820.375671,1350
820.494202,1311
820.612732,1320
820.731384,1350
820.849915,1345
820.968506,1340
821.087097,1353
821.205627,1302
821.324158,1329
821.442749,1360
821.561279,1354
821.679871,1325
821.798401,1306
821.916931,1327
822.035461,1325
822.154053,1295
822.272583,1306
822.391174,1342
822.509583,1274
822.628174,1367
822.746704,1342
822.865234,1253
822.983765,1370
823.102295,1298
823.220825,1331
823.339294,1325
823.457825,1315
823.576355,1301
823.694824,1265
823.813354,1316
823.931885,1287
824.050354,1365
824.168884,1301
824.287354,1317
824.405823,1280
824.524353,1303
824.642822,1309
824.761353,1277
824.879822,1329
824.998291,1302
825.116699,1272
825.235291,1314
825.353699,1307
825.472168,1328
825.590637,1300
825.709106,1305
825.827576,1322
825.946045,1254
826.064453,1361
826.182983,1267
826.301392,1331
826.4198,1307
826.53833,1279
826.656738,1329
826.775208,1261
826.893677,1261
827.012024,1313
827.130493,1325
827.248962,1309
827.36731,1324
827.485779,1319
827.604248,1322
827.722595,1274
827.841064,1290
827.959412,1269
828.077942,1295
828.196289,1264
828.314636,1280
828.433105,1351
828.551514,1309
828.669861,1295
828.78833,1266
828.906677,1293
829.025085,1297
829.143433,1257
829.261841,1314
829.38031,1253
829.498657,1282
829.617004,1336
829.735413,1275
829.85376,1309
829.972107,1268
830.090515,1321
830.208862,1278
830.327209,1281
830.445557,1250
830.563904,1267
830.682312,1237
830.800659,1289
830.919006,1282
831.037354,1287
831.155701,1286
831.274048,1282
831.392395,1290
831.51062,1283
831.629028,1228
831.747314,1272
831.865662,1229
831.984009,1286
832.102356,1287
832.220642,1270
832.338928,1288
832.457275,1311
832.575623,1275
832.693909,1246
832.812134,1279
832.930481,1265
833.048828,1272
833.167114,1318
833.2854,1262
833.403687,1287
833.521973,1299
833.640259,1247
833.758545,1279
833.876831,1290
833.995056,1260
834.113281,1284
834.231628,1282
834.349915,1289
834.468201,1265
834.586426,1262
834.704651,1274
834.822998,1249
834.941162,1319
835.059448,1262
835.177673,1283
835.295959,1263
835.414246,1289
835.53241,1243
835.650635,1267
835.768921,1279
835.887146,1255
836.005371,1277
836.123596,1253
836.241821,1251
836.360046,1251
836.478271,1266
836.596497,1291
836.714722,1250
836.832886,1288
836.95105,1275
837.069336,1243
837.1875,1250
837.305725,1295
837.423889,1275
837.542053,1243
837.660339,1330
837.778503,1252
837.896667,1285
838.014832,1251
838.132996,1305
838.25116,1284
838.369385,1295
838.487488,1283
838.605713,1241
838.723877,1271
838.84198,1251
838.960205,1273
839.078308,1259
839.196472,1274
839.314636,1254
839.4328,1258
839.550964,1241
839.669067,1305
839.787231,1244
839.905396,1238
840.023499,1259
840.141602,1230
840.259766,1272
840.377869,1265
840.495972,1276
840.614136,1303
840.732239,1277
840.850342,1242
840.968445,1242
841.086548,1210
841.204651,1278
841.322754,1273
841.440918,1282
841.55896,1266
841.677002,1276
841.795166,1257
841.913208,1250
842.031311,1275
842.149353,1282
842.267456,1255
842.385498,1258
842.503601,1285
842.621643,1261
842.739746,1227
842.857788,1235
842.97583,1257
843.093933,1263
843.211975,1221
843.330017,1266
843.44812,1243
843.566101,1282
843.684204,1250
843.802246,1225
843.920227,1293
844.038269,1260
844.156311,1276
844.274292,1251
844.392395,1278
844.510376,1239
844.628357,1221
844.74646,1235
844.864441,1253
844.982422,1264
845.100403,1254
845.218384,1243
845.336426,1260
845.454468,1264
845.572449,1216
845.69043,1252
845.808411,1253
845.926453,1259
846.044373,1224
846.162354,1236
846.280396,1253
846.398315,1268
846.516296,1250
846.634216,1249
846.752197,1284
846.870178,1245
846.988098,1253
847.106079,1252
847.22406,1296
847.34198,1243
847.4599,1232
847.577881,1269
847.695801,1272
847.813782,1264
847.931641,1230
848.049561,1273
848.167603,1300
848.285461,1245
848.403381,1302
848.521362,1263
848.639221,1250
848.75708,1275
848.875,1280
848.99292,1272
849.110901,1299
849.22876,1265
849.34668,1213
849.464539,1251
849.582458,1237
849.700317,1260
849.818176,1288
849.936096,1264
850.053955,1244
850.171875,1254
850.289673,1290
850.407593,1246
850.525452,1286
850.643311,1262
850.761169,1252
850.878967,1272
850.996887,1250
851.114746,1241
851.232544,1301
851.350403,1271
851.468262,1279
851.58606,1236
851.703979,1280
851.821777,1255
851.939636,1236
852.057434,1264
852.175232,1255
852.293091,1260
852.410889,1279
852.528687,1252
852.646545,1268
852.764343,1235
852.88208,1276
852.999939,1251
853.117676,1267
853.235535,1263
853.353271,1257
853.471069,1281
853.588928,1249
853.706604,1262
853.824402,1248
853.9422,1241
854.059998,1212
854.177734,1267
854.295532,1281
854.413269,1264
854.531006,1256
854.648804,1281
854.766541,1254
854.884277,1292
855.002014,1285
855.119751,1261
855.237549,1290
855.355225,1227
855.473022,1237
855.590698,1247
855.708435,1237
855.826172,1256
855.943848,1253
856.061646,1257
856.179321,1274
856.296997,1222
856.414795,1268
856.53241,1248
856.650085,1254
856.767822,1264
856.885559,1271
857.003174,1254
857.120911,1250
857.238586,1261
857.356201,1246
857.473938,1284
857.591614,1295
857.709351,1267
857.826965,1244
857.944641,1297
858.062317,1274
858.179993,1237
858.297668,1228
858.415283,1261
858.532959,1261
858.650574,1271
858.768188,1306
858.885803,1221
859.003479,1247
859.121094,1266
859.23877,1249
859.356384,1298
859.473999,1250
859.591675,1289
859.709229,1252
859.826843,1282
859.944458,1243
860.062012,1271
860.179626,1239
860.297302,1276
860.414856,1287
860.532471,1267
860.650024,1251
860.767639,1250
860.885193,1274
861.002808,1274
861.120361,1251
861.237976,1290
861.35553,1272
861.473022,1280
861.590698,1263
861.708191,1254
861.825745,1242
861.943298,1240
862.060852,1258
862.178406,1280
862.295959,1295
862.413513,1275
862.531006,1257
862.64856,1264
862.766113,1272
862.883667,1274
863.00116,1268
863.118713,1250
863.236206,1261
863.353699,1231
863.471252,1267
863.588745,1272
863.706177,1289
863.82373,1263
863.941162,1245
864.058716,1264
864.176208,1259
864.29364,1277
864.411194,1259
864.528687,1258
864.646118,1239
864.763611,1275
864.881042,1261
864.998535,1247
865.116028,1248
865.233459,1268
865.350891,1285
865.468384,1278
865.585754,1271
865.703308,1268
865.820679,1235
865.938171,1258
866.055542,1277
866.173035,1273
866.290466,1272
866.407837,1292
866.52533,1256
866.6427,1248
866.760071,1295
866.877563,1232
866.994934,1299
867.112305,1225
867.229736,1243
867.347107,1255
867.464539,1296
867.58197,1282
867.699341,1276
867.81665,1291
867.934082,1306
868.051453,1246
868.168823,1275
868.286194,1264
868.403564,1248
868.520935,1252
868.638306,1218
868.755676,1293
868.872986,1260
868.990295,1282
869.107727,1275
869.225037,1275
869.342346,1271
869.459717,1288
869.577026,1295
869.694336,1238
869.811707,1315
869.929016,1294
870.046326,1254
870.163635,1315
870.280945,1294
870.398254,1285
870.515564,1319
870.632812,1270
870.750183,1291
870.867432,1279
870.984741,1301
871.102051,1255
871.219299,1295
871.336609,1301
871.453918,1279
871.571106,1277
871.688416,1279
871.805664,1254
871.922852,1259
872.040222,1285
872.157471,1329
872.274719,1299
872.391968,1260
872.509155,1295
872.626465,1288
872.743652,1289
872.860962,1272
872.978149,1240
873.095337,1262
873.212646,1279
873.329834,1283
873.44696,1281
873.564209,1245
873.681396,1268
873.798645,1275
873.915894,1291
874.03302,1275
874.150208,1252
874.267456,1283
874.384583,1284
874.501831,1304
874.618958,1327
874.736145,1296
874.853333,1313
874.970459,1282
875.087646,1298
875.204834,1283
875.32196,1321
875.439148,1258
875.556274,1291
875.673401,1306
875.790527,1304
875.907715,1296
876.024841,1286
876.141968,1299
876.259094,1262
876.376282,1287
876.493347,1316
876.610474,1267
876.7276,1293
876.844727,1271
876.961853,1276
877.078918,1328
877.195984,1295
877.313171,1327
877.430237,1322
877.547302,1291
877.664368,1257
877.781433,1288
877.898499,1262
878.015625,1277
878.13269,1263
878.249695,1280
878.366821,1255
878.483887,1319
878.600952,1279
878.717957,1283
878.834961,1291
878.952087,1312
879.069092,1295
879.186157,1307
879.303162,1282
879.420227,1291
879.537231,1278
879.654236,1253
879.77124,1299
879.888306,1287
880.005249,1286
880.122314,1266
880.239319,1299
880.356323,1267
880.473328,1288
880.590271,1277
880.707275,1321
880.824341,1309
880.941284,1270
881.058228,1282
881.175232,1313
881.292236,1299
881.40918,1295
881.526123,1284
881.643066,1289
881.760071,1302
881.877014,1308
881.993958,1347
882.11084,1311
882.227783,1281
882.344727,1284
882.46167,1287
882.578613,1310
882.695618,1308
882.812439,1275
882.929382,1311
883.046326,1300
883.163208,1302
883.280151,1278
883.397034,1281
883.513916,1259
883.630798,1263
883.747742,1296
883.864563,1322
883.981506,1291
884.098389,1274
884.21521,1304
884.332153,1328
884.448975,1279
884.565796,1334
884.682678,1285
884.7995,1293
884.916443,1339
885.033264,1309
885.150085,1298
885.266968,1318
885.383789,1302
885.500671,1308
885.617493,1328
885.734314,1323
885.851196,1353
885.967896,1273
886.084717,1300
886.201599,1353
886.318359,1283
886.435181,1319
886.552002,1292
886.668762,1360
886.785645,1285
886.902344,1300
887.019165,1305
887.135925,1333
887.252747,1302
887.369446,1324
887.486267,1296
887.603027,1301
887.719788,1311
887.836548,1355
887.953247,1301
888.070068,1314
888.186829,1330
888.303528,1280
888.420288,1332
888.536987,1297
888.653687,1286
888.770447,1321
888.887146,1320
889.003967,1349
889.120667,1311
889.237305,1350
889.354065,1288
889.470703,1304
889.587463,1318
889.704163,1324
889.820862,1346
889.937561,1347
890.054199,1308
890.170837,1327
890.287598,1337
890.404236,1341
890.520874,1332
890.637634,1301
890.754211,1333
890.87085,1305
890.987549,1328
891.104187,1343
891.220886,1352
891.337463,1335
891.454102,1341
891.57074,1340
891.687378,1353
891.804077,1324
891.920654,1351
892.037231,1328
892.15387,1315
892.270447,1351
892.387085,1328
892.503723,1366
892.6203,1368
892.736877,1319
892.853516,1319
892.970032,1312
893.08667,1327
893.203186,1321
893.319763,1317
893.43634,1334
893.552917,1362
893.669556,1365
893.786011,1352
893.902588,1312
894.019165,1325
894.135681,1351
894.252197,1357
894.368835,1377
894.485291,1338
894.601868,1324
894.718384,1365
894.8349,1315
894.951355,1323
895.067932,1337
895.184448,1299
895.300964,1326
895.417419,1322
895.533936,1344
895.650452,1347
895.766907,1398
895.883423,1309
895.999878,1318
896.116333,1358
896.232849,1306
896.349304,1351
896.465759,1334
896.582214,1410
896.698669,1341
896.815125,1362
896.931641,1327
897.048035,1338
897.164551,1343
897.280884,1325
897.397339,1355
897.513794,1347
897.630249,1334
897.746582,1361
897.863098,1371
897.979431,1346
898.095886,1370
898.212341,1343
898.328674,1330
898.445129,1339
898.561462,1369
898.677795,1330
898.794312,1378
898.910645,1347
899.026978,1369
899.143433,1354
899.259766,1368
899.37616,1376
899.492493,1381
899.608765,1335
899.725159,1352
899.841553,1329
899.957947,1335
900.07428,1330
900.190552,1381
900.306946,1377
900.423157,1339
900.53949,1320
900.655884,1370
900.772156,1348
900.888489,1377
901.004822,1352
901.121033,1396
901.237366,1376
901.353699,1368
901.46991,1368
901.586304,1307
901.702515,1373
901.818787,1412
901.93512,1374
902.051331,1359
902.167603,1351
902.283875,1379
902.400085,1319
902.516418,1390
902.632629,1301
902.74884,1374
902.865112,1367
902.981384,1358
903.097595,1396
903.213867,1362
903.330017,1377
903.446289,1340
903.5625,1370
903.67865,1381
903.794922,1402
903.911072,1320
904.027344,1365
904.143494,1395
904.259705,1402
904.375916,1387
904.492065,1373
904.608215,1396
904.724426,1376
904.840576,1361
904.956726,1384
905.072876,1315
905.189087,1389
905.305176,1388
905.421387,1391
905.537537,1349
905.653687,1364
905.769775,1373
905.885925,1389
906.002014,1361
906.118164,1411
906.234314,1332
906.350403,1337
906.466492,1333
906.582642,1387
906.69873,1394
906.814758,1362
906.930908,1350
907.046936,1367
907.163086,1379
907.279175,1359
907.395264,1360
907.511353,1360
907.62738,1400
907.743408,1346
907.859497,1378
907.975525,1364
908.091553,1334
908.207703,1361
908.32373,1387
908.439758,1368
908.555786,1412
908.671814,1375
908.787842,1388
908.90387,1367
909.019775,1346
909.135864,1377
909.251892,1414
909.367859,1417
909.483826,1385
909.599854,1398
909.715881,1370
909.831848,1380
909.947815,1407
910.063782,1391
910.179749,1414
910.295776,1354
910.411743,1384
910.527649,1405
910.643616,1376
910.759583,1377
910.875488,1409
910.991455,1414
911.107361,1353
911.223267,1386
911.339294,1419
911.4552,1402
911.571106,1362
911.687073,1396
911.802979,1385
911.918823,1369
912.034729,1389
912.150635,1400
912.266602,1365
912.382446,1397
912.498352,1409
912.614197,1390
912.730103,1419
912.846008,1336
792.44574,1639
792.56488,1579
792.68396,1640
792.80304,1625
792.92218,1545
793.041199,1549
793.160339,1559
793.279419,1579
793.398499,1538
793.517578,1557
793.636658,1520
793.755737,1575
793.874817,1510
793.993896,1559
794.112976,1515
794.232056,1503
794.351074,1512
794.470215,1534
794.589233,1489
794.708313,1492
794.827393,1538
794.946411,1516
795.065552,1486
795.18457,1528
795.303589,1522
795.422668,1511
795.541687,1540
795.660767,1498
795.779846,1534
795.898865,1479
796.017883,1474
796.136963,1492
796.255981,1513
796.375061,1489
796.49408,1511
796.613037,1537
796.732117,1541
796.851135,1507
796.970154,1468
797.089233,1501
797.208191,1465
797.327271,1469
797.446228,1460
797.565186,1487
797.684265,1518
797.803223,1466
797.922241,1491
798.04126,1472
798.160278,1445
798.279297,1484
798.398315,1464
798.517273,1456
798.636292,1469
798.75531,1475
798.874268,1481
798.993286,1462
799.112244,1490
799.231323,1474
799.350281,1462
799.469238,1505
799.588257,1473
799.707153,1498
799.826111,1456
799.945129,1426
800.064087,1460
800.183044,1451
800.302063,1471
800.421021,1493
800.539978,1467
800.658936,1438
800.777893,1475
800.896912,1459
801.015747,1436
801.134705,1478
801.253723,1456
801.37262,1429
801.491638,1455
801.610535,1445
801.729492,1479
801.84845,1477
801.967407,1438
802.086243,1499
802.205261,1466
802.324158,1502
802.443115,1419
802.562073,1423
802.680969,1396
802.799927,1467
802.918762,1476
803.037659,1477
803.156677,1464
803.275574,1423
803.39447,1492
803.513428,1442
803.632263,1477
803.751221,1394
803.870117,1489
803.989014,1454
804.107971,1446
804.226746,1424
804.345642,1479
804.4646,1417
804.583496,1472
804.702393,1445
804.821228,1429
804.940125,1441
805.059021,1437
805.177917,1479
805.296814,1460
805.415649,1482
805.534546,1458
805.653442,1462
805.772278,1473
805.891113,1476
806.01001,1430
806.128906,1461
806.247742,1456
806.366577,1448
806.485413,1446
806.604309,1465
806.723145,1427
806.84198,1456
806.960876,1426
807.079712,1444
807.198486,1512
807.317383,1456
807.436218,1454
807.554993,1463
807.673889,1453
807.792725,1471
807.91156,1472
808.030396,1426
808.14917,1434
808.268005,1445
808.386841,1441
808.505676,1444
808.624451,1490
808.743286,1439
808.862122,1458
808.980896,1402
809.099731,1441
809.218506,1437
809.337341,1432
809.456116,1487
809.57489,1427
809.693726,1454
809.8125,1472
809.931274,1409
810.050049,1471
810.168884,1408
810.287659,1429
810.406372,1468
810.525269,1468
810.643982,1404
810.762756,1460
810.881531,1436
811.000305,1429
811.11908,1418
811.237854,1392
811.356567,1451
811.475403,1462
811.594116,1427
811.71283,1414
811.831604,1416
811.950378,1473
812.069153,1480
812.187927,1448
812.30658,1424
812.425415,1457
812.544128,1451
812.662781,1438
812.781616,1458
812.900269,1420
813.019043,1416
813.137756,1483
813.256531,1433
813.375244,1399
813.493896,1405
813.612671,1424
813.731384,1426
813.850037,1394
813.96875,1453
814.087524,1450
814.206238,1404
814.324951,1367
814.443604,1415
814.562256,1449
814.68103,1419
814.799683,1410
814.918335,1400
815.037109,1397
815.155762,1424
815.274475,1390
815.393188,1427
815.511841,1401
815.630554,1435
815.749146,1405
815.867859,1403
815.986572,1423
816.105164,1415
816.223877,1421
816.342529,1427
816.461182,1398
816.579895,1415
816.698486,1419
816.817139,1397
816.935791,1427
817.054504,1441
817.173096,1440
817.291748,1451
817.4104,1393
817.529053,1390
817.647644,1415
817.766235,1410
817.884949,1412
818.00354,1377
818.122192,1362
818.240845,1355
818.359436,1379
818.478088,1387
818.59668,1361
818.715271,1362
818.833923,1367
818.952515,1359
819.071106,1366
819.189758,1381
819.30835,1372
819.426941,1379
819.545532,1364
819.664124,1340
819.782715,1346
819.901306,1371
820.019897,1368
820.138489,1387
820.25708,1351
820.375671,1370
820.494202,1378
820.612732,1369
820.731384,1386
820.849915,1376
820.968506,1376
821.087097,1351
821.205627,1343
821.324158,1378
821.442749,1362
821.561279,1359
821.679871,1340
821.798401,1377
821.916931,1362
822.035461,1354
822.154053,1344
822.272583,1337
822.391174,1361
822.509583,1289
822.628174,1331
822.746704,1340
822.865234,1343
822.983765,1322
823.102295,1349
823.220825,1310
823.339294,1350
823.457825,1353
823.576355,1300
823.694824,1343
823.813354,1364
823.931885,1335
824.050354,1332
824.168884,1307
824.287354,1299
824.405823,1287
824.524353,1323
824.642822,1336
824.761353,1317
824.879822,1360
824.998291,1336
825.116699,1332
825.235291,1310
825.353699,1342
825.472168,1339
825.590637,1351
825.709106,1365
825.827576,1321
825.946045,1296
826.064453,1319
826.182983,1351
826.301392,1266
826.4198,1328
826.53833,1336
826.656738,1277
826.775208,1341
826.893677,1367
827.012024,1331
827.130493,1339
827.248962,1329
827.36731,1314
827.485779,1310
827.604248,1331
827.722595,1335
827.841064,1309
827.959412,1301
828.077942,1297
828.196289,1295
828.314636,1302
828.433105,1288
828.551514,1331
828.669861,1318
828.78833,1284
828.906677,1308
829.025085,1321
829.143433,1269
829.261841,1321
829.38031,1297
829.498657,1302
829.617004,1333
829.735413,1312
829.85376,1321
829.972107,1309
830.090515,1329
830.208862,1280
830.327209,1273
830.445557,1290
830.563904,1300
830.682312,1280
830.800659,1324
830.919006,1329
831.037354,1354
831.155701,1287
831.274048,1280
831.392395,1310
831.51062,1282
831.629028,1327
831.747314,1274
831.865662,1286
831.984009,1320
832.102356,1289
832.220642,1305
832.338928,1310
832.457275,1259
832.575623,1306
832.693909,1333
832.812134,1295
832.930481,1325
833.048828,1294
833.167114,1280
833.2854,1263
833.403687,1319
833.521973,1309
833.640259,1323
833.758545,1273
833.876831,1269
833.995056,1282
834.113281,1311
834.231628,1280
834.349915,1294
834.468201,1291
834.586426,1301
834.704651,1289
834.822998,1267
834.941162,1290
835.059448,1294
835.177673,1339
835.295959,1310
835.414246,1309
835.53241,1274
835.650635,1295
835.768921,1284
835.887146,1278
836.005371,1312
836.123596,1293
836.241821,1302
836.360046,1267
836.478271,1331
836.596497,1312
836.714722,1290
836.832886,1290
836.95105,1338
837.069336,1361
837.1875,1296
837.305725,1295
837.423889,1296
837.542053,1263
837.660339,1287
837.778503,1338
837.896667,1275
838.014832,1324
838.132996,1290
838.25116,1263
838.369385,1276
838.487488,1301
838.605713,1283
838.723877,1311
838.84198,1257
838.960205,1252
839.078308,1302
839.196472,1301
839.314636,1290
839.4328,1290
839.550964,1291
839.669067,1284
839.787231,1316
839.905396,1315
840.023499,1266
840.141602,1310
840.259766,1276
840.377869,1276
840.495972,1261
840.614136,1290
840.732239,1287
840.850342,1287
840.968445,1317
841.086548,1248
841.204651,1287
841.322754,1300
841.440918,1272
841.55896,1301
841.677002,1270
841.795166,1280
841.913208,1314
842.031311,1333
842.149353,1299
842.267456,1299
842.385498,1278
842.503601,1306
842.621643,1274
842.739746,1276
842.857788,1284
842.97583,1294
843.093933,1268
843.211975,1309
843.330017,1279
843.44812,1271
843.566101,1306
843.684204,1306
843.802246,1272
843.920227,1294
844.038269,1295
844.156311,1324
844.274292,1243
844.392395,1267
844.510376,1279
844.628357,1236
844.74646,1278
844.864441,1298
844.982422,1293
845.100403,1280
845.218384,1264
845.336426,1269
845.454468,1318
845.572449,1255
845.69043,1294
845.808411,1268
845.926453,1255
846.044373,1257
846.162354,1259
846.280396,1246
846.398315,1281
846.516296,1275
846.634216,1267
846.752197,1257
846.870178,1293
846.988098,1286
847.106079,1298
847.22406,1295
847.34198,1300
847.4599,1309
847.577881,1284
847.695801,1265
847.813782,1285
847.931641,1286
848.049561,1286
848.167603,1282
848.285461,1302
848.403381,1333
848.521362,1304
848.639221,1264
848.75708,1306
848.875,1284
848.99292,1319
849.110901,1300
849.22876,1286
849.34668,1307
849.464539,1296
849.582458,1290
849.700317,1300
849.818176,1314
849.936096,1283
850.053955,1307
850.171875,1257
850.289673,1278
850.407593,1315
850.525452,1236
850.643311,1275
850.761169,1282
850.878967,1293
850.996887,1275
851.114746,1297
851.232544,1291
851.350403,1282
851.468262,1341
851.58606,1263
851.703979,1310
851.821777,1306
851.939636,1301
852.057434,1296
852.175232,1292
852.293091,1305
852.410889,1279
852.528687,1300
852.646545,1289
852.764343,1288
852.88208,1293
852.999939,1270
853.117676,1278
853.235535,1240
853.353271,1296
853.471069,1305
853.588928,1288
853.706604,1266
853.824402,1299
853.9422,1257
854.059998,1285
854.177734,1320
854.295532,1260
854.413269,1306
854.531006,1284
854.648804,1291
854.766541,1315
854.884277,1303
855.002014,1272
855.119751,1296
855.237549,1333
855.355225,1256
855.473022,1257
855.590698,1301
855.708435,1287
855.826172,1291
855.943848,1310
856.061646,1283
856.179321,1286
856.296997,1276
856.414795,1278
856.53241,1313
856.650085,1264
856.767822,1287
856.885559,1274
857.003174,1291
857.120911,1304
857.238586,1279
857.356201,1293
857.473938,1241
857.591614,1296
857.709351,1314
857.826965,1295
857.944641,1285
858.062317,1278
858.179993,1264
858.297668,1251
858.415283,1297
858.532959,1269
858.650574,1289
858.768188,1306
858.885803,1321
859.003479,1281
859.121094,1258
859.23877,1318
859.356384,1303
859.473999,1291
859.591675,1290
859.709229,1310
859.826843,1288
859.944458,1270
860.062012,1262
860.179626,1276
860.297302,1298
860.414856,1329
860.532471,1269
860.650024,1321
860.767639,1276
860.885193,1271
861.002808,1307
861.120361,1269
861.237976,1296
861.35553,1317
861.473022,1286
861.590698,1314
861.708191,1309
861.825745,1301
861.943298,1243
862.060852,1299
862.178406,1310
862.295959,1326
862.413513,1293
862.531006,1281
862.64856,1287
862.766113,1287
862.883667,1289
863.00116,1245
863.118713,1299
863.236206,1316
863.353699,1321
863.471252,1270
863.588745,1284
863.706177,1290
863.82373,1299
863.941162,1244
864.058716,1277
864.176208,1276
864.29364,1279
864.411194,1283
864.528687,1254
864.646118,1355
864.763611,1311
864.881042,1286
864.998535,1313
865.116028,1284
865.233459,1262
865.350891,1298
865.468384,1303
865.585754,1315
865.703308,1303
865.820679,1294
865.938171,1245
866.055542,1278
866.173035,1259
866.290466,1273
866.407837,1309
866.52533,1313
866.6427,1290
866.760071,1288
866.877563,1302
866.994934,1313
867.112305,1291
867.229736,1295
867.347107,1325
867.464539,1244
867.58197,1324
867.699341,1314
867.81665,1233
867.934082,1321
868.051453,1314
868.168823,1307
868.286194,1288
868.403564,1299
868.520935,1308
868.638306,1272
868.755676,1307
868.872986,1347
868.990295,1261
869.107727,1289
869.225037,1314
869.342346,1267
869.459717,1313
869.577026,1305
869.694336,1291
869.811707,1271
869.929016,1319
870.046326,1315
870.163635,1327
870.280945,1292
870.398254,1317
870.515564,1316
870.632812,1296
870.750183,1263
870.867432,1323
870.984741,1280
871.102051,1324
871.219299,1291
871.336609,1281
871.453918,1333
871.571106,1308
871.688416,1292
871.805664,1332
871.922852,1305
872.040222,1312
872.157471,1335
872.274719,1320
872.391968,1301
872.509155,1335
872.626465,1287
872.743652,1291
872.860962,1302
872.978149,1302
873.095337,1305
873.212646,1262
873.329834,1330
873.44696,1318
873.564209,1289
873.681396,1306
873.798645,1327
873.915894,1302
874.03302,1329
874.150208,1329
874.267456,1312
874.384583,1281
874.501831,1283
874.618958,1313
874.736145,1342
874.853333,1274
874.970459,1311
875.087646,1310
875.204834,1312
875.32196,1258
875.439148,1326
875.556274,1318
875.673401,1327
875.790527,1330
875.907715,1300
876.024841,1292
876.141968,1322
876.259094,1333
876.376282,1293
876.493347,1332
876.610474,1334
876.7276,1325
876.844727,1311
876.961853,1305
877.078918,1357
877.195984,1318
877.313171,1336
877.430237,1349
877.547302,1351
877.664368,1340
877.781433,1331
877.898499,1302
878.015625,1312
878.13269,1299
878.249695,1332
878.366821,1320
878.483887,1293
878.600952,1320
878.717957,1305
878.834961,1333
878.952087,1336
879.069092,1321
879.186157,1292
879.303162,1370
879.420227,1331
879.537231,1306
879.654236,1304
879.77124,1329
879.888306,1339
880.005249,1284
880.122314,1329
880.239319,1360
880.356323,1311
880.473328,1313
880.590271,1293
880.707275,1310
880.824341,1275
880.941284,1325
881.058228,1282
881.175232,1318
881.292236,1309
881.40918,1323
881.526123,1340
881.643066,1292
881.760071,1303
881.877014,1280
881.993958,1313
882.11084,1306
882.227783,1344
882.344727,1292
882.46167,1316
882.578613,1347
882.695618,1318
882.812439,1333
882.929382,1301
883.046326,1308
883.163208,1311
883.280151,1340
883.397034,1331
883.513916,1334
883.630798,1300
883.747742,1302
883.864563,1304
883.981506,1302
884.098389,1306
884.21521,1342
884.332153,1341
884.448975,1342
884.565796,1355
884.682678,1355
884.7995,1273
884.916443,1305
885.033264,1363
885.150085,1355
885.266968,1353
885.383789,1342
885.500671,1348
885.617493,1340
885.734314,1352
885.851196,1317
885.967896,1376
886.084717,1332
886.201599,1320
886.318359,1356
886.435181,1318
886.552002,1354
886.668762,1357
886.785645,1367
886.902344,1367
887.019165,1354
887.135925,1331
887.252747,1357
887.369446,1348
887.486267,1362
887.603027,1339
887.719788,1342
887.836548,1340
887.953247,1394
888.070068,1386
888.186829,1323
888.303528,1333
888.420288,1357
888.536987,1338
888.653687,1346
888.770447,1347
888.887146,1329
889.003967,1327
889.120667,1373
889.237305,1366
889.354065,1321
889.470703,1337
889.587463,1368
889.704163,1349
889.820862,1336
889.937561,1332
890.054199,1399
890.170837,1322
890.287598,1332
890.404236,1327
890.520874,1379
890.637634,1353
890.754211,1336
890.87085,1368
890.987549,1372
891.104187,1396
891.220886,1362
891.337463,1351
891.454102,1333
891.57074,1407
891.687378,1375
891.804077,1365
891.920654,1320
892.037231,1344
892.15387,1374
892.270447,1374
892.387085,1362
892.503723,1343
892.6203,1347
892.736877,1380
892.853516,1358
892.970032,1389
893.08667,1390
893.203186,1372
893.319763,1359
893.43634,1342
893.552917,1390
893.669556,1367
893.786011,1396
893.902588,1385
894.019165,1386
894.135681,1341
894.252197,1362
894.368835,1334
894.485291,1373
894.601868,1335
894.718384,1393
894.8349,1342
894.951355,1386
895.067932,1392
895.184448,1367
895.300964,1367
895.417419,1314
895.533936,1362
895.650452,1359
895.766907,1366
895.883423,1354
895.999878,1368
896.116333,1349
896.232849,1395
896.349304,1389
896.465759,1367
896.582214,1383
896.698669,1364
896.815125,1295
896.931641,1348
897.048035,1362
897.164551,1394
897.280884,1358
897.397339,1348
897.513794,1344
897.630249,1394
897.746582,1372
897.863098,1401
897.979431,1426
898.095886,1413
898.212341,1396
898.328674,1424
898.445129,1390
898.561462,1371
898.677795,1398
898.794312,1317
898.910645,1427
899.026978,1382
899.143433,1407
899.259766,1378
899.37616,1407
899.492493,1378
899.608765,1328
899.725159,1358
899.841553,1406
899.957947,1366
900.07428,1390
900.190552,1382
900.306946,1430
900.423157,1422
900.53949,1393
900.655884,1340
900.772156,1390
900.888489,1398
901.004822,1409
901.121033,1413
901.237366,1353
901.353699,1381
901.46991,1405
901.586304,1377
901.702515,1368
901.818787,1418
901.93512,1394
902.051331,1431
902.167603,1371
902.283875,1383
902.400085,1353
902.516418,1402
902.632629,1384
902.74884,1467
902.865112,1431
902.981384,1371
903.097595,1393
903.213867,1357
903.330017,1388
903.446289,1384
903.5625,1369
903.67865,1392
903.794922,1394
903.911072,1406
904.027344,1411
904.143494,1355
904.259705,1364
904.375916,1368
904.492065,1401
904.608215,1408
904.724426,1382
904.840576,1441
904.956726,1381
905.072876,1423
905.189087,1335
905.305176,1448
905.421387,1398
905.537537,1408
905.653687,1367
905.769775,1379
905.885925,1452
906.002014,1422
906.118164,1423
906.234314,1403
906.350403,1402
906.466492,1373
906.582642,1395
906.69873,1400
906.814758,1425
906.930908,1407
907.046936,1395
907.163086,1386
907.279175,1435
907.395264,1393
907.511353,1405
907.62738,1394
907.743408,1412
907.859497,1390
907.975525,1393
908.091553,1432
908.207703,1405
908.32373,1391
908.439758,1410
908.555786,1407
908.671814,1417
908.787842,1384
908.90387,1412
909.019775,1433
909.135864,1421
909.251892,1432
909.367859,1448
909.483826,1445
909.599854,1432
909.715881,1437
909.831848,1419
909.947815,1378
910.063782,1403
910.179749,1409
910.295776,1446
910.411743,1458
910.527649,1431
910.643616,1400
910.759583,1422
910.875488,1450
910.991455,1392
911.107361,1412
911.223267,1414
911.339294,1401
911.4552,1346
911.571106,1408
911.687073,1411
911.802979,1421
911.918823,1433
912.034729,1457
912.150635,1429
912.266602,1443
912.382446,1386
912.498352,1431
912.614197,1408
912.730103,1416
912.846008,1423
792.44574,1610
792.56488,1636
792.68396,1642
792.80304,1608
792.92218,1519
793.041199,1574
793.160339,1546
793.279419,1575
793.398499,1546
793.517578,1545
793.636658,1591
793.755737,1542
793.874817,1559
793.993896,1580
794.112976,1528
794.232056,1551
794.351074,1549
794.470215,1533
794.589233,1542
794.708313,1488
794.827393,1504
794.946411,1537
795.065552,1536
795.18457,1513
795.303589,1552
795.422668,1538
795.541687,1553
795.660767,1536
795.779846,1522
795.898865,1524
796.017883,1520
796.136963,1461
796.255981,1535
796.375061,1501
796.49408,1534
796.613037,1511
796.732117,1497
796.851135,1491
796.970154,1520
797.089233,1511
797.208191,1516
797.327271,1506
797.446228,1483
797.565186,1545
797.684265,1538
797.803223,1465
797.922241,1487
798.04126,1472
798.160278,1487
798.279297,1497
798.398315,1511
798.517273,1501
798.636292,1457
798.75531,1482
798.874268,1490
798.993286,1508
799.112244,1486
799.231323,1451
799.350281,1509
799.469238,1494
799.588257,1494
799.707153,1517
799.826111,1500
799.945129,1494
800.064087,1467
800.183044,1480
800.302063,1499
800.421021,1485
800.539978,1465
800.658936,1459
800.777893,1485
800.896912,1457
801.015747,4070
801.134705,1594
801.253723,1486
801.37262,1486
801.491638,1461
801.610535,1490
801.729492,1507
801.84845,1481
801.967407,1460
802.086243,1467
802.205261,1470
802.324158,1475
802.443115,1467
802.562073,1495
802.680969,1482
802.799927,1479
802.918762,1500
803.037659,1433
803.156677,1487
803.275574,1433
803.39447,1477
803.513428,1459
803.632263,1455
803.751221,1477
803.870117,1443
803.989014,1455
804.107971,1474
804.226746,1483
804.345642,1402
804.4646,1459
804.583496,1481
804.702393,1431
804.821228,1453
804.940125,1460
805.059021,1477
805.177917,1478
805.296814,1468
805.415649,1514
805.534546,1447
805.653442,1448
805.772278,1535
805.891113,1441
806.01001,1495
806.128906,1432
806.247742,1501
806.366577,1413
806.485413,1483
806.604309,1448
806.723145,1448
806.84198,1488
806.960876,1468
807.079712,1478
807.198486,1429
807.317383,1463
807.436218,1469
807.554993,1434
807.673889,1430
807.792725,1490
807.91156,1424
808.030396,1452
808.14917,1410
808.268005,1474
808.386841,1454
808.505676,1443
808.624451,1434
808.743286,1459
808.862122,1444
808.980896,1466
809.099731,1457
809.218506,1451
809.337341,1480
809.456116,1461
809.57489,1459
809.693726,1433
809.8125,1467
809.931274,1455
810.050049,1488
810.168884,1431
810.287659,1473
810.406372,1439
810.525269,1441
810.643982,1460
810.762756,1471
810.881531,1453
811.000305,1436
811.11908,1395
811.237854,1445
811.356567,1434
811.475403,1492
811.594116,1416
811.71283,1465
811.831604,1450
811.950378,1434
812.069153,1491
812.187927,1433
812.30658,1449
812.425415,1445
812.544128,1418
812.662781,1442
812.781616,1458
812.900269,1419
813.019043,1487
813.137756,1408
813.256531,1468
813.375244,1418
813.493896,1445
813.612671,1455
813.731384,1419
813.850037,1450
813.96875,1442
814.087524,1415
814.206238,1384
814.324951,1436
814.443604,1455
814.562256,1430
814.68103,1447
814.799683,1390
814.918335,1420
815.037109,1428
815.155762,1409
815.274475,1421
815.393188,1413
815.511841,1406
815.630554,1437
815.749146,1371
815.867859,1418
815.986572,1431
816.105164,1354
816.223877,1446
816.342529,1404
816.461182,1428
816.579895,1437
816.698486,1388
816.817139,1426
816.935791,1439
817.054504,1414
817.173096,1387
817.291748,1406
817.4104,1455
817.529053,1371
817.647644,1461
817.766235,1403
817.884949,1423
818.00354,1400
818.122192,1376
818.240845,1383
818.359436,1375
818.478088,1416
818.59668,1385
818.715271,1386
818.833923,1380
818.952515,1375
819.071106,1371
819.189758,1401
819.30835,1373
819.426941,1398
819.545532,1398
819.664124,1396
819.782715,1379
819.901306,1355
820.019897,1377
820.138489,1359
820.25708,1389
820.375671,1376
820.494202,1380
820.612732,1393
820.731384,1386
820.849915,1382
820.968506,1364
821.087097,1352
821.205627,1375
821.324158,1329
821.442749,1332
821.561279,1390
821.679871,1360
821.798401,1378
821.916931,1368
822.035461,1382
822.154053,1371
822.272583,1323
822.391174,1368
822.509583,1319
822.628174,1334
822.746704,1363
822.865234,1334
822.983765,1347
823.102295,1345
823.220825,1354
823.339294,1354
823.457825,1344
823.576355,1402
823.694824,1342
823.813354,1367
823.931885,1327
824.050354,1300
824.168884,1320
824.287354,1328
824.405823,1330
824.524353,1359
824.642822,1309
824.761353,1363
824.879822,1373
824.998291,1285
825.116699,1320
825.235291,1347
825.353699,1298
825.472168,1337
825.590637,1363
825.709106,1354
825.827576,1322
825.946045,1346
826.064453,1296
826.182983,1363
826.301392,1367
826.4198,1329
826.53833,1356
826.656738,1318
826.775208,1295
826.893677,1324
827.012024,1300
827.130493,1327
827.248962,1351
827.36731,1278
827.485779,1338
827.604248,1317
827.722595,1380
827.841064,1298
827.959412,1334
828.077942,1329
828.196289,1326
828.314636,1301
828.433105,1322
828.551514,1322
828.669861,1293
828.78833,1332
828.906677,1287
829.025085,1287
829.143433,1292
829.261841,1333
829.38031,1324
829.498657,1303
829.617004,1307
829.735413,1340
829.85376,1299
829.972107,1332
830.090515,1295
830.208862,1301
830.327209,1331
830.445557,1310
830.563904,1377
830.682312,1292
830.800659,1315
830.919006,1321
831.037354,1296
831.155701,1321
831.274048,1346
831.392395,1299
831.51062,1372
831.629028,1274
831.747314,1313
831.865662,1329
831.984009,1313
832.102356,1325
832.220642,1309
832.338928,1304
832.457275,1303
832.575623,1323
832.693909,1278
832.812134,1338
832.930481,1293
833.048828,1334
833.167114,1302
833.2854,1310
833.403687,1326
833.521973,1295
833.640259,1275
833.758545,1277
833.876831,1261
833.995056,1318
834.113281,1290
834.231628,1283
834.349915,1304
834.468201,1324
834.586426,1290
834.704651,1350
834.822998,1294
834.941162,1293
835.059448,1297
835.177673,1310
835.295959,1282
835.414246,1287
835.53241,1247
835.650635,1288
835.768921,1342
835.887146,1326
836.005371,1288
836.123596,1296
836.241821,1275
836.360046,1298
836.478271,1276
836.596497,1320
836.714722,1286
836.832886,1288
836.95105,1300
837.069336,1274
837.1875,1327
837.305725,1286
837.423889,1296
837.542053,1276
837.660339,1314
837.778503,1285
837.896667,1318
838.014832,1309
838.132996,1322
838.25116,1312
838.369385,1313
838.487488,1318
838.605713,1335
838.723877,1317
838.84198,1257
838.960205,1315
839.078308,1254
839.196472,1298
839.314636,1270
839.4328,1284
839.550964,1345
839.669067,1320
839.787231,1288
839.905396,1254
840.023499,1308
840.141602,1300
840.259766,1280
840.377869,1296
840.495972,1362
840.614136,1270
840.732239,1316
840.850342,1308
840.968445,1312
841.086548,1297
841.204651,1315
841.322754,1316
841.440918,1311
841.55896,1315
841.677002,1290
841.795166,1304
841.913208,1327
842.031311,1264
842.149353,1293
842.267456,1271
842.385498,1305
842.503601,1240
842.621643,1282
842.739746,1319
842.857788,1279
842.97583,1291
843.093933,1286
843.211975,1275
843.330017,1346
843.44812,1290
843.566101,1323
843.684204,1284
843.802246,1283
843.920227,1275
844.038269,1303
844.156311,1320
844.274292,1287
844.392395,1308
844.510376,1311
844.628357,1341
844.74646,1312
844.864441,1323
844.982422,1283
845.100403,1317
845.218384,1331
845.336426,1288
845.454468,1290
845.572449,1330
845.69043,1292
845.808411,1291
845.926453,1299
846.044373,1313
846.162354,1305
846.280396,1270
846.398315,1294
846.516296,1290
846.634216,1291
846.752197,1317
846.870178,1306
846.988098,1285
847.106079,1298
847.22406,1300
847.34198,1303
847.4599,1294
847.577881,1320
847.695801,1253
847.813782,1300
847.931641,1261
848.049561,1278
848.167603,1265
848.285461,1268
848.403381,1289
848.521362,1299
848.639221,1273
848.75708,1283
848.875,1288
848.99292,1314
849.110901,1288
849.22876,1291
849.34668,1292
849.464539,1298
849.582458,1277
849.700317,1268
849.818176,1308
849.936096,1258
850.053955,1321
850.171875,1306
850.289673,1266
850.407593,1312
850.525452,1300
850.643311,1280
850.761169,1284
850.878967,1311
850.996887,1306
851.114746,1286
851.232544,1290
851.350403,1322
851.468262,1326
851.58606,1266
851.703979,1284
851.821777,1260
851.939636,1304
852.057434,1310
852.175232,1293
852.293091,1305
852.410889,1311
852.528687,1280
852.646545,1276
852.764343,1270
852.88208,1310
852.999939,1236
853.117676,1282
853.235535,1307
853.353271,1296
853.471069,1301
853.588928,1265
853.706604,1273
853.824402,1323
853.9422,1323
854.059998,1289
854.177734,1310
854.295532,1327
854.413269,1249
854.531006,1308
854.648804,1307
854.766541,1290
854.884277,1273
855.002014,1322
855.119751,1291
855.237549,1321
855.355225,1265
855.473022,1287
855.590698,1285
855.708435,1289
855.826172,1281
855.943848,1300
856.061646,1334
856.179321,1277
856.296997,1330
856.414795,1300
856.53241,1306
856.650085,1291
856.767822,1272
856.885559,1309
857.003174,1308
857.120911,1310
857.238586,1271
857.356201,1287
857.473938,1313
857.591614,1297
857.709351,1313
857.826965,1323
857.944641,1349
858.062317,1280
858.179993,1293
858.297668,1359
858.415283,1297
858.532959,1316
858.650574,1301
858.768188,1284
858.885803,1310
859.003479,1277
859.121094,1299
859.23877,1315
859.356384,1311
859.473999,1280
859.591675,1314
859.709229,1309
859.826843,1281
859.944458,1266
860.062012,1315
860.179626,1246
860.297302,1295
860.414856,1312
860.532471,1284
860.650024,1344
860.767639,1320
860.885193,1295
861.002808,1304
861.120361,1293
861.237976,1352
861.35553,1314
861.473022,1252
861.590698,1285
861.708191,1275
861.825745,1293
861.943298,1286
862.060852,1325
862.178406,1228
862.295959,1292
862.413513,1251
862.531006,1331
862.64856,1304
862.766113,1270
862.883667,1256
863.00116,1282
863.118713,1280
863.236206,1299
863.353699,1289
863.471252,1303
863.588745,1306
863.706177,1297
863.82373,1300
863.941162,1299
864.058716,1299
864.176208,1266
864.29364,1267
864.411194,1286
864.528687,1330
864.646118,1297
864.763611,1310
864.881042,1303
864.998535,1317
865.116028,1292
865.233459,1308
865.350891,1282
865.468384,1318
865.585754,1344
865.703308,1311
865.820679,1312
865.938171,1284
866.055542,1323
866.173035,1289
866.290466,1350
866.407837,1335
866.52533,1290
866.6427,1308
866.760071,1356
866.877563,1318
866.994934,1302
867.112305,1317
867.229736,1314
867.347107,1304
867.464539,1313
867.58197,1319
867.699341,1295
867.81665,1314
867.934082,1318
868.051453,1317
868.168823,1349
868.286194,1307
868.403564,1281
868.520935,1296
868.638306,1254
868.755676,1303
868.872986,1298
868.990295,1277
869.107727,1330
869.225037,1316
869.342346,1303
869.459717,1292
869.577026,1359
869.694336,1324
869.811707,1295
869.929016,1319
870.046326,1342
870.163635,1320
870.280945,1339
870.398254,1328
870.515564,1314
870.632812,1306
870.750183,1319
870.867432,1329
870.984741,1315
871.102051,1285
871.219299,1318
871.336609,1288
871.453918,1305
871.571106,1318
871.688416,1324
871.805664,1318
871.922852,1315
872.040222,1292
872.157471,1322
872.274719,1333
872.391968,1288
872.509155,1324
872.626465,1322
872.743652,1320
872.860962,1350
872.978149,1288
873.095337,1311
873.212646,1339
873.329834,1326
873.44696,1313
873.564209,1322
873.681396,1320
873.798645,1306
873.915894,1313
874.03302,1274
874.150208,1309
874.267456,1317
874.384583,1310
874.501831,1309
874.618958,1333
874.736145,1329
874.853333,1332
874.970459,1321
875.087646,1349
875.204834,1290
875.32196,1339
875.439148,1315
875.556274,1329
875.673401,1285
875.790527,1341
875.907715,1314
876.024841,1320
876.141968,1338
876.259094,1333
876.376282,1321
876.493347,1317
876.610474,1271
876.7276,1348
876.844727,1338
876.961853,1303
877.078918,1303
877.195984,1375
877.313171,1325
877.430237,1342
877.547302,1357
877.664368,1321
877.781433,1325
877.898499,1353
878.015625,1278
878.13269,1308
878.249695,1350
878.366821,1358
878.483887,1346
878.600952,1307
878.717957,1329
878.834961,1340
878.952087,1318
879.069092,1335
879.186157,1304
879.303162,1341
879.420227,1323
879.537231,1359
879.654236,1296
879.77124,1334
879.888306,1321
880.005249,1306
880.122314,1310
880.239319,1301
880.356323,1341
880.473328,1361
880.590271,1366
880.707275,1335
880.824341,1321
880.941284,1374
881.058228,1330
881.175232,1356
881.292236,1307
881.40918,1328
881.526123,1329
881.643066,1325
881.760071,1323
881.877014,1339
881.993958,1330
882.11084,1353
882.227783,1353
882.344727,1340
882.46167,1337
882.578613,1289
882.695618,1342
882.812439,1343
882.929382,1338
883.046326,1313
883.163208,1299
883.280151,1326
883.397034,1344
883.513916,1342
883.630798,1357
883.747742,1346
883.864563,1321
883.981506,1315
884.098389,1367
884.21521,1346
884.332153,1367
884.448975,1317
884.565796,1349
884.682678,1368
884.7995,1333
884.916443,1373
885.033264,1362
885.150085,1322
885.266968,1369
885.383789,1324
885.500671,1353
885.617493,1341
885.734314,1338
885.851196,1339
885.967896,1357
886.084717,1309
886.201599,1375
886.318359,1377
886.435181,1354
886.552002,1326
886.668762,1385
886.785645,1323
886.902344,1342
887.019165,1339
887.135925,1337
887.252747,1366
887.369446,1363
887.486267,1408
887.603027,1334
887.719788,1393
887.836548,1340
887.953247,1364
888.070068,1335
888.186829,1356
888.303528,1357
888.420288,1334
888.536987,1370
888.653687,1371
888.770447,1323
888.887146,1385
889.003967,1347
889.120667,1377
889.237305,1344
889.354065,1367
889.470703,1378
889.587463,1333
889.704163,1352
889.820862,1345
889.937561,1363
890.054199,1362
890.170837,1316
890.287598,1359
890.404236,1354
890.520874,1352
890.637634,1363
890.754211,1386
890.87085,1358
890.987549,1371
891.104187,1406
891.220886,1390
891.337463,1361
891.454102,1378
891.57074,1375
891.687378,1368
891.804077,1357
891.920654,1380
892.037231,1376
892.15387,1335
892.270447,1372
892.387085,1340
892.503723,1378
892.6203,1357
892.736877,1362
892.853516,1345
892.970032,1379
893.08667,1323
893.203186,1362
893.319763,1337
893.43634,1401
893.552917,1350
893.669556,1407
893.786011,1379
893.902588,1375
894.019165,1422
894.135681,1425
894.252197,1372
894.368835,1415
894.485291,1368
894.601868,1417
894.718384,1357
894.8349,1376
894.951355,1327
895.067932,1362
895.184448,1373
895.300964,1363
895.417419,1405
895.533936,1406
895.650452,1408
895.766907,1442
895.883423,1396
895.999878,1409
896.116333,1384
896.232849,1385
896.349304,1409
896.465759,1390
896.582214,1424
896.698669,1405
896.815125,1388
896.931641,1393
897.048035,1414
897.164551,1356
897.280884,1377
897.397339,1401
897.513794,1428
897.630249,1409
897.746582,1339
897.863098,1350
897.979431,1399
898.095886,1407
898.212341,1376
898.328674,1407
898.445129,1376
898.561462,1398
898.677795,1373
898.794312,1411
898.910645,1378
899.026978,1370
899.143433,1390
899.259766,1397
899.37616,1421
899.492493,1350
899.608765,1385
899.725159,1404
899.841553,1393
899.957947,1415
900.07428,1402
900.190552,1403
900.306946,1446
900.423157,1348
900.53949,1394
900.655884,1418
900.772156,1395
900.888489,1353
901.004822,1415
901.121033,1398
901.237366,1404
901.353699,1322
901.46991,1408
901.586304,1387
901.702515,1412
901.818787,1397
901.93512,1375
902.051331,1398
902.167603,1393
902.283875,1379
902.400085,1373
902.516418,1381
902.632629,1393
902.74884,1412
902.865112,1453
902.981384,1428
903.097595,1416
903.213867,1414
903.330017,1417
903.446289,1393
903.5625,1419
903.67865,1376
903.794922,1435
903.911072,1438
904.027344,1415
904.143494,1465
904.259705,1397
904.375916,1389
904.492065,1384
904.608215,1431
904.724426,1401
904.840576,1423
904.956726,1388
905.072876,1418
905.189087,1375
905.305176,1434
905.421387,1396
905.537537,1416
905.653687,1429
905.769775,1406
905.885925,1403
906.002014,1368
906.118164,1405
906.234314,1416
906.350403,1418
906.466492,1465
906.582642,1405
906.69873,1412
906.814758,1421
906.930908,1453
907.046936,1413
907.163086,1465
907.279175,1439
907.395264,1396
907.511353,1407
907.62738,1420
907.743408,1405
907.859497,1427
907.975525,1428
908.091553,1407
908.207703,1429
908.32373,1408
908.439758,1443
908.555786,1395
908.671814,1446
908.787842,1464
908.90387,1449
909.019775,1428
909.135864,1389
909.251892,1448
909.367859,1457
909.483826,1427
909.599854,1400
909.715881,1441
909.831848,1403
909.947815,1426
910.063782,1411
910.179749,1432
910.295776,1421
910.411743,1420
910.527649,1453
910.643616,1437
910.759583,1443
910.875488,1452
910.991455,1398
911.107361,1459
911.223267,1473
911.339294,1427
911.4552,1394
911.571106,1411
911.687073,1398
911.802979,1435
911.918823,1391
912.034729,1434
912.150635,1449
912.266602,1433
912.382446,1419
912.498352,1417
912.614197,1446
912.730103,1458
912.846008,1431
