792.44574,3292
792.56488,3210
792.68396,3162
792.80304,3128
792.92218,3052
793.041199,2968
793.160339,2931
793.279419,2910
793.398499,2849
793.517578,2753
793.636658,2724
793.755737,2758
793.874817,2747
793.993896,2689
794.112976,2626
794.232056,2566
794.351074,2506
794.470215,2568
794.589233,2542
794.708313,2497
794.827393,2411
794.946411,2393
795.065552,2448
795.18457,2380
795.303589,2368
795.422668,2390
795.541687,2386
795.660767,2370
795.779846,2284
795.898865,2260
796.017883,2286
796.136963,2251
796.255981,2241
796.375061,2222
796.49408,2168
796.613037,2156
796.732117,2143
796.851135,2162
796.970154,2180
797.089233,2171
797.208191,2151
797.327271,2139
797.446228,2131
797.565186,2105
797.684265,2127
797.803223,2016
797.922241,2108
798.04126,2104
798.160278,2109
798.279297,2080
798.398315,2079
798.517273,2073
798.636292,2049
798.75531,2029
798.874268,2045
798.993286,2069
799.112244,2045
799.231323,2013
799.350281,2020
799.469238,2086
799.588257,2048
799.707153,2060
799.826111,2003
799.945129,1999
800.064087,2049
800.183044,2007
800.302063,2002
800.421021,1997
800.539978,1986
800.658936,1954
800.777893,1989
800.896912,1959
801.015747,1919
801.134705,1974
801.253723,1937
801.37262,1937
801.491638,1951
801.610535,1917
801.729492,1983
801.84845,1916
801.967407,1954
802.086243,1944
802.205261,1972
802.324158,1951
802.443115,1959
802.562073,1936
802.680969,2042
802.799927,1920
802.918762,1943
803.037659,1911
803.156677,1930
803.275574,1943
803.39447,1954
803.513428,1934
803.632263,1922
803.751221,1945
803.870117,1918
803.989014,1954
804.107971,1908
804.226746,1927
804.345642,1929
804.4646,1920
804.583496,1879
804.702393,1897
804.821228,1864
804.940125,1900
805.059021,1927
805.177917,1923
805.296814,1967
805.415649,1914
805.534546,1915
805.653442,1923
805.772278,1928
805.891113,1932
806.01001,1907
806.128906,1931
806.247742,1951
806.366577,1926
806.485413,1960
806.604309,1902
806.723145,1927
806.84198,1907
806.960876,1873
807.079712,1874
807.198486,1911
807.317383,1946
807.436218,1886
807.554993,1931
807.673889,1943
807.792725,1879
807.91156,1896
808.030396,1909
808.14917,1932
808.268005,1966
808.386841,1961
808.505676,1925
808.624451,1897
808.743286,1911
808.862122,1928
808.980896,1957
809.099731,1967
809.218506,1916
809.337341,1873
809.456116,1982
809.57489,1939
809.693726,1927
809.8125,2006
809.931274,1964
810.050049,1976
810.168884,1946
810.287659,1954
810.406372,1923
810.525269,1922
810.643982,1997
810.762756,1959
810.881531,1970
811.000305,1993
811.11908,1933
811.237854,1917
811.356567,1959
811.475403,1957
811.594116,1944
811.71283,2020
811.831604,1992
811.950378,2007
812.069153,1923
812.187927,1967
812.30658,1953
812.425415,1935
812.544128,1966
812.662781,1908
812.781616,1930
812.900269,1920
813.019043,1884
813.137756,1970
813.256531,1982
813.375244,1943
813.493896,1932
813.612671,1942
813.731384,1888
813.850037,1943
813.96875,1925
814.087524,1903
814.206238,1854
814.324951,1932
814.443604,1845
814.562256,1917
814.68103,1884
814.799683,1930
814.918335,1898
815.037109,1908
815.155762,1886
815.274475,1890
815.393188,1887
815.511841,1862
815.630554,1861
815.749146,1894
815.867859,1826
815.986572,1848
816.105164,1812
816.223877,1882
816.342529,1834
816.461182,1853
816.579895,1887
816.698486,1888
816.817139,1834
816.935791,1918
817.054504,1866
817.173096,1895
817.291748,1862
817.4104,1850
817.529053,1794
817.647644,1822
817.766235,1798
817.884949,1789
818.00354,1751
818.122192,1775
818.240845,1749
818.359436,1699
818.478088,1718
818.59668,1666
818.715271,1639
818.833923,1681
818.952515,1608
819.071106,1626
819.189758,1582
819.30835,1592
819.426941,1561
819.545532,1576
819.664124,1565
819.782715,1600
819.901306,1545
820.019897,1549
820.138489,1558
820.25708,1588
820.375671,1535
820.494202,1563
820.612732,1524
820.731384,1564
820.849915,1580
820.968506,1549
821.087097,1518
821.205627,1479
821.324158,1515
821.442749,1534
821.561279,1489
821.679871,1515
821.798401,1535
821.916931,1465
822.035461,1535
822.154053,1509
822.272583,1453
822.391174,1490
822.509583,1496
822.628174,1504
822.746704,1469
822.865234,1527
822.983765,1487
823.102295,1532
823.220825,1466
823.339294,1478
823.457825,1458
823.576355,1459
823.694824,1482
823.813354,1473
823.931885,1457
824.050354,1540
824.168884,1470
824.287354,1509
824.405823,1512
824.524353,1578
824.642822,1526
824.761353,1500
824.879822,1493
824.998291,1490
825.116699,1512
825.235291,1486
825.353699,1545
825.472168,1449
825.590637,1489
825.709106,1481
825.827576,1454
825.946045,1492
826.064453,1499
826.182983,1392
826.301392,1421
826.4198,1455
826.53833,1441
826.656738,1452
826.775208,1458
826.893677,1420
827.012024,1459
827.130493,1447
827.248962,1442
827.36731,1445
827.485779,1406
827.604248,1428
827.722595,1439
827.841064,1391
827.959412,1464
828.077942,1399
828.196289,1441
828.314636,1404
828.433105,1408
828.551514,1401
828.669861,1415
828.78833,1381
828.906677,1423
829.025085,1410
829.143433,1387
829.261841,1422
829.38031,1378
829.498657,1441
829.617004,1440
829.735413,1434
829.85376,1380
829.972107,1421
830.090515,1458
830.208862,1385
830.327209,1403
830.445557,1425
830.563904,1397
830.682312,1445
830.800659,1391
830.919006,1427
831.037354,1420
831.155701,1445
831.274048,1467
831.392395,1480
831.51062,1436
831.629028,1428
831.747314,1433
831.865662,1382
831.984009,1407
832.102356,1470
832.220642,1419
832.338928,1457
832.457275,1474
832.575623,1410
832.693909,1414
832.812134,1432
832.930481,1390
833.048828,1414
833.167114,1443
833.2854,1406
833.403687,1421
833.521973,1437
833.640259,1386
833.758545,1451
833.876831,1430
833.995056,1428
834.113281,1433
834.231628,1459
834.349915,1465
834.468201,1429
834.586426,1431
834.704651,1442
834.822998,1446
834.941162,1425
835.059448,1446
835.177673,1404
835.295959,1440
835.414246,1434
835.53241,1403
835.650635,1438
835.768921,1448
835.887146,1374
836.005371,1465
836.123596,1447
836.241821,1440
836.360046,1435
836.478271,1483
836.596497,1465
836.714722,1439
836.832886,1486
836.95105,1416
837.069336,1467
837.1875,1428
837.305725,1411
837.423889,1478
837.542053,1459
837.660339,1461
837.778503,1446
837.896667,1414
838.014832,1497
838.132996,1448
838.25116,1418
838.369385,1453
838.487488,1452
838.605713,1515
838.723877,1487
838.84198,1490
838.960205,1464
839.078308,1469
839.196472,1490
839.314636,1474
839.4328,1467
839.550964,1482
839.669067,1468
839.787231,1496
839.905396,1505
840.023499,1468
840.141602,1525
840.259766,1516
840.377869,1488
840.495972,1517
840.614136,1494
840.732239,1474
840.850342,1496
840.968445,1472
841.086548,1507
841.204651,1539
841.322754,1526
841.440918,1503
841.55896,1512
841.677002,1471
841.795166,1502
841.913208,1504
842.031311,1530
842.149353,1472
842.267456,1494
842.385498,1559
842.503601,1481
842.621643,1477
842.739746,1501
842.857788,1498
842.97583,1484
843.093933,1526
843.211975,1482
843.330017,1486
843.44812,1507
843.566101,1504
843.684204,1452
843.802246,1453
843.920227,1474
844.038269,1488
844.156311,1488
844.274292,1517
844.392395,1506
844.510376,1504
844.628357,1469
844.74646,1449
844.864441,1485
844.982422,1492
845.100403,1475
845.218384,1461
845.336426,1458
845.454468,1505
845.572449,1467
845.69043,1445
845.808411,1414
845.926453,1445
846.044373,1449
846.162354,1458
846.280396,1429
846.398315,1458
846.516296,1483
846.634216,1454
846.752197,1501
846.870178,1479
846.988098,1477
847.106079,1455
847.22406,1415
847.34198,1517
847.4599,1444
847.577881,1474
847.695801,1486
847.813782,1476
847.931641,1472
848.049561,1486
848.167603,1424
848.285461,1458
848.403381,1508
848.521362,1430
848.639221,1498
848.75708,1497
848.875,1506
848.99292,1495
849.110901,1472
849.22876,1461
849.34668,1494
849.464539,1497
849.582458,1476
849.700317,1498
849.818176,1515
849.936096,1498
850.053955,1469
850.171875,1505
850.289673,1521
850.407593,1534
850.525452,1490
850.643311,1550
850.761169,1503
850.878967,1460
850.996887,1487
851.114746,1520
851.232544,1505
851.350403,1469
851.468262,1523
851.58606,1519
851.703979,1480
851.821777,1505
851.939636,1470
852.057434,1489
852.175232,1479
852.293091,1455
852.410889,1500
852.528687,1540
852.646545,1615
852.764343,1571
852.88208,1533
852.999939,1513
853.117676,1523
853.235535,1467
853.353271,1506
853.471069,1480
853.588928,1516
853.706604,1444
853.824402,1443
853.9422,1462
854.059998,1470
854.177734,1454
854.295532,1494
854.413269,1512
854.531006,1521
854.648804,1506
854.766541,1481
854.884277,1451
855.002014,1495
855.119751,1542
855.237549,1500
855.355225,1521
855.473022,1508
855.590698,1485
855.708435,1498
855.826172,1445
855.943848,1532
856.061646,1486
856.179321,1473
856.296997,1482
856.414795,1508
856.53241,1527
856.650085,1526
856.767822,1488
856.885559,1559
857.003174,1532
857.120911,1527
857.238586,1548
857.356201,1524
857.473938,1543
857.591614,1528
857.709351,1538
857.826965,1585
857.944641,1531
858.062317,1513
858.179993,1493
858.297668,1493
858.415283,1522
858.532959,1548
858.650574,1522
858.768188,1550
858.885803,1513
859.003479,1500
859.121094,1510
859.23877,1492
859.356384,1532
859.473999,1477
859.591675,1537
859.709229,1465
859.826843,1487
859.944458,1477
860.062012,1486
860.179626,1431
860.297302,1475
860.414856,1457
860.532471,1448
860.650024,1482
860.767639,1431
860.885193,1495
861.002808,1452
861.120361,1477
861.237976,1486
861.35553,1496
861.473022,1471
861.590698,1483
861.708191,1488
861.825745,1456
861.943298,1494
862.060852,1462
862.178406,1428
862.295959,1466
862.413513,1392
862.531006,1433
862.64856,1471
862.766113,1454
862.883667,1435
863.00116,1422
863.118713,1392
863.236206,1430
863.353699,1411
863.471252,1458
863.588745,1434
863.706177,1437
863.82373,1496
863.941162,1489
864.058716,1455
864.176208,1465
864.29364,1462
864.411194,1463
864.528687,1435
864.646118,1433
864.763611,1419
864.881042,1436
864.998535,1476
865.116028,1435
865.233459,1483
865.350891,1413
865.468384,1455
865.585754,1461
865.703308,1457
865.820679,1436
865.938171,1437
866.055542,1452
866.173035,1470
866.290466,1452
866.407837,1439
866.52533,1446
866.6427,1456
866.760071,1456
866.877563,1442
866.994934,1448
867.112305,1451
867.229736,1433
867.347107,1434
867.464539,1445
867.58197,1467
867.699341,1436
867.81665,1473
867.934082,1454
868.051453,1499
868.168823,1435
868.286194,1479
868.403564,1471
868.520935,1424
868.638306,1435
868.755676,1510
868.872986,1453
868.990295,1475
869.107727,1492
869.225037,1463
869.342346,1493
869.459717,1477
869.577026,1462
869.694336,1478
869.811707,1477
869.929016,1485
870.046326,1487
870.163635,1524
870.280945,1526
870.398254,1558
870.515564,1550
870.632812,1518
870.750183,1522
870.867432,1539
870.984741,1520
871.102051,1481
871.219299,1510
871.336609,1572
871.453918,1603
871.571106,1518
871.688416,1550
871.805664,1575
871.922852,1581
872.040222,1522
872.157471,1571
872.274719,1609
872.391968,1572
872.509155,1572
872.626465,1589
872.743652,1532
872.860962,1564
872.978149,1543
873.095337,1592
873.212646,1534
873.329834,1533
873.44696,1504
873.564209,1535
873.681396,1562
873.798645,1530
873.915894,1523
874.03302,1517
874.150208,1565
874.267456,1549
874.384583,1562
874.501831,1610
874.618958,1556
874.736145,1594
874.853333,1594
874.970459,1600
875.087646,1604
875.204834,1567
875.32196,1567
875.439148,1555
875.556274,1576
875.673401,1578
875.790527,1525
875.907715,1546
876.024841,1520
876.141968,1522
876.259094,1540
876.376282,1479
876.493347,1498
876.610474,1541
876.7276,1500
876.844727,1474
876.961853,1468
877.078918,1520
877.195984,1450
877.313171,1476
877.430237,1506
877.547302,1497
877.664368,1472
877.781433,1507
877.898499,1492
878.015625,1508
878.13269,1468
878.249695,1472
878.366821,1457
878.483887,1526
878.600952,1461
878.717957,1468
878.834961,1478
878.952087,1463
879.069092,1441
879.186157,1466
879.303162,1482
879.420227,1459
879.537231,1467
879.654236,1485
879.77124,1450
879.888306,1432
880.005249,1447
880.122314,1434
880.239319,1411
880.356323,1459
880.473328,1439
880.590271,1432
880.707275,1470
880.824341,1421
880.941284,1469
881.058228,1421
881.175232,1441
881.292236,1434
881.40918,1396
881.526123,1431
881.643066,1449
881.760071,1427
881.877014,1469
881.993958,1456
882.11084,1424
882.227783,1474
882.344727,1450
882.46167,1451
882.578613,1446
882.695618,1414
882.812439,1473
882.929382,1437
883.046326,1395
883.163208,1446
883.280151,1433
883.397034,1459
883.513916,1492
883.630798,1489
883.747742,1418
883.864563,1446
883.981506,1495
884.098389,1448
884.21521,1528
884.332153,1502
884.448975,1508
884.565796,1517
884.682678,1558
884.7995,1618
884.916443,1616
885.033264,1652
885.150085,1728
885.266968,1735
885.383789,1756
885.500671,1783
885.617493,1751
885.734314,1743
885.851196,1745
885.967896,1713
886.084717,1744
886.201599,1736
886.318359,1687
886.435181,1670
886.552002,1681
886.668762,1680
886.785645,1659
886.902344,1677
887.019165,1646
887.135925,1633
887.252747,1595
887.369446,1625
887.486267,1604
887.603027,1556
887.719788,1558
887.836548,1542
887.953247,1537
888.070068,1515
888.186829,1471
888.303528,1522
888.420288,1504
888.536987,1482
888.653687,1486
888.770447,1417
888.887146,1480
889.003967,1432
889.120667,1471
889.237305,1458
889.354065,1423
889.470703,1452
889.587463,1422
889.704163,1440
889.820862,1459
889.937561,1447
890.054199,1358
890.170837,1452
890.287598,1397
890.404236,1423
890.520874,1385
890.637634,1474
890.754211,1437
890.87085,1436
890.987549,1455
891.104187,1462
891.220886,1442
891.337463,1466
891.454102,1433
891.57074,1492
891.687378,1472
891.804077,1472
891.920654,1448
892.037231,1463
892.15387,1401
892.270447,1444
892.387085,1412
892.503723,1494
892.6203,1469
892.736877,1446
892.853516,1475
892.970032,1397
893.08667,1432
893.203186,1472
893.319763,1443
893.43634,1411
893.552917,1429
893.669556,1396
893.786011,1442
893.902588,1445
894.019165,1445
894.135681,1454
894.252197,1446
894.368835,1502
894.485291,1454
894.601868,1457
894.718384,1455
894.8349,1427
894.951355,1430
895.067932,1452
895.184448,1466
895.300964,1450
895.417419,1439
895.533936,1457
895.650452,1442
895.766907,1450
895.883423,1434
895.999878,1474
896.116333,1472
896.232849,1470
896.349304,1415
896.465759,1417
896.582214,1470
896.698669,1469
896.815125,1494
896.931641,1431
897.048035,1490
897.164551,1436
897.280884,1426
897.397339,1417
897.513794,1433
897.630249,1412
897.746582,1469
897.863098,1468
897.979431,1462
898.095886,1446
898.212341,1476
898.328674,1475
898.445129,1482
898.561462,1445
898.677795,1484
898.794312,1473
898.910645,1441
899.026978,1487
899.143433,1456
899.259766,1481
899.37616,1505
899.492493,1475
899.608765,1470
899.725159,1451
899.841553,1428
899.957947,1474
900.07428,1466
900.190552,1481
900.306946,1500
900.423157,1461
900.53949,1454
900.655884,1464
900.772156,1505
900.888489,1464
901.004822,1476
901.121033,1467
901.237366,1496
901.353699,1495
901.46991,1470
901.586304,1474
901.702515,1505
901.818787,1527
901.93512,1459
902.051331,1559
902.167603,1580
902.283875,1558
902.400085,1598
902.516418,1659
902.632629,1584
902.74884,1681
902.865112,1628
902.981384,1698
903.097595,1644
903.213867,1674
903.330017,1650
903.446289,1607
903.5625,1592
903.67865,1566
903.794922,1567
903.911072,1561
904.027344,1595
904.143494,1609
904.259705,1572
904.375916,1542
904.492065,1527
904.608215,1499
904.724426,1496
904.840576,1501
904.956726,1535
905.072876,1516
905.189087,1483
905.305176,1489
905.421387,1464
905.537537,1488
905.653687,1477
905.769775,1483
905.885925,1492
906.002014,1479
906.118164,1478
906.234314,1478
906.350403,1448
906.466492,1479
906.582642,1464
906.69873,1458
906.814758,1445
906.930908,1480
907.046936,1451
907.163086,1432
907.279175,1489
907.395264,1443
907.511353,1463
907.62738,1451
907.743408,1465
907.859497,1487
907.975525,1489
908.091553,1472
908.207703,1519
908.32373,1470
908.439758,1455
908.555786,1483
908.671814,1446
908.787842,1467
908.90387,1470
909.019775,1476
909.135864,1447
909.251892,1468
909.367859,1511
909.483826,1447
909.599854,1516
909.715881,1479
909.831848,1460
909.947815,1480
910.063782,1440
910.179749,1477
910.295776,1452
910.411743,1475
910.527649,1467
910.643616,1414
910.759583,1480
910.875488,1498
910.991455,1475
911.107361,1421
911.223267,1481
911.339294,1444
911.4552,1447
911.571106,1503
911.687073,1443
911.802979,1472
911.918823,1485
912.034729,1506
912.150635,1474
912.266602,1469
912.382446,1467
912.498352,1445
912.614197,1433
912.730103,1426
912.846008,1449
792.44574,3403
792.56488,3297
792.68396,3147
792.80304,3128
792.92218,3091
793.041199,3012
793.160339,2953
793.279419,2967
793.398499,2859
793.517578,2823
793.636658,2820
793.755737,2796
793.874817,2753
793.993896,2717
794.112976,2695
794.232056,2605
794.351074,2658
794.470215,2557
794.589233,2517
794.708313,2497
794.827393,2527
794.946411,2433
795.065552,2487
795.18457,2454
795.303589,2358
795.422668,2394
795.541687,2414
795.660767,2389
795.779846,2314
795.898865,2323
796.017883,2291
796.136963,2305
796.255981,2300
796.375061,2239
796.49408,2222
796.613037,2256
796.732117,2194
796.851135,2202
796.970154,2176
797.089233,2191
797.208191,2128
797.327271,2179
797.446228,2151
797.565186,2120
797.684265,2136
797.803223,2110
797.922241,2098
798.04126,2087
798.160278,2142
798.279297,2098
798.398315,2055
798.517273,2112
798.636292,2097
798.75531,2032
798.874268,2076
798.993286,2083
799.112244,2061
799.231323,2081
799.350281,2089
799.469238,2118
799.588257,2059
799.707153,2048
799.826111,1974
799.945129,2048
800.064087,2050
800.183044,2002
800.302063,2030
800.421021,2041
800.539978,1988
800.658936,2006
800.777893,2022
800.896912,2030
801.015747,2008
801.134705,2027
801.253723,1996
801.37262,2024
801.491638,2039
801.610535,2036
801.729492,2000
801.84845,1963
801.967407,2010
802.086243,1957
802.205261,1987
802.324158,1996
802.443115,1933
802.562073,2010
802.680969,1960
802.799927,2002
802.918762,1971
803.037659,2000
803.156677,1963
803.275574,1921
803.39447,1985
803.513428,1940
803.632263,2010
803.751221,1947
803.870117,1960
803.989014,1960
804.107971,1952
804.226746,1974
804.345642,1930
804.4646,1877
804.583496,1917
804.702393,1926
804.821228,1948
804.940125,1923
805.059021,1982
805.177917,1941
805.296814,1992
805.415649,2002
805.534546,1983
805.653442,1861
805.772278,1945
805.891113,1930
806.01001,2002
806.128906,1942
806.247742,1934
806.366577,1965
806.485413,1896
806.604309,1983
806.723145,1937
806.84198,1938
806.960876,1919
807.079712,1958
807.198486,1951
807.317383,1886
807.436218,1973
807.554993,1976
807.673889,1945
807.792725,1903
807.91156,1968
808.030396,1954
808.14917,1977
808.268005,1960
808.386841,1928
808.505676,1922
808.624451,1969
808.743286,1904
808.862122,1974
808.980896,1961
809.099731,1933
809.218506,1976
809.337341,1986
809.456116,1941
809.57489,1981
809.693726,1937
809.8125,1929
809.931274,1936
810.050049,1970
810.168884,1960
810.287659,1951
810.406372,1962
810.525269,1938
810.643982,1937
810.762756,1997
810.881531,1967
811.000305,2000
811.11908,1916
811.237854,1942
811.356567,1985
811.475403,1974
811.594116,1957
811.71283,2003
811.831604,1972
811.950378,2000
812.069153,1961
812.187927,1970
812.30658,1957
812.425415,2010
812.544128,1936
812.662781,2010
812.781616,1975
812.900269,1967
813.019043,2021
813.137756,1974
813.256531,1975
813.375244,1939
813.493896,1984
813.612671,1953
813.731384,1932
813.850037,1920
813.96875,1890
814.087524,1968
814.206238,1876
814.324951,1935
814.443604,1899
814.562256,1966
814.68103,1907
814.799683,1932
814.918335,1932
815.037109,1930
815.155762,1917
815.274475,1902
815.393188,1891
815.511841,1903
815.630554,1919
815.749146,1911
815.867859,1906
815.986572,1869
816.105164,1882
816.223877,1888
816.342529,1895
816.461182,1881
816.579895,1879
816.698486,1868
816.817139,1901
816.935791,1927
817.054504,1904
817.173096,1924
817.291748,1898
817.4104,1860
817.529053,1884
817.647644,1873
817.766235,1801
817.884949,1720
818.00354,1777
818.122192,1758
818.240845,1706
818.359436,1702
818.478088,1727
818.59668,1694
818.715271,1661
818.833923,1685
818.952515,1663
819.071106,1666
819.189758,1657
819.30835,1626
819.426941,1643
819.545532,1599
819.664124,1580
819.782715,1593
819.901306,1579
820.019897,1570
820.138489,1552
820.25708,1575
820.375671,1626
820.494202,1607
820.612732,1561
820.731384,1581
820.849915,1552
820.968506,1563
821.087097,1558
821.205627,1573
821.324158,1543
821.442749,1556
821.561279,1568
821.679871,1522
821.798401,1538
821.916931,1510
822.035461,1521
822.154053,1583
822.272583,1569
822.391174,1501
822.509583,1509
822.628174,1495
822.746704,1514
822.865234,1507
822.983765,1512
823.102295,1526
823.220825,1485
823.339294,1522
823.457825,1534
823.576355,1551
823.694824,1526
823.813354,1524
823.931885,1546
824.050354,1491
824.168884,1525
824.287354,1518
824.405823,1541
824.524353,1520
824.642822,1500
824.761353,1538
824.879822,1495
824.998291,1496
825.116699,1510
825.235291,1525
825.353699,1555
825.472168,1530
825.590637,1487
825.709106,1526
825.827576,1515
825.946045,1499
826.064453,1464
826.182983,1462
826.301392,1498
826.4198,1444
826.53833,1442
826.656738,1489
826.775208,1452
826.893677,1499
827.012024,1479
827.130493,1473
827.248962,1529
827.36731,1435
827.485779,1473
827.604248,1460
827.722595,1424
827.841064,1432
827.959412,1445
828.077942,1435
828.196289,1431
828.314636,1399
828.433105,1452
828.551514,1454
828.669861,1441
828.78833,1433
828.906677,1456
829.025085,1431
829.143433,1425
829.261841,1417
829.38031,1412
829.498657,1463
829.617004,1424
829.735413,1419
829.85376,1464
829.972107,1430
830.090515,1408
830.208862,1412
830.327209,1401
830.445557,1411
830.563904,1460
830.682312,1402
830.800659,1417
830.919006,1419
831.037354,1429
831.155701,1475
831.274048,1469
831.392395,1441
831.51062,1440
831.629028,1424
831.747314,1470
831.865662,1400
831.984009,1422
832.102356,1462
832.220642,1431
832.338928,1451
832.457275,1428
832.575623,1463
832.693909,1450
832.812134,1439
832.930481,1444
833.048828,1470
833.167114,1489
833.2854,1422
833.403687,1434
833.521973,1455
833.640259,1460
833.758545,1491
833.876831,1431
833.995056,1480
834.113281,1455
834.231628,1494
834.349915,1471
834.468201,1518
834.586426,1454
834.704651,1459
834.822998,1443
834.941162,1454
835.059448,1480
835.177673,1451
835.295959,1464
835.414246,1478
835.53241,1439
835.650635,1468
835.768921,1479
835.887146,1477
836.005371,1437
836.123596,1475
836.241821,1440
836.360046,1448
836.478271,1449
836.596497,1430
836.714722,1433
836.832886,1484
836.95105,1433
837.069336,1475
837.1875,1523
837.305725,1476
837.423889,1478
837.542053,1492
837.660339,1502
837.778503,1460
837.896667,1477
838.014832,1491
838.132996,1483
838.25116,1466
838.369385,1491
838.487488,1514
838.605713,1475
838.723877,1462
838.84198,1479
838.960205,1510
839.078308,1531
839.196472,1479
839.314636,1463
839.4328,1482
839.550964,1524
839.669067,1477
839.787231,1495
839.905396,1453
840.023499,1501
840.141602,1513
840.259766,1498
840.377869,1506
840.495972,1509
840.614136,1528
840.732239,1551
840.850342,1547
840.968445,1537
841.086548,1562
841.204651,1512
841.322754,1542
841.440918,1500
841.55896,1535
841.677002,1528
841.795166,1540
841.913208,1519
842.031311,1558
842.149353,1520
842.267456,1527
842.385498,1558
842.503601,1523
842.621643,1553
842.739746,1466
842.857788,1514
842.97583,1517
843.093933,1504
843.211975,1504
843.330017,1518
843.44812,1536
843.566101,1556
843.684204,1550
843.802246,1485
843.920227,1547
844.038269,1520
844.156311,1480
844.274292,1528
844.392395,1535
844.510376,1527
844.628357,1500
844.74646,1486
844.864441,1508
844.982422,1510
845.100403,1482
845.218384,1467
845.336426,1465
845.454468,1496
845.572449,1504
845.69043,1503
845.808411,1453
845.926453,1479
846.044373,1463
846.162354,1481
846.280396,1479
846.398315,1452
846.516296,1505
846.634216,1493
846.752197,1514
846.870178,1496
846.988098,1506
847.106079,1472
847.22406,1498
847.34198,1523
847.4599,1512
847.577881,1505
847.695801,1490
847.813782,1502
847.931641,1497
848.049561,1490
848.167603,1505
848.285461,1478
848.403381,1514
848.521362,1520
848.639221,1498
848.75708,1486
848.875,1565
848.99292,1514
849.110901,1498
849.22876,1519
849.34668,1536
849.464539,1540
849.582458,1532
849.700317,1538
849.818176,1534
849.936096,1511
850.053955,1526
850.171875,1550
850.289673,1540
850.407593,1527
850.525452,1554
850.643311,1499
850.761169,1541
850.878967,1503
850.996887,1520
851.114746,1548
851.232544,1534
851.350403,1464
851.468262,1525
851.58606,1499
851.703979,1496
851.821777,1540
851.939636,1498
852.057434,1536
852.175232,1516
852.293091,1502
852.410889,1560
852.528687,1558
852.646545,1579
852.764343,1577
852.88208,1628
852.999939,1523
853.117676,1543
853.235535,1527
853.353271,1504
853.471069,1504
853.588928,1500
853.706604,1518
853.824402,1513
853.9422,1504
854.059998,1497
854.177734,1516
854.295532,1529
854.413269,1537
854.531006,1519
854.648804,1538
854.766541,1523
854.884277,1550
855.002014,1544
855.119751,1522
855.237549,1507
855.355225,1547
855.473022,1527
855.590698,1520
855.708435,1481
855.826172,1516
855.943848,1552
856.061646,1578
856.179321,1521
856.296997,1490
856.414795,1559
856.53241,1526
856.650085,1549
856.767822,1555
856.885559,1615
857.003174,1566
857.120911,1562
857.238586,1605
857.356201,1590
857.473938,1542
857.591614,1588
857.709351,1548
857.826965,1522
857.944641,1591
858.062317,1597
858.179993,1543
858.297668,1586
858.415283,1513
858.532959,1573
858.650574,1530
858.768188,1525
858.885803,1592
859.003479,1530
859.121094,1534
859.23877,1556
859.356384,1554
859.473999,1531
859.591675,1507
859.709229,1552
859.826843,1471
859.944458,1491
860.062012,1506
860.179626,1487
860.297302,1492
860.414856,1512
860.532471,1525
860.650024,1523
860.767639,1504
860.885193,1537
861.002808,1486
861.120361,1508
861.237976,1494
861.35553,1516
861.473022,1518
861.590698,1501
861.708191,1494
861.825745,1509
861.943298,1463
862.060852,1498
862.178406,1499
862.295959,1467
862.413513,1523
862.531006,1468
862.64856,1461
862.766113,1483
862.883667,1514
863.00116,1463
863.118713,1457
863.236206,1448
863.353699,1464
863.471252,1447
863.588745,1513
863.706177,1486
863.82373,1510
863.941162,1484
864.058716,1518
864.176208,1492
864.29364,1462
864.411194,1456
864.528687,1453
864.646118,1474
864.763611,1467
864.881042,1468
864.998535,1479
865.116028,1495
865.233459,1477
865.350891,1458
865.468384,1491
865.585754,1476
865.703308,1471
865.820679,1471
865.938171,1478
866.055542,1504
866.173035,1447
866.290466,1425
866.407837,1503
866.52533,1489
866.6427,1501
866.760071,1480
866.877563,1427
866.994934,1477
867.112305,1491
867.229736,1499
867.347107,1444
867.464539,1487
867.58197,1483
867.699341,1508
867.81665,1445
867.934082,1543
868.051453,1477
868.168823,1458
868.286194,1483
868.403564,1471
868.520935,1469
868.638306,1498
868.755676,1446
868.872986,1494
868.990295,1480
869.107727,1511
869.225037,1479
869.342346,1511
869.459717,1498
869.577026,1546
869.694336,1504
869.811707,1476
869.929016,1535
870.046326,1549
870.163635,1536
870.280945,1529
870.398254,1529
870.515564,1567
870.632812,1542
870.750183,1506
870.867432,1570
870.984741,1559
871.102051,1548
871.219299,1569
871.336609,1579
871.453918,1584
871.571106,1573
871.688416,1626
871.805664,1561
871.922852,1580
872.040222,1613
872.157471,1583
872.274719,1603
872.391968,1587
872.509155,1607
872.626465,1616
872.743652,1522
872.860962,1565
872.978149,1565
873.095337,1565
873.212646,1567
873.329834,1581
873.44696,1559
873.564209,1564
873.681396,1569
873.798645,1582
873.915894,1541
874.03302,1571
874.150208,1582
874.267456,1580
874.384583,1612
874.501831,1631
874.618958,1632
874.736145,1615
874.853333,1614
874.970459,1612
875.087646,1599
875.204834,1584
875.32196,1630
875.439148,1597
875.556274,1565
875.673401,1602
875.790527,1533
875.907715,1553
876.024841,1580
876.141968,1573
876.259094,1524
876.376282,1529
876.493347,1566
876.610474,1551
876.7276,1535
876.844727,1554
876.961853,1521
877.078918,1551
877.195984,1506
877.313171,1520
877.430237,1546
877.547302,1511
877.664368,1508
877.781433,1551
877.898499,1500
878.015625,1552
878.13269,1516
878.249695,1490
878.366821,1500
878.483887,1501
878.600952,1485
878.717957,1469
878.834961,1494
878.952087,1494
879.069092,1498
879.186157,1471
879.303162,1470
879.420227,1512
879.537231,1443
879.654236,1452
879.77124,1454
879.888306,1443
880.005249,1486
880.122314,1445
880.239319,1495
880.356323,1494
880.473328,1448
880.590271,1462
880.707275,1461
880.824341,1446
880.941284,1499
881.058228,1474
881.175232,1442
881.292236,1468
881.40918,1435
881.526123,1475
881.643066,1473
881.760071,1446
881.877014,1471
881.993958,1455
882.11084,1498
882.227783,1487
882.344727,1476
882.46167,1419
882.578613,1483
882.695618,1462
882.812439,1492
882.929382,1459
883.046326,1486
883.163208,1485
883.280151,1485
883.397034,1451
883.513916,1500
883.630798,1487
883.747742,1490
883.864563,1499
883.981506,1484
884.098389,1481
884.21521,1505
884.332153,1564
884.448975,1578
884.565796,1593
884.682678,1611
884.7995,1649
884.916443,1664
885.033264,1735
885.150085,1782
885.266968,1744
885.383789,1781
885.500671,1835
885.617493,1805
885.734314,1782
885.851196,1718
885.967896,1805
886.084717,1793
886.201599,1700
886.318359,1747
886.435181,1801
886.552002,1741
886.668762,1737
886.785645,1710
886.902344,1692
887.019165,1645
887.135925,1673
887.252747,1658
887.369446,1656
887.486267,1578
887.603027,1590
887.719788,1591
887.836548,1603
887.953247,1571
888.070068,1574
888.186829,1579
888.303528,1553
888.420288,1512
888.536987,1529
888.653687,1484
888.770447,1455
888.887146,1505
889.003967,1510
889.120667,1439
889.237305,1435
889.354065,1481
889.470703,1444
889.587463,1437
889.704163,1511
889.820862,1444
889.937561,1456
890.054199,1461
890.170837,1444
890.287598,1480
890.404236,1460
890.520874,1475
890.637634,1429
890.754211,1445
890.87085,1430
890.987549,1480
891.104187,1502
891.220886,1455
891.337463,1479
891.454102,1475
891.57074,1507
891.687378,1476
891.804077,1508
891.920654,1523
892.037231,1519
892.15387,1520
892.270447,1460
892.387085,1516
892.503723,1489
892.6203,1451
892.736877,1430
892.853516,1487
892.970032,1470
893.08667,1507
893.203186,1486
893.319763,1460
893.43634,1443
893.552917,1492
893.669556,1479
893.786011,1459
893.902588,1479
894.019165,1484
894.135681,1501
894.252197,1489
894.368835,1478
894.485291,1482
894.601868,1498
894.718384,1463
894.8349,1475
894.951355,1470
895.067932,1435
895.184448,1437
895.300964,1472
895.417419,1475
895.533936,1405
895.650452,1507
895.766907,1489
895.883423,1509
895.999878,1491
896.116333,1472
896.232849,1463
896.349304,1472
896.465759,1444
896.582214,1461
896.698669,1462
896.815125,1437
896.931641,1457
897.048035,1457
897.164551,1472
897.280884,1448
897.397339,1465
897.513794,1478
897.630249,1490
897.746582,1473
897.863098,1472
897.979431,1455
898.095886,1510
898.212341,1488
898.328674,1542
898.445129,1511
898.561462,1514
898.677795,1548
898.794312,1487
898.910645,1432
899.026978,1504
899.143433,1486
899.259766,1490
899.37616,1512
899.492493,1504
899.608765,1470
899.725159,1553
899.841553,1505
899.957947,1495
900.07428,1566
900.190552,1528
900.306946,1489
900.423157,1504
900.53949,1453
900.655884,1490
900.772156,1491
900.888489,1560
901.004822,1481
901.121033,1517
901.237366,1480
901.353699,1502
901.46991,1533
901.586304,1563
901.702515,1506
901.818787,1561
901.93512,1587
902.051331,1585
902.167603,1596
902.283875,1653
902.400085,1585
902.516418,1644
902.632629,1678
902.74884,1692
902.865112,1720
902.981384,1668
903.097595,1659
903.213867,1694
903.330017,1674
903.446289,1713
903.5625,1642
903.67865,1619
903.794922,1646
903.911072,1658
904.027344,1635
904.143494,1581
904.259705,1589
904.375916,1526
904.492065,1591
904.608215,1533
904.724426,1549
904.840576,1559
904.956726,1515
905.072876,1506
905.189087,1538
905.305176,1536
905.421387,1486
905.537537,1518
905.653687,1491
905.769775,1494
905.885925,1530
906.002014,1503
906.118164,1490
906.234314,1487
906.350403,1501
906.466492,1485
906.582642,1486
906.69873,1470
906.814758,1447
906.930908,1561
907.046936,1487
907.163086,1468
907.279175,1492
907.395264,1505
907.511353,1480
907.62738,1552
907.743408,1458
907.859497,1497
907.975525,1487
908.091553,1491
908.207703,1447
908.32373,1469
908.439758,1524
908.555786,1528
908.671814,1481
908.787842,1459
908.90387,1487
909.019775,1496
909.135864,1490
909.251892,1555
909.367859,1494
909.483826,1531
909.599854,1507
909.715881,1494
909.831848,1520
909.947815,1533
910.063782,1555
910.179749,1538
910.295776,1506
910.411743,1495
910.527649,1512
910.643616,1484
910.759583,1529
910.875488,1528
910.991455,1545
911.107361,1492
911.223267,1491
911.339294,1470
911.4552,1491
911.571106,1511
911.687073,1529
911.802979,1481
911.918823,1488
912.034729,1471
912.150635,1494
912.266602,1509
912.382446,1462
912.498352,1504
912.614197,1474
912.730103,1458
912.846008,1514
792.44574,3384
792.56488,3249
792.68396,3270
792.80304,3186
792.92218,3096
793.041199,3057
793.160339,2983
793.279419,2920
793.398499,2921
793.517578,2853
793.636658,2805
793.755737,2817
793.874817,2747
793.993896,2713
794.112976,2672
794.232056,2590
794.351074,2609
794.470215,2573
794.589233,2544
794.708313,2483
794.827393,2520
794.946411,2443
795.065552,2407
795.18457,2474
795.303589,2464
795.422668,2385
795.541687,2405
795.660767,2368
795.779846,2347
795.898865,2290
796.017883,2317
796.136963,2262
796.255981,2281
796.375061,2229
796.49408,2312
796.613037,2216
796.732117,2242
796.851135,2234
796.970154,2219
797.089233,2206
797.208191,2187
797.327271,2209
797.446228,2147
797.565186,2163
797.684265,2174
797.803223,2139
797.922241,2141
798.04126,2097
798.160278,2089
798.279297,2094
798.398315,2089
798.517273,2103
798.636292,2086
798.75531,2039
798.874268,2086
798.993286,2031
799.112244,2095
799.231323,2062
799.350281,2119
799.469238,2028
799.588257,2099
799.707153,2084
799.826111,2054
799.945129,2067
800.064087,2055
800.183044,2070
800.302063,2048
800.421021,2061
800.539978,2019
800.658936,1989
800.777893,2075
800.896912,1960
801.015747,2002
801.134705,2038
801.253723,2042
801.37262,2026
801.491638,1988
801.610535,2006
801.729492,1967
801.84845,2063
801.967407,1989
802.086243,2016
802.205261,1980
802.324158,2026
802.443115,1996
802.562073,1990
802.680969,2002
802.799927,1984
802.918762,1965
803.037659,1979
803.156677,2052
803.275574,1955
803.39447,1960
803.513428,1969
803.632263,1938
803.751221,1934
803.870117,1941
803.989014,1969
804.107971,1966
804.226746,1939
804.345642,1993
804.4646,1975
804.583496,1926
804.702393,1950
804.821228,1948
804.940125,1938
805.059021,1913
805.177917,1940
805.296814,1954
805.415649,1984
805.534546,1951
805.653442,1906
805.772278,1927
805.891113,1975
806.01001,1998
806.128906,1939
806.247742,1986
806.366577,1933
806.485413,1976
806.604309,1972
806.723145,1996
806.84198,1960
806.960876,1970
807.079712,1925
807.198486,2006
807.317383,1949
807.436218,1939
807.554993,1892
807.673889,1979
807.792725,1920
807.91156,1937
808.030396,1989
808.14917,1980
808.268005,1932
808.386841,1963
808.505676,1992
808.624451,1989
808.743286,1944
808.862122,1937
808.980896,1978
809.099731,1927
809.218506,1906
809.337341,1958
809.456116,1971
809.57489,2021
809.693726,1982
809.8125,1972
809.931274,2033
810.050049,1930
810.168884,1963
810.287659,2039
810.406372,1964
810.525269,2002
810.643982,1957
810.762756,1952
810.881531,1961
811.000305,1940
811.11908,1954
811.237854,2003
811.356567,1972
811.475403,1982
811.594116,1977
811.71283,1976
811.831604,2000
811.950378,1936
812.069153,1970
812.187927,1973
812.30658,2036
812.425415,1959
812.544128,1974
812.662781,1974
812.781616,1971
812.900269,1997
813.019043,1981
813.137756,1955
813.256531,1993
813.375244,1994
813.493896,1992
813.612671,1968
813.731384,1946
813.850037,1939
813.96875,1972
814.087524,1963
814.206238,1921
814.324951,1941
814.443604,1910
814.562256,1964
814.68103,1948
814.799683,1948
814.918335,1935
815.037109,1923
815.155762,1926
815.274475,1925
815.393188,1911
815.511841,1849
815.630554,1931
815.749146,1919
815.867859,1862
815.986572,1888
816.105164,1916
816.223877,1896
816.342529,1887
816.461182,1901
816.579895,1955
816.698486,1883
816.817139,1878
816.935791,1951
817.054504,1924
817.173096,1948
817.291748,1911
817.4104,1913
817.529053,1872
817.647644,1861
817.766235,1846
817.884949,1777
818.00354,1803
818.122192,1759
818.240845,1776
818.359436,1735
818.478088,1706
818.59668,1724
818.715271,1683
818.833923,1676
818.952515,1654
819.071106,1675
819.189758,1686
819.30835,1666
819.426941,1616
819.545532,1625
819.664124,1592
819.782715,1613
819.901306,1643
820.019897,1601
820.138489,1601
820.25708,1594
820.375671,1584
820.494202,1581
820.612732,1563
820.731384,1610
820.849915,1577
820.968506,1570
821.087097,1548
821.205627,1598
821.324158,1507
821.442749,1536
821.561279,1534
821.679871,1556
821.798401,1550
821.916931,1531
822.035461,1541
822.154053,1541
822.272583,1530
822.391174,1503
822.509583,1524
822.628174,1546
822.746704,1520
822.865234,1508
822.983765,1528
823.102295,1489
823.220825,1493
823.339294,1497
823.457825,1547
823.576355,1508
823.694824,1543
823.813354,1538
823.931885,1521
824.050354,1494
824.168884,1592
824.287354,1559
824.405823,1506
824.524353,1566
824.642822,1538
824.761353,1552
824.879822,1556
824.998291,1531
825.116699,1514
825.235291,1539
825.353699,1526
825.472168,1478
825.590637,1497
825.709106,1490
825.827576,1514
825.946045,1472
826.064453,1507
826.182983,1483
826.301392,1467
826.4198,1485
826.53833,1465
826.656738,1471
826.775208,1475
826.893677,1439
827.012024,1447
827.130493,1454
827.248962,1457
827.36731,1451
827.485779,1471
827.604248,1474
827.722595,1408
827.841064,1461
827.959412,1427
828.077942,1406
828.196289,1438
828.314636,1470
828.433105,1426
828.551514,1441
828.669861,1435
828.78833,1413
828.906677,1455
829.025085,1390
829.143433,1478
829.261841,1419
829.38031,1434
829.498657,1432
829.617004,1466
829.735413,1433
829.85376,1420
829.972107,1459
830.090515,1439
830.208862,1432
830.327209,1404
830.445557,1422
830.563904,1420
830.682312,1413
830.800659,1448
830.919006,1465
831.037354,1477
831.155701,1422
831.274048,1469
831.392395,1446
831.51062,1438
831.629028,1435
831.747314,1454
831.865662,1410
831.984009,1475
832.102356,1463
832.220642,1506
832.338928,1487
832.457275,1471
832.575623,1478
832.693909,1456
832.812134,1468
832.930481,1481
833.048828,1425
833.167114,1449
833.2854,1459
833.403687,1444
833.521973,1450
833.640259,1435
833.758545,1442
833.876831,1486
833.995056,1425
834.113281,1436
834.231628,1483
834.349915,1478
834.468201,1459
834.586426,1437
834.704651,1458
834.822998,1469
834.941162,1476
835.059448,1490
835.177673,1435
835.295959,1490
835.414246,1450
835.53241,1457
835.650635,1456
835.768921,1466
835.887146,1489
836.005371,1471
836.123596,1427
836.241821,1482
836.360046,1467
836.478271,1436
836.596497,1511
836.714722,1444
836.832886,1511
836.95105,1455
837.069336,1441
837.1875,1483
837.305725,1447
837.423889,1463
837.542053,1498
837.660339,1414
837.778503,1489
837.896667,1488
838.014832,1473
838.132996,1456
838.25116,1473
838.369385,1499
838.487488,1497
838.605713,1465
838.723877,1472
838.84198,1466
838.960205,1490
839.078308,1501
839.196472,1487
839.314636,1474
839.4328,1455
839.550964,1451
839.669067,1552
839.787231,1495
839.905396,1525
840.023499,1498
840.141602,1535
840.259766,1559
840.377869,1500
840.495972,1518
840.614136,1525
840.732239,1571
840.850342,1480
840.968445,1542
841.086548,1544
841.204651,1592
841.322754,1551
841.440918,1509
841.55896,1491
841.677002,1572
841.795166,1539
841.913208,1545
842.031311,1561
842.149353,1540
842.267456,1505
842.385498,1498
842.503601,1543
842.621643,1510
842.739746,1556
842.857788,1549
842.97583,1568
843.093933,1527
843.211975,1501
843.330017,1560
843.44812,1576
843.566101,1515
843.684204,1509
843.802246,1582
843.920227,1544
844.038269,1578
844.156311,1511
844.274292,1527
844.392395,1534
844.510376,1551
844.628357,1509
844.74646,1481
844.864441,1528
844.982422,1512
845.100403,1503
845.218384,1512
845.336426,1484
845.454468,1526
845.572449,1539
845.69043,1453
845.808411,1532
845.926453,1495
846.044373,1486
846.162354,1489
846.280396,1491
846.398315,1461
846.516296,1517
846.634216,1518
846.752197,1481
846.870178,1490
846.988098,1491
847.106079,1528
847.22406,1524
847.34198,1545
847.4599,1504
847.577881,1545
847.695801,1551
847.813782,1518
847.931641,1494
848.049561,1537
848.167603,1486
848.285461,1528
848.403381,1532
848.521362,1494
848.639221,1519
848.75708,1515
848.875,1512
848.99292,1563
849.110901,1499
849.22876,1533
849.34668,1563
849.464539,1557
849.582458,1545
849.700317,1499
849.818176,1546
849.936096,1552
850.053955,1545
850.171875,1539
850.289673,1540
850.407593,1590
850.525452,1554
850.643311,1490
850.761169,1542
850.878967,1500
850.996887,1510
851.114746,1524
851.232544,1552
851.350403,1537
851.468262,1505
851.58606,1495
851.703979,1508
851.821777,1509
851.939636,1519
852.057434,1545
852.175232,1543
852.293091,1533
852.410889,1534
852.528687,1526
852.646545,1614
852.764343,1589
852.88208,1584
852.999939,1586
853.117676,1560
853.235535,1555
853.353271,1501
853.471069,1525
853.588928,1500
853.706604,1492
853.824402,1506
853.9422,1467
854.059998,1539
854.177734,1557
854.295532,1543
854.413269,1522
854.531006,1493
854.648804,1506
854.766541,1522
854.884277,1557
855.002014,1553
855.119751,1512
855.237549,1523
855.355225,1470
855.473022,1528
855.590698,1485
855.708435,1526
855.826172,1526
855.943848,1521
856.061646,1528
856.179321,1540
856.296997,1558
856.414795,1544
856.53241,1521
856.650085,1533
856.767822,1544
856.885559,1567
857.003174,1600
857.120911,1548
857.238586,1568
857.356201,1549
857.473938,1574
857.591614,1569
857.709351,1573
857.826965,1555
857.944641,1552
858.062317,1568
858.179993,1568
858.297668,1546
858.415283,1576
858.532959,1578
858.650574,1576
858.768188,1572
858.885803,1568
859.003479,1581
859.121094,1521
859.23877,1548
859.356384,1516
859.473999,1522
859.591675,1493
859.709229,1505
859.826843,1534
859.944458,1464
860.062012,1495
860.179626,1504
860.297302,1495
860.414856,1515
860.532471,1494
860.650024,1517
860.767639,1523
860.885193,1508
861.002808,1471
861.120361,1513
861.237976,1500
861.35553,1542
861.473022,1528
861.590698,1553
861.708191,1521
861.825745,1565
861.943298,1534
862.060852,1514
862.178406,1475
862.295959,1467
862.413513,1482
862.531006,1422
862.64856,1470
862.766113,1449
862.883667,1475
863.00116,1470
863.118713,1467
863.236206,1497
863.353699,1530
863.471252,1422
863.588745,1477
863.706177,1479
863.82373,1502
863.941162,1515
864.058716,1538
864.176208,1471
864.29364,1510
864.411194,1484
864.528687,1495
864.646118,1477
864.763611,1490
864.881042,1467
864.998535,1471
865.116028,1522
865.233459,1428
865.350891,1481
865.468384,1462
865.585754,1452
865.703308,1466
865.820679,1466
865.938171,1485
866.055542,1433
866.173035,1501
866.290466,1476
866.407837,1460
866.52533,1495
866.6427,1444
866.760071,1493
866.877563,1446
866.994934,1465
867.112305,1499
867.229736,1455
867.347107,1493
867.464539,1502
867.58197,1462
867.699341,1477
867.81665,1509
867.934082,1535
868.051453,1434
868.168823,1448
868.286194,1527
868.403564,1479
868.520935,1480
868.638306,1508
868.755676,1509
868.872986,1515
868.990295,1523
869.107727,1533
869.225037,1528
869.342346,1508
869.459717,1549
869.577026,1454
869.694336,1545
869.811707,1533
869.929016,1542
870.046326,1600
870.163635,1517
870.280945,1551
870.398254,1549
870.515564,1569
870.632812,1553
870.750183,1548
870.867432,1593
870.984741,1599
871.102051,1586
871.219299,1594
871.336609,1561
871.453918,1586
871.571106,1603
871.688416,1590
871.805664,1617
871.922852,1603
872.040222,1577
872.157471,1611
872.274719,1616
872.391968,1626
872.509155,1608
872.626465,1586
872.743652,1575
872.860962,1579
872.978149,1582
873.095337,1578
873.212646,1553
873.329834,1584
873.44696,1575
873.564209,1588
873.681396,1579
873.798645,1561
873.915894,1553
874.03302,1591
874.150208,1584
874.267456,1618
874.384583,1650
874.501831,1643
874.618958,1612
874.736145,1633
874.853333,1606
874.970459,1619
875.087646,1632
875.204834,1617
875.32196,1594
875.439148,1599
875.556274,1578
875.673401,1616
875.790527,1610
875.907715,1543
876.024841,1527
876.141968,1536
876.259094,1574
876.376282,1569
876.493347,1549
876.610474,1575
876.7276,1545
876.844727,1543
876.961853,1547
877.078918,1557
877.195984,1564
877.313171,1537
877.430237,1520
877.547302,1542
877.664368,1557
877.781433,1522
877.898499,1565
878.015625,1526
878.13269,1513
878.249695,1537
878.366821,1493
878.483887,1498
878.600952,1476
878.717957,1496
878.834961,1526
878.952087,1503
879.069092,1490
879.186157,1532
879.303162,1503
879.420227,1489
879.537231,1512
879.654236,1461
879.77124,1520
879.888306,1496
880.005249,1513
880.122314,1470
880.239319,1481
880.356323,1472
880.473328,1517
880.590271,1468
880.707275,1476
880.824341,1467
880.941284,1492
881.058228,1479
881.175232,1467
881.292236,1474
881.40918,1506
881.526123,1445
881.643066,1483
881.760071,1536
881.877014,1437
881.993958,1454
882.11084,1458
882.227783,1504
882.344727,1466
882.46167,1465
882.578613,1476
882.695618,1475
882.812439,1497
882.929382,1514
883.046326,1453
883.163208,1494
883.280151,1532
883.397034,1500
883.513916,1514
883.630798,1553
883.747742,1496
883.864563,1500
883.981506,1494
884.098389,1507
884.21521,1533
884.332153,1537
884.448975,1555
884.565796,1593
884.682678,1603
884.7995,1713
884.916443,1672
885.033264,1692
885.150085,1738
885.266968,1771
885.383789,1801
885.500671,1814
885.617493,1799
885.734314,1843
885.851196,1788
885.967896,1774
886.084717,1804
886.201599,1757
886.318359,1743
886.435181,1768
886.552002,1717
886.668762,1725
886.785645,1734
886.902344,1646
887.019165,1700
887.135925,1714
887.252747,1663
887.369446,1679
887.486267,1648
887.603027,1592
887.719788,1651
887.836548,1568
887.953247,1552
888.070068,1581
888.186829,1538
888.303528,1501
888.420288,1522
888.536987,1537
888.653687,1498
888.770447,1574
888.887146,1515
889.003967,1484
889.120667,1497
889.237305,1460
889.354065,1500
889.470703,1456
889.587463,1451
889.704163,1446
889.820862,1471
889.937561,1480
890.054199,1439
890.170837,1459
890.287598,1498
890.404236,1467
890.520874,1452
890.637634,1476
890.754211,1472
890.87085,1505
890.987549,1492
891.104187,1511
891.220886,1460
891.337463,1518
891.454102,1475
891.57074,1512
891.687378,1458
891.804077,1531
891.920654,1524
892.037231,1471
892.15387,1494
892.270447,1467
892.387085,1513
892.503723,1535
892.6203,1519
892.736877,1471
892.853516,1485
892.970032,1482
893.08667,1495
893.203186,1484
893.319763,1477
893.43634,1516
893.552917,1485
893.669556,1501
893.786011,1474
893.902588,1494
894.019165,1488
894.135681,1509
894.252197,1482
894.368835,1514
894.485291,1523
894.601868,1502
894.718384,1486
894.8349,1492
894.951355,1530
895.067932,1492
895.184448,1481
895.300964,1494
895.417419,1488
895.533936,1489
895.650452,1469
895.766907,1477
895.883423,1497
895.999878,1471
896.116333,1481
896.232849,1521
896.349304,1484
896.465759,1491
896.582214,1508
896.698669,1514
896.815125,1505
896.931641,1495
897.048035,1512
897.164551,1484
897.280884,1514
897.397339,1485
897.513794,1431
897.630249,1513
897.746582,1449
897.863098,1479
897.979431,1490
898.095886,1527
898.212341,1495
898.328674,1544
898.445129,1528
898.561462,1492
898.677795,1507
898.794312,1496
898.910645,1500
899.026978,1521
899.143433,1517
899.259766,1511
899.37616,1502
899.492493,1503
899.608765,1532
899.725159,1507
899.841553,1516
899.957947,1499
900.07428,1547
900.190552,1525
900.306946,1530
900.423157,1504
900.53949,1496
900.655884,1550
900.772156,1521
900.888489,1527
901.004822,1533
901.121033,1510
901.237366,1519
901.353699,1531
901.46991,1537
901.586304,1544
901.702515,1559
901.818787,1553
901.93512,1581
902.051331,1561
902.167603,1600
902.283875,1656
902.400085,1631
902.516418,1693
902.632629,1678
902.74884,1693
902.865112,1654
902.981384,1746
903.097595,1709
903.213867,1632
903.330017,1607
903.446289,1677
903.5625,1663
903.67865,1661
903.794922,1663
903.911072,1617
904.027344,1570
904.143494,1586
904.259705,1614
904.375916,1523
904.492065,1575
904.608215,1543
904.724426,1578
904.840576,1526
904.956726,1554
905.072876,1535
905.189087,1544
905.305176,1528
905.421387,1549
905.537537,1535
905.653687,1541
905.769775,1519
905.885925,1526
906.002014,1524
906.118164,1531
906.234314,1477
906.350403,1476
906.466492,1527
906.582642,1538
906.69873,1501
906.814758,1535
906.930908,1549
907.046936,1468
907.163086,1548
907.279175,1507
907.395264,1526
907.511353,1505
907.62738,1543
907.743408,1494
907.859497,1546
907.975525,1507
908.091553,1530
908.207703,1485
908.32373,1501
908.439758,1524
908.555786,1490
908.671814,1538
908.787842,1509
908.90387,1504
909.019775,1499
909.135864,1507
909.251892,1531
909.367859,1513
909.483826,1500
909.599854,1531
909.715881,1510
909.831848,1495
909.947815,1512
910.063782,1544
910.179749,1552
910.295776,1505
910.411743,1538
910.527649,1536
910.643616,1553
910.759583,1491
910.875488,1536
910.991455,1538
911.107361,1520
911.223267,1509
911.339294,1496
911.4552,1497
911.571106,1512
911.687073,1474
911.802979,1473
911.918823,1512
912.034729,1502
912.150635,1541
912.266602,1518
912.382446,1485
912.498352,1448
912.614197,1505
912.730103,1487
912.846008,1471
