792.44574,2160
792.56488,2179
792.68396,2257
792.80304,2151
792.92218,2130
793.041199,2088
793.160339,2147
793.279419,2074
793.398499,2105
793.517578,2125
793.636658,2045
793.755737,2075
793.874817,2056
793.993896,2047
794.112976,2064
794.232056,2038
794.351074,2043
794.470215,2019
794.589233,2023
794.708313,1961
794.827393,1987
794.946411,1995
795.065552,2008
795.18457,1980
795.303589,1975
795.422668,1971
795.541687,1947
795.660767,1982
795.779846,1943
795.898865,1950
796.017883,1977
796.136963,1978
796.255981,1936
796.375061,1961
796.49408,1943
796.613037,1896
796.732117,1937
796.851135,1876
796.970154,1911
797.089233,1865
797.208191,1924
797.327271,1962
797.446228,1940
797.565186,1859
797.684265,1876
797.803223,1898
797.922241,1891
798.04126,1885
798.160278,1889
798.279297,1885
798.398315,1915
798.517273,1916
798.636292,1880
798.75531,1942
798.874268,1932
798.993286,1864
799.112244,1946
799.231323,1877
799.350281,1918
799.469238,1883
799.588257,1928
799.707153,1882
799.826111,1954
799.945129,1927
800.064087,1906
800.183044,1947
800.302063,1883
800.421021,1962
800.539978,1921
800.658936,1888
800.777893,1912
800.896912,1891
801.015747,1901
801.134705,1928
801.253723,1904
801.37262,1919
801.491638,1962
801.610535,1878
801.729492,1911
801.84845,1861
801.967407,1901
802.086243,1949
802.205261,1929
802.324158,1919
802.443115,1970
802.562073,1983
802.680969,1991
802.799927,1996
802.918762,1957
803.037659,1951
803.156677,1965
803.275574,1989
803.39447,1958
803.513428,2001
803.632263,1974
803.751221,1935
803.870117,2014
803.989014,1962
804.107971,2009
804.226746,1993
804.345642,1956
804.4646,1987
804.583496,1992
804.702393,2036
804.821228,2026
804.940125,2037
805.059021,1997
805.177917,2014
805.296814,1979
805.415649,2027
805.534546,2024
805.653442,2076
805.772278,2050
805.891113,2073
806.01001,2067
806.128906,2030
806.247742,2099
806.366577,2064
806.485413,2085
806.604309,2061
806.723145,2045
806.84198,2069
806.960876,2034
807.079712,2027
807.198486,2085
807.317383,2051
807.436218,2015
807.554993,2022
807.673889,2107
807.792725,2108
807.91156,2079
808.030396,2047
808.14917,2069
808.268005,2048
808.386841,2106
808.505676,2090
808.624451,2133
808.743286,2055
808.862122,2113
808.980896,2099
809.099731,2139
809.218506,2121
809.337341,2098
809.456116,2129
809.57489,2169
809.693726,2164
809.8125,2094
809.931274,2084
810.050049,2193
810.168884,2178
810.287659,2196
810.406372,2155
810.525269,2101
810.643982,2115
810.762756,2126
810.881531,2157
811.000305,2166
811.11908,2117
811.237854,2143
811.356567,2143
811.475403,2154
811.594116,2128
811.71283,2098
811.831604,2143
811.950378,2164
812.069153,2197
812.187927,2131
812.30658,2132
812.425415,2105
812.544128,2149
812.662781,2191
812.781616,2135
812.900269,2162
813.019043,2117
813.137756,2185
813.256531,2192
813.375244,2186
813.493896,2130
813.612671,2157
813.731384,2125
813.850037,2140
813.96875,2143
814.087524,2169
814.206238,2105
814.324951,2117
814.443604,2124
814.562256,2081
814.68103,2118
814.799683,2072
814.918335,2087
815.037109,2120
815.155762,2037
815.274475,2132
815.393188,2062
815.511841,2115
815.630554,2039
815.749146,2085
815.867859,2033
815.986572,2050
816.105164,2049
816.223877,2040
816.342529,2028
816.461182,2038
816.579895,2104
816.698486,2025
816.817139,2122
816.935791,2072
817.054504,2065
817.173096,2110
817.291748,1999
817.4104,2001
817.529053,2012
817.647644,1973
817.766235,1879
817.884949,1873
818.00354,1813
818.122192,1868
818.240845,1790
818.359436,1759
818.478088,1749
818.59668,1734
818.715271,1714
818.833923,1693
818.952515,1673
819.071106,1640
819.189758,1624
819.30835,1588
819.426941,1519
819.545532,1554
819.664124,1547
819.782715,1560
819.901306,1568
820.019897,1533
820.138489,1507
820.25708,1549
820.375671,1526
820.494202,1471
820.612732,1538
820.731384,1478
820.849915,1463
820.968506,1490
821.087097,1446
821.205627,1512
821.324158,1498
821.442749,1495
821.561279,1476
821.679871,1488
821.798401,1483
821.916931,1482
822.035461,1493
822.154053,1448
822.272583,1472
822.391174,1400
822.509583,1458
822.628174,1451
822.746704,1470
822.865234,1466
822.983765,1452
823.102295,1437
823.220825,1469
823.339294,1462
823.457825,1448
823.576355,1435
823.694824,1455
823.813354,1441
823.931885,1463
824.050354,1447
824.168884,1477
824.287354,1475
824.405823,1466
824.524353,1441
824.642822,1503
824.761353,1466
824.879822,1484
824.998291,1524
825.116699,1451
825.235291,1505
825.353699,1410
825.472168,1423
825.590637,1429
825.709106,1499
825.827576,1423
825.946045,1428
826.064453,1405
826.182983,1416
826.301392,1396
826.4198,1421
826.53833,1394
826.656738,1372
826.775208,1403
826.893677,1369
827.012024,1386
827.130493,1399
827.248962,1390
827.36731,1391
827.485779,1362
827.604248,1378
827.722595,1356
827.841064,1366
827.959412,1350
828.077942,1344
828.196289,1381
828.314636,1372
828.433105,1364
828.551514,1283
828.669861,1371
828.78833,1335
828.906677,1329
829.025085,1336
829.143433,1293
829.261841,1362
829.38031,1335
829.498657,1364
829.617004,1343
829.735413,1349
829.85376,1332
829.972107,1341
830.090515,1322
830.208862,1391
830.327209,1339
830.445557,1343
830.563904,1334
830.682312,1340
830.800659,1340
830.919006,1338
831.037354,1340
831.155701,1361
831.274048,1341
831.392395,1330
831.51062,1333
831.629028,1341
831.747314,1337
831.865662,1350
831.984009,1308
832.102356,1372
832.220642,1359
832.338928,1368
832.457275,1361
832.575623,1358
832.693909,1327
832.812134,1348
832.930481,1340
833.048828,1322
833.167114,1399
833.2854,1353
833.403687,1309
833.521973,1346
833.640259,1329
833.758545,1341
833.876831,1328
833.995056,1387
834.113281,1303
834.231628,1358
834.349915,1329
834.468201,1335
834.586426,1328
834.704651,1351
834.822998,1328
834.941162,1348
835.059448,1338
835.177673,1345
835.295959,1356
835.414246,1341
835.53241,1325
835.650635,1337
835.768921,1363
835.887146,1359
836.005371,1384
836.123596,1400
836.241821,1386
836.360046,1423
836.478271,1436
836.596497,1388
836.714722,1393
836.832886,1408
836.95105,1434
837.069336,1395
837.1875,1397
837.305725,1435
837.423889,1421
837.542053,1438
837.660339,1400
837.778503,1436
837.896667,1438
838.014832,1456
838.132996,1418
838.25116,1400
838.369385,1419
838.487488,1427
838.605713,1411
838.723877,1414
838.84198,1437
838.960205,1398
839.078308,1399
839.196472,1390
839.314636,1420
839.4328,1433
839.550964,1420
839.669067,1355
839.787231,1420
839.905396,1388
840.023499,1375
840.141602,1382
840.259766,1374
840.377869,1370
840.495972,1387
840.614136,1384
840.732239,1359
840.850342,1375
840.968445,1377
841.086548,1387
841.204651,1363
841.322754,1362
841.440918,1345
841.55896,1381
841.677002,1374
841.795166,1400
841.913208,1354
842.031311,1367
842.149353,1332
842.267456,1332
842.385498,1316
842.503601,1352
842.621643,1323
842.739746,1385
842.857788,1366
842.97583,1352
843.093933,1323
843.211975,1345
843.330017,1345
843.44812,1325
843.566101,1322
843.684204,1320
843.802246,1334
843.920227,1350
844.038269,1324
844.156311,1326
844.274292,1344
844.392395,1351
844.510376,1365
844.628357,1270
844.74646,1336
844.864441,1356
844.982422,1309
845.100403,1294
845.218384,1298
845.336426,1311
845.454468,1274
845.572449,1321
845.69043,1328
845.808411,1339
845.926453,1278
846.044373,1304
846.162354,1288
846.280396,1317
846.398315,1316
846.516296,1335
846.634216,1299
846.752197,1296
846.870178,1371
846.988098,1325
847.106079,1337
847.22406,1283
847.34198,1331
847.4599,1331
847.577881,1302
847.695801,1348
847.813782,1345
847.931641,1296
848.049561,1368
848.167603,1338
848.285461,1324
848.403381,1332
848.521362,1299
848.639221,1338
848.75708,1333
848.875,1316
848.99292,1287
849.110901,1350
849.22876,1316
849.34668,1313
849.464539,1290
849.582458,1319
849.700317,1329
849.818176,1340
849.936096,1322
850.053955,1349
850.171875,1349
850.289673,1309
850.407593,1349
850.525452,1320
850.643311,1308
850.761169,1347
850.878967,1312
850.996887,1323
851.114746,1353
851.232544,1341
851.350403,1304
851.468262,1324
851.58606,1319
851.703979,1310
851.821777,1325
851.939636,1321
852.057434,1323
852.175232,1289
852.293091,1334
852.410889,1349
852.528687,1361
852.646545,1318
852.764343,1316
852.88208,1281
852.999939,1362
853.117676,1333
853.235535,1312
853.353271,1322
853.471069,1351
853.588928,1309
853.706604,1347
853.824402,1319
853.9422,1358
854.059998,1338
854.177734,1353
854.295532,1338
854.413269,1359
854.531006,1357
854.648804,1351
854.766541,1332
854.884277,1348
855.002014,1380
855.119751,1327
855.237549,1401
855.355225,1335
855.473022,1338
855.590698,1355
855.708435,1367
855.826172,1353
855.943848,1409
856.061646,1353
856.179321,1342
856.296997,1323
856.414795,1359
856.53241,1347
856.650085,1388
856.767822,1364
856.885559,1384
857.003174,1374
857.120911,1386
857.238586,1361
857.356201,1414
857.473938,1343
857.591614,1387
857.709351,1360
857.826965,1369
857.944641,1350
858.062317,1369
858.179993,1328
858.297668,1350
858.415283,1355
858.532959,1361
858.650574,1354
858.768188,1368
858.885803,1340
859.003479,1343
859.121094,1335
859.23877,1339
859.356384,1372
859.473999,1408
859.591675,1343
859.709229,1361
859.826843,1376
859.944458,1298
860.062012,1354
860.179626,1342
860.297302,1334
860.414856,1372
860.532471,1372
860.650024,1337
860.767639,1339
860.885193,1398
861.002808,1361
861.120361,1351
861.237976,1327
861.35553,1323
861.473022,1374
861.590698,1292
861.708191,1327
861.825745,1342
861.943298,1366
862.060852,1371
862.178406,1325
862.295959,1319
862.413513,1344
862.531006,1356
862.64856,1343
862.766113,1356
862.883667,1329
863.00116,1344
863.118713,1316
863.236206,1338
863.353699,1366
863.471252,1329
863.588745,1327
863.706177,1373
863.82373,1326
863.941162,1334
864.058716,1383
864.176208,1314
864.29364,1379
864.411194,1369
864.528687,1360
864.646118,1325
864.763611,1370
864.881042,1373
864.998535,1390
865.116028,1370
865.233459,1377
865.350891,1378
865.468384,1333
865.585754,1356
865.703308,1356
865.820679,1405
865.938171,1392
866.055542,1397
866.173035,1370
866.290466,1366
866.407837,1345
866.52533,1385
866.6427,1378
866.760071,1401
866.877563,1329
866.994934,1335
867.112305,1372
867.229736,1370
867.347107,1385
867.464539,1336
867.58197,1337
867.699341,1382
867.81665,1376
867.934082,1419
868.051453,1340
868.168823,1362
868.286194,1328
868.403564,1367
868.520935,1324
868.638306,1357
868.755676,1373
868.872986,1325
868.990295,1347
869.107727,1354
869.225037,1384
869.342346,1346
869.459717,1351
869.577026,1375
869.694336,1410
869.811707,1371
869.929016,1365
870.046326,1375
870.163635,1345
870.280945,1357
870.398254,1354
870.515564,1387
870.632812,1370
870.750183,1378
870.867432,1358
870.984741,1348
871.102051,1376
871.219299,1322
871.336609,1405
871.453918,1356
871.571106,1374
871.688416,1411
871.805664,1360
871.922852,1394
872.040222,1353
872.157471,1348
872.274719,1395
872.391968,1381
872.509155,1349
872.626465,1375
872.743652,1357
872.860962,1378
872.978149,1345
873.095337,1356
873.212646,1381
873.329834,1358
873.44696,1418
873.564209,1366
873.681396,1371
873.798645,1370
873.915894,1388
874.03302,1370
874.150208,1396
874.267456,1394
874.384583,1372
874.501831,1351
874.618958,1381
874.736145,1397
874.853333,1404
874.970459,1378
875.087646,1387
875.204834,1344
875.32196,1391
875.439148,1318
875.556274,1330
875.673401,1377
875.790527,1337
875.907715,1389
876.024841,1353
876.141968,1396
876.259094,1415
876.376282,1389
876.493347,1386
876.610474,1393
876.7276,1374
876.844727,1353
876.961853,1370
877.078918,1382
877.195984,1402
877.313171,1395
877.430237,1342
877.547302,1354
877.664368,1384
877.781433,1326
877.898499,1358
878.015625,1418
878.13269,1371
878.249695,1357
878.366821,1368
878.483887,1365
878.600952,1373
878.717957,1369
878.834961,1382
878.952087,1374
879.069092,1402
879.186157,1390
879.303162,1387
879.420227,1392
879.537231,1402
879.654236,1366
879.77124,1364
879.888306,1424
880.005249,1381
880.122314,1396
880.239319,1420
880.356323,1399
880.473328,1393
880.590271,1371
880.707275,1369
880.824341,1414
880.941284,1362
881.058228,1381
881.175232,1393
881.292236,1347
881.40918,1400
881.526123,1410
881.643066,1354
881.760071,1333
881.877014,1427
881.993958,1389
882.11084,1395
882.227783,1397
882.344727,1355
882.46167,1386
882.578613,1400
882.695618,1368
882.812439,1383
882.929382,1389
883.046326,1401
883.163208,1346
883.280151,1412
883.397034,1359
883.513916,1395
883.630798,1351
883.747742,1372
883.864563,1381
883.981506,1399
884.098389,1397
884.21521,1434
884.332153,1411
884.448975,1430
884.565796,1392
884.682678,1399
884.7995,1379
884.916443,1441
885.033264,1429
885.150085,1428
885.266968,1422
885.383789,1396
885.500671,1407
885.617493,1460
885.734314,1435
885.851196,1397
885.967896,1403
886.084717,1419
886.201599,1416
886.318359,1409
886.435181,1415
886.552002,1405
886.668762,1425
886.785645,1396
886.902344,1415
887.019165,1430
887.135925,1446
887.252747,1391
887.369446,1419
887.486267,1407
887.603027,1375
887.719788,1448
887.836548,1431
887.953247,1415
888.070068,1392
888.186829,1414
888.303528,1421
888.420288,1416
888.536987,1398
888.653687,1410
888.770447,1403
888.887146,1438
889.003967,1412
889.120667,1436
889.237305,1410
889.354065,1446
889.470703,1400
889.587463,1371
889.704163,1460
889.820862,1417
889.937561,1437
890.054199,1420
890.170837,1366
890.287598,1440
890.404236,1428
890.520874,1421
890.637634,1436
890.754211,1482
890.87085,1445
890.987549,1398
891.104187,1431
891.220886,1424
891.337463,1433
891.454102,1426
891.57074,1442
891.687378,1433
891.804077,1458
891.920654,1419
892.037231,1448
892.15387,1433
892.270447,1383
892.387085,1412
892.503723,1457
892.6203,1438
892.736877,1442
892.853516,1411
892.970032,1475
893.08667,1394
893.203186,1475
893.319763,1478
893.43634,1455
893.552917,1425
893.669556,1447
893.786011,1437
893.902588,1438
894.019165,1422
894.135681,1442
894.252197,1406
894.368835,1412
894.485291,1493
894.601868,1435
894.718384,1419
894.8349,1453
894.951355,1486
895.067932,1435
895.184448,1448
895.300964,1435
895.417419,1472
895.533936,1460
895.650452,1450
895.766907,1404
895.883423,1452
895.999878,1395
896.116333,1495
896.232849,1427
896.349304,1470
896.465759,1422
896.582214,1474
896.698669,1458
896.815125,1485
896.931641,1496
897.048035,1453
897.164551,1447
897.280884,1470
897.397339,1450
897.513794,1466
897.630249,1480
897.746582,1452
897.863098,1443
897.979431,1470
898.095886,1464
898.212341,1413
898.328674,1444
898.445129,1476
898.561462,1459
898.677795,1457
898.794312,1458
898.910645,1454
899.026978,1475
899.143433,1480
899.259766,1452
899.37616,1455
899.492493,1434
899.608765,1435
899.725159,1442
899.841553,1480
899.957947,1470
900.07428,1436
900.190552,1441
900.306946,1454
900.423157,1480
900.53949,1494
900.655884,1488
900.772156,1500
900.888489,1465
901.004822,1487
901.121033,1494
901.237366,1485
901.353699,1473
901.46991,1465
901.586304,1495
901.702515,1446
901.818787,1513
901.93512,1498
902.051331,1493
902.167603,1465
902.283875,1443
902.400085,1491
902.516418,1473
902.632629,1479
902.74884,1482
902.865112,1477
902.981384,1450
903.097595,1496
903.213867,1490
903.330017,1507
903.446289,1496
903.5625,1467
903.67865,1451
903.794922,1490
903.911072,1533
904.027344,1453
904.143494,1484
904.259705,1456
904.375916,1511
904.492065,1482
904.608215,1449
904.724426,1440
904.840576,1500
904.956726,1471
905.072876,1489
905.189087,1468
905.305176,1465
905.421387,1491
905.537537,1451
905.653687,1472
905.769775,1492
905.885925,1527
906.002014,1485
906.118164,1458
906.234314,1484
906.350403,1498
906.466492,1529
906.582642,1466
906.69873,1446
906.814758,1494
906.930908,1480
907.046936,1488
907.163086,1512
907.279175,1490
907.395264,1512
907.511353,1445
907.62738,1460
907.743408,1472
907.859497,1457
907.975525,1497
908.091553,1504
908.207703,1509
908.32373,1517
908.439758,1471
908.555786,1502
908.671814,1447
908.787842,1500
908.90387,1467
909.019775,1439
909.135864,1492
909.251892,1512
909.367859,1521
909.483826,1459
909.599854,1429
909.715881,1460
909.831848,1501
909.947815,1496
910.063782,1474
910.179749,1502
910.295776,1514
910.411743,1469
910.527649,1518
910.643616,1508
910.759583,1493
910.875488,1500
910.991455,1549
911.107361,1526
911.223267,1459
911.339294,1489
911.4552,1425
911.571106,1485
911.687073,1502
911.802979,1502
911.918823,1471
912.034729,1472
912.150635,1453
912.266602,1481
912.382446,1545
912.498352,1459
912.614197,1498
912.730103,1527
912.846008,1480
792.44574,2288
792.56488,2234
792.68396,2292
792.80304,2267
792.92218,2213
793.041199,2142
793.160339,2153
793.279419,2177
793.398499,2185
793.517578,2110
793.636658,2132
793.755737,2108
793.874817,2120
793.993896,2146
794.112976,2095
794.232056,2076
794.351074,2038
794.470215,2071
794.589233,2000
794.708313,2025
794.827393,1999
794.946411,2037
795.065552,2019
795.18457,2044
795.303589,2034
795.422668,2025
795.541687,2032
795.660767,1966
795.779846,2001
795.898865,1996
796.017883,1985
796.136963,1977
796.255981,1969
796.375061,1937
796.49408,2008
796.613037,2018
796.732117,1975
796.851135,1923
796.970154,1944
797.089233,1972
797.208191,1937
797.327271,1929
797.446228,1932
797.565186,1928
797.684265,1940
797.803223,1973
797.922241,1945
798.04126,1918
798.160278,1983
798.279297,1918
798.398315,1958
798.517273,1992
798.636292,1933
798.75531,1958
798.874268,1914
798.993286,1910
799.112244,1957
799.231323,1914
799.350281,1955
799.469238,1920
799.588257,1969
799.707153,1962
799.826111,1957
799.945129,1929
800.064087,1958
800.183044,1935
800.302063,1933
800.421021,1992
800.539978,1941
800.658936,1906
800.777893,1950
800.896912,1889
801.015747,1930
801.134705,1962
801.253723,1956
801.37262,1926
801.491638,1939
801.610535,1937
801.729492,1990
801.84845,1986
801.967407,2043
802.086243,1953
802.205261,1990
802.324158,2003
802.443115,1961
802.562073,1978
802.680969,2001
802.799927,1965
802.918762,2006
803.037659,2014
803.156677,2040
803.275574,2033
803.39447,2009
803.513428,1966
803.632263,2025
803.751221,2036
803.870117,2049
803.989014,2013
804.107971,2006
804.226746,2049
804.345642,2044
804.4646,2038
804.583496,2048
804.702393,2017
804.821228,2040
804.940125,2034
805.059021,2043
805.177917,2067
805.296814,2053
805.415649,2091
805.534546,2058
805.653442,2153
805.772278,2147
805.891113,2098
806.01001,2100
806.128906,2095
806.247742,2103
806.366577,2087
806.485413,2065
806.604309,2185
806.723145,2074
806.84198,2088
806.960876,2099
807.079712,2122
807.198486,2072
807.317383,2091
807.436218,2096
807.554993,2155
807.673889,2098
807.792725,2101
807.91156,2118
808.030396,2105
808.14917,2137
808.268005,2052
808.386841,2162
808.505676,2089
808.624451,2122
808.743286,2162
808.862122,2131
808.980896,2140
809.099731,2127
809.218506,2123
809.337341,2138
809.456116,2139
809.57489,2138
809.693726,2218
809.8125,2193
809.931274,2189
810.050049,2173
810.168884,2151
810.287659,2229
810.406372,2133
810.525269,2159
810.643982,2193
810.762756,2182
810.881531,2130
811.000305,2144
811.11908,2228
811.237854,2152
811.356567,2158
811.475403,2176
811.594116,2132
811.71283,2161
811.831604,2128
811.950378,2164
812.069153,2214
812.187927,2136
812.30658,2187
812.425415,2209
812.544128,2168
812.662781,2123
812.781616,2146
812.900269,2164
813.019043,2168
813.137756,2180
813.256531,2197
813.375244,2184
813.493896,2190
813.612671,2159
813.731384,2152
813.850037,2191
813.96875,2127
814.087524,2200
814.206238,2193
814.324951,2127
814.443604,2149
814.562256,2141
814.68103,2150
814.799683,2168
814.918335,2127
815.037109,2179
815.155762,2132
815.274475,2169
815.393188,2129
815.511841,2138
815.630554,2093
815.749146,2058
815.867859,2079
815.986572,2048
816.105164,2097
816.223877,2045
816.342529,2046
816.461182,2082
816.579895,2114
816.698486,2033
816.817139,2121
816.935791,2144
817.054504,2100
817.173096,2103
817.291748,2070
817.4104,2021
817.529053,2004
817.647644,2032
817.766235,1974
817.884949,1943
818.00354,1860
818.122192,1899
818.240845,1841
818.359436,1807
818.478088,1757
818.59668,1779
818.715271,1698
818.833923,1702
818.952515,1664
819.071106,1667
819.189758,1661
819.30835,1691
819.426941,1617
819.545532,1627
819.664124,1554
819.782715,1562
819.901306,1585
820.019897,1545
820.138489,1538
820.25708,1563
820.375671,1572
820.494202,1546
820.612732,1565
820.731384,1543
820.849915,1528
820.968506,1531
821.087097,1496
821.205627,1496
821.324158,1481
821.442749,1486
821.561279,1551
821.679871,1475
821.798401,1509
821.916931,1510
822.035461,1517
822.154053,1497
822.272583,1500
822.391174,1480
822.509583,1444
822.628174,1480
822.746704,1506
822.865234,1473
822.983765,1456
823.102295,1446
823.220825,1476
823.339294,1469
823.457825,1437
823.576355,1454
823.694824,1493
823.813354,1520
823.931885,1478
824.050354,1525
824.168884,1554
824.287354,1529
824.405823,1543
824.524353,1524
824.642822,1513
824.761353,1509
824.879822,1480
824.998291,1499
825.116699,1514
825.235291,1472
825.353699,1515
825.472168,1428
825.590637,1490
825.709106,1499
825.827576,1463
825.946045,1452
826.064453,1441
826.182983,1450
826.301392,1430
826.4198,1417
826.53833,1435
826.656738,1428
826.775208,1418
826.893677,1431
827.012024,1408
827.130493,1446
827.248962,1376
827.36731,1380
827.485779,1384
827.604248,1394
827.722595,1374
827.841064,1369
827.959412,1419
828.077942,1379
828.196289,1395
828.314636,1359
828.433105,1399
828.551514,1383
828.669861,1376
828.78833,1383
828.906677,1407
829.025085,1417
829.143433,1396
829.261841,1357
829.38031,1397
829.498657,1353
829.617004,1367
829.735413,1404
829.85376,1379
829.972107,1384
830.090515,1382
830.208862,1371
830.327209,1362
830.445557,1365
830.563904,1348
830.682312,1391
830.800659,1337
830.919006,1386
831.037354,1374
831.155701,1355
831.274048,1368
831.392395,1371
831.51062,1379
831.629028,1339
831.747314,1401
831.865662,1362
831.984009,1338
832.102356,1344
832.220642,1353
832.338928,1355
832.457275,1397
832.575623,1389
832.693909,1353
832.812134,1353
832.930481,1373
833.048828,1370
833.167114,1370
833.2854,1331
833.403687,1385
833.521973,1403
833.640259,1384
833.758545,1395
833.876831,1383
833.995056,1369
834.113281,1361
834.231628,1374
834.349915,1362
834.468201,1395
834.586426,1366
834.704651,1367
834.822998,1337
834.941162,1404
835.059448,1343
835.177673,1351
835.295959,1370
835.414246,1365
835.53241,1389
835.650635,1387
835.768921,1387
835.887146,1395
836.005371,1391
836.123596,1388
836.241821,1402
836.360046,1449
836.478271,1417
836.596497,1416
836.714722,1471
836.832886,1430
836.95105,1453
837.069336,1440
837.1875,1456
837.305725,1472
837.423889,1444
837.542053,1412
837.660339,1477
837.778503,1451
837.896667,1421
838.014832,1444
838.132996,1451
838.25116,1434
838.369385,1460
838.487488,1413
838.605713,1419
838.723877,1447
838.84198,1413
838.960205,1468
839.078308,1444
839.196472,1457
839.314636,1466
839.4328,1416
839.550964,1412
839.669067,1410
839.787231,1418
839.905396,1419
840.023499,1447
840.141602,1409
840.259766,1468
840.377869,1382
840.495972,1428
840.614136,1408
840.732239,1440
840.850342,1371
840.968445,1428
841.086548,1382
841.204651,1415
841.322754,1435
841.440918,1405
841.55896,1427
841.677002,1364
841.795166,1397
841.913208,1400
842.031311,1363
842.149353,1375
842.267456,1339
842.385498,1364
842.503601,1353
842.621643,1324
842.739746,1391
842.857788,1350
842.97583,1355
843.093933,1379
843.211975,1369
843.330017,1345
843.44812,1388
843.566101,1335
843.684204,1355
843.802246,1397
843.920227,1367
844.038269,1381
844.156311,1380
844.274292,1362
844.392395,1379
844.510376,1345
844.628357,1330
844.74646,1301
844.864441,1398
844.982422,1322
845.100403,1335
845.218384,1337
845.336426,1366
845.454468,1358
845.572449,1368
845.69043,1357
845.808411,1365
845.926453,1345
846.044373,1327
846.162354,1338
846.280396,1358
846.398315,1377
846.516296,1345
846.634216,1374
846.752197,1315
846.870178,1351
846.988098,1342
847.106079,1327
847.22406,1374
847.34198,1324
847.4599,1328
847.577881,1348
847.695801,1346
847.813782,1354
847.931641,1390
848.049561,1330
848.167603,1367
848.285461,1309
848.403381,1310
848.521362,1371
848.639221,1340
848.75708,1339
848.875,1345
848.99292,1326
849.110901,1359
849.22876,1304
849.34668,1355
849.464539,1350
849.582458,1338
849.700317,1349
849.818176,1376
849.936096,1350
850.053955,1308
850.171875,1321
850.289673,1334
850.407593,1330
850.525452,1327
850.643311,1342
850.761169,1350
850.878967,1325
850.996887,1352
851.114746,1342
851.232544,1329
851.350403,1324
851.468262,1346
851.58606,1358
851.703979,1352
851.821777,1344
851.939636,1320
852.057434,1323
852.175232,1347
852.293091,1368
852.410889,1364
852.528687,1364
852.646545,1364
852.764343,1359
852.88208,1371
852.999939,1369
853.117676,1371
853.235535,1359
853.353271,1349
853.471069,1345
853.588928,1365
853.706604,1370
853.824402,1347
853.9422,1379
854.059998,1334
854.177734,1323
854.295532,1373
854.413269,1376
854.531006,1388
854.648804,1379
854.766541,1370
854.884277,1380
855.002014,1380
855.119751,1409
855.237549,1411
855.355225,1364
855.473022,1405
855.590698,1363
855.708435,1405
855.826172,1373
855.943848,1369
856.061646,1356
856.179321,1374
856.296997,1427
856.414795,1345
856.53241,1398
856.650085,1381
856.767822,1377
856.885559,1403
857.003174,1357
857.120911,1413
857.238586,1387
857.356201,1375
857.473938,1414
857.591614,1383
857.709351,1394
857.826965,1385
857.944641,1365
858.062317,1360
858.179993,1373
858.297668,1413
858.415283,1387
858.532959,1391
858.650574,1381
858.768188,1398
858.885803,1384
859.003479,1385
859.121094,1374
859.23877,1356
859.356384,1383
859.473999,1363
859.591675,1366
859.709229,1402
859.826843,1366
859.944458,1341
860.062012,1358
860.179626,1392
860.297302,1381
860.414856,1341
860.532471,1388
860.650024,1309
860.767639,1353
860.885193,1375
861.002808,1369
861.120361,1356
861.237976,1403
861.35553,1372
861.473022,1377
861.590698,1416
861.708191,1347
861.825745,1364
861.943298,1349
862.060852,1404
862.178406,1380
862.295959,1374
862.413513,1368
862.531006,1371
862.64856,1382
862.766113,1412
862.883667,1351
863.00116,1383
863.118713,1368
863.236206,1358
863.353699,1383
863.471252,1351
863.588745,1364
863.706177,1392
863.82373,1410
863.941162,1393
864.058716,1359
864.176208,1375
864.29364,1370
864.411194,1451
864.528687,1376
864.646118,1398
864.763611,1384
864.881042,1374
864.998535,1366
865.116028,1425
865.233459,1427
865.350891,1345
865.468384,1422
865.585754,1394
865.703308,1376
865.820679,1408
865.938171,1376
866.055542,1371
866.173035,1354
866.290466,1392
866.407837,1449
866.52533,1368
866.6427,1389
866.760071,1399
866.877563,1387
866.994934,1383
867.112305,1403
867.229736,1425
867.347107,1401
867.464539,1423
867.58197,1378
867.699341,1389
867.81665,1382
867.934082,1406
868.051453,1409
868.168823,1397
868.286194,1417
868.403564,1382
868.520935,1397
868.638306,1366
868.755676,1398
868.872986,1411
868.990295,1374
869.107727,1440
869.225037,1361
869.342346,1453
869.459717,1374
869.577026,1430
869.694336,1381
869.811707,1348
869.929016,1381
870.046326,1370
870.163635,1383
870.280945,1433
870.398254,1412
870.515564,1413
870.632812,1416
870.750183,1420
870.867432,1388
870.984741,1410
871.102051,1445
871.219299,1372
871.336609,1408
871.453918,1392
871.571106,1375
871.688416,1418
871.805664,1400
871.922852,1377
872.040222,1418
872.157471,1371
872.274719,1409
872.391968,1379
872.509155,1415
872.626465,1400
872.743652,1395
872.860962,1399
872.978149,1427
873.095337,1389
873.212646,1395
873.329834,1437
873.44696,1369
873.564209,1429
873.681396,1420
873.798645,1408
873.915894,1392
874.03302,1407
874.150208,1427
874.267456,1391
874.384583,1429
874.501831,1371
874.618958,1401
874.736145,1388
874.853333,1392
874.970459,1393
875.087646,1395
875.204834,1345
875.32196,1417
875.439148,1399
875.556274,1391
875.673401,1412
875.790527,1403
875.907715,1390
876.024841,1406
876.141968,1419
876.259094,1413
876.376282,1421
876.493347,1416
876.610474,1424
876.7276,1376
876.844727,1428
876.961853,1377
877.078918,1436
877.195984,1426
877.313171,1408
877.430237,1435
877.547302,1421
877.664368,1413
877.781433,1415
877.898499,1396
878.015625,1408
878.13269,1399
878.249695,1420
878.366821,1433
878.483887,1400
878.600952,1398
878.717957,1379
878.834961,1460
878.952087,1382
879.069092,1434
879.186157,1412
879.303162,1391
879.420227,1413
879.537231,1406
879.654236,1427
879.77124,1368
879.888306,1434
880.005249,1392
880.122314,1397
880.239319,1399
880.356323,1404
880.473328,1422
880.590271,1401
880.707275,1413
880.824341,1405
880.941284,1376
881.058228,1395
881.175232,1410
881.292236,1396
881.40918,1407
881.526123,1392
881.643066,1438
881.760071,1424
881.877014,1395
881.993958,1415
882.11084,1440
882.227783,1375
882.344727,1477
882.46167,1418
882.578613,1397
882.695618,1398
882.812439,1407
882.929382,1409
883.046326,1411
883.163208,1431
883.280151,1391
883.397034,1423
883.513916,1402
883.630798,1411
883.747742,1447
883.864563,1445
883.981506,1410
884.098389,1394
884.21521,1427
884.332153,1444
884.448975,1432
884.565796,1450
884.682678,1426
884.7995,1447
884.916443,1450
885.033264,1465
885.150085,1449
885.266968,1484
885.383789,1409
885.500671,1445
885.617493,1412
885.734314,1490
885.851196,1430
885.967896,1439
886.084717,1461
886.201599,1465
886.318359,1492
886.435181,1437
886.552002,1442
886.668762,1473
886.785645,1438
886.902344,1494
887.019165,1462
887.135925,1460
887.252747,1475
887.369446,1435
887.486267,1459
887.603027,1431
887.719788,1411
887.836548,1459
887.953247,1478
888.070068,1423
888.186829,1413
888.303528,1462
888.420288,1460
888.536987,1421
888.653687,1460
888.770447,1417
888.887146,1422
889.003967,1461
889.120667,1486
889.237305,1451
889.354065,1484
889.470703,1450
889.587463,1433
889.704163,1446
889.820862,1449
889.937561,1424
890.054199,1446
890.170837,1453
890.287598,1394
890.404236,1453
890.520874,1505
890.637634,1461
890.754211,1449
890.87085,1456
890.987549,1473
891.104187,1476
891.220886,1470
891.337463,1429
891.454102,1457
891.57074,1436
891.687378,1447
891.804077,1455
891.920654,1407
892.037231,1490
892.15387,1480
892.270447,1490
892.387085,1467
892.503723,1504
892.6203,1460
892.736877,1433
892.853516,1435
892.970032,1465
893.08667,1489
893.203186,1485
893.319763,1406
893.43634,1472
893.552917,1445
893.669556,1506
893.786011,1467
893.902588,1496
894.019165,1472
894.135681,1467
894.252197,1517
894.368835,1483
894.485291,1500
894.601868,1452
894.718384,1461
894.8349,1466
894.951355,1464
895.067932,1495
895.184448,1458
895.300964,1462
895.417419,1470
895.533936,1469
895.650452,1473
895.766907,1462
895.883423,1527
895.999878,1448
896.116333,1476
896.232849,1506
896.349304,1478
896.465759,1514
896.582214,1475
896.698669,1458
896.815125,1483
896.931641,1465
897.048035,1457
897.164551,1488
897.280884,1496
897.397339,1475
897.513794,1472
897.630249,1477
897.746582,1465
897.863098,1506
897.979431,1486
898.095886,1486
898.212341,1493
898.328674,1509
898.445129,1496
898.561462,1484
898.677795,1497
898.794312,1519
898.910645,1481
899.026978,1479
899.143433,1515
899.259766,1461
899.37616,1476
899.492493,1455
899.608765,1519
899.725159,1499
899.841553,1530
899.957947,1521
900.07428,1523
900.190552,1518
900.306946,1482
900.423157,1472
900.53949,1494
900.655884,1470
900.772156,1506
900.888489,1497
901.004822,1474
901.121033,1456
901.237366,1492
901.353699,1494
901.46991,1487
901.586304,1536
901.702515,1506
901.818787,1501
901.93512,1520
902.051331,1483
902.167603,1532
902.283875,1537
902.400085,1469
902.516418,1522
902.632629,1524
902.74884,1507
902.865112,1559
902.981384,1534
903.097595,1510
903.213867,1498
903.330017,1509
903.446289,1507
903.5625,1548
903.67865,1563
903.794922,1550
903.911072,1494
904.027344,1525
904.143494,1483
904.259705,1540
904.375916,1502
904.492065,1511
904.608215,1534
904.724426,1513
904.840576,1503
904.956726,1534
905.072876,1517
905.189087,1497
905.305176,1470
905.421387,1482
905.537537,1533
905.653687,1541
905.769775,1516
905.885925,1496
906.002014,1529
906.118164,1486
906.234314,1520
906.350403,1544
906.466492,1502
906.582642,1548
906.69873,1562
906.814758,1545
906.930908,1501
907.046936,1527
907.163086,1505
907.279175,1502
907.395264,1514
907.511353,1538
907.62738,1559
907.743408,1511
907.859497,1535
907.975525,1498
908.091553,1517
908.207703,1521
908.32373,1503
908.439758,1532
908.555786,1503
908.671814,1506
908.787842,1499
908.90387,1543
909.019775,1508
909.135864,1498
909.251892,1503
909.367859,1510
909.483826,1487
909.599854,1562
909.715881,1543
909.831848,1557
909.947815,1486
910.063782,1545
910.179749,1526
910.295776,1518
910.411743,1551
910.527649,1544
910.643616,1519
910.759583,1569
910.875488,1516
910.991455,1503
911.107361,1501
911.223267,1551
911.339294,1513
911.4552,1513
911.571106,1532
911.687073,1528
911.802979,1543
911.918823,1502
912.034729,1511
912.150635,1550
912.266602,1513
912.382446,1500
912.498352,1550
912.614197,1554
912.730103,1531
912.846008,1532
792.44574,2317
792.56488,2236
792.68396,2241
792.80304,2183
792.92218,2174
793.041199,2144
793.160339,2121
793.279419,2169
793.398499,2143
793.517578,2200
793.636658,2104
793.755737,2101
793.874817,2103
793.993896,2180
794.112976,2091
794.232056,2074
794.351074,2059
794.470215,2138
794.589233,2036
794.708313,2051
794.827393,2025
794.946411,2078
795.065552,2020
795.18457,2031
795.303589,2057
795.422668,2062
795.541687,2004
795.660767,2023
795.779846,1970
795.898865,2007
796.017883,2007
796.136963,1968
796.255981,1970
796.375061,2017
796.49408,1953
796.613037,2037
796.732117,2045
796.851135,2016
796.970154,1955
797.089233,1980
797.208191,1934
797.327271,1956
797.446228,1908
797.565186,1913
797.684265,1925
797.803223,1959
797.922241,1932
798.04126,1981
798.160278,1934
798.279297,1964
798.398315,1948
798.517273,1927
798.636292,1957
798.75531,2030
798.874268,1916
798.993286,1996
799.112244,1911
799.231323,1966
799.350281,1945
799.469238,1991
799.588257,1960
799.707153,1966
799.826111,1962
799.945129,1969
800.064087,1944
800.183044,1947
800.302063,1980
800.421021,1996
800.539978,1964
800.658936,1968
800.777893,1968
800.896912,1925
801.015747,1998
801.134705,1987
801.253723,2005
801.37262,1966
801.491638,1991
801.610535,1952
801.729492,1939
801.84845,1950
801.967407,1960
802.086243,1999
802.205261,1970
802.324158,2023
802.443115,1964
802.562073,1996
802.680969,1971
802.799927,1993
802.918762,1982
803.037659,2030
803.156677,2024
803.275574,2029
803.39447,2021
803.513428,1986
803.632263,2028
803.751221,2046
803.870117,1986
803.989014,2019
804.107971,2004
804.226746,2031
804.345642,2046
804.4646,2025
804.583496,2066
804.702393,2046
804.821228,2095
804.940125,2127
805.059021,2060
805.177917,2007
805.296814,2054
805.415649,2089
805.534546,2120
805.653442,2110
805.772278,2057
805.891113,2110
806.01001,2114
806.128906,2108
806.247742,2034
806.366577,2125
806.485413,2118
806.604309,2121
806.723145,2060
806.84198,2100
806.960876,2114
807.079712,2101
807.198486,2102
807.317383,2127
807.436218,2076
807.554993,2109
807.673889,2131
807.792725,2098
807.91156,2167
808.030396,2132
808.14917,2150
808.268005,2111
808.386841,2163
808.505676,2183
808.624451,2122
808.743286,2166
808.862122,2122
808.980896,2156
809.099731,2202
809.218506,2174
809.337341,2202
809.456116,2123
809.57489,2158
809.693726,2205
809.8125,2158
809.931274,2145
810.050049,2130
810.168884,2189
810.287659,2182
810.406372,2206
810.525269,2171
810.643982,2165
810.762756,2186
810.881531,2237
811.000305,2110
811.11908,2177
811.237854,2207
811.356567,2177
811.475403,2200
811.594116,2129
811.71283,2214
811.831604,2199
811.950378,2184
812.069153,2210
812.187927,2196
812.30658,2197
812.425415,2160
812.544128,2179
812.662781,2236
812.781616,2171
812.900269,2221
813.019043,2196
813.137756,2193
813.256531,2164
813.375244,2177
813.493896,2206
813.612671,2177
813.731384,2174
813.850037,2146
813.96875,2222
814.087524,2209
814.206238,2168
814.324951,2144
814.443604,2164
814.562256,2157
814.68103,2140
814.799683,2162
814.918335,2170
815.037109,2170
815.155762,2121
815.274475,2177
815.393188,2136
815.511841,2165
815.630554,2090
815.749146,2093
815.867859,2054
815.986572,2074
816.105164,2068
816.223877,2065
816.342529,2088
816.461182,2113
816.579895,2073
816.698486,2102
816.817139,2128
816.935791,2109
817.054504,2108
817.173096,2098
817.291748,2114
817.4104,2110
817.529053,2049
817.647644,2022
817.766235,1983
817.884949,1918
818.00354,1893
818.122192,1897
818.240845,1843
818.359436,1834
818.478088,1779
818.59668,1727
818.715271,1734
818.833923,1748
818.952515,1653
819.071106,1677
819.189758,1631
819.30835,1625
819.426941,1614
819.545532,1632
819.664124,1600
819.782715,1565
819.901306,1604
820.019897,1586
820.138489,1577
820.25708,1559
820.375671,1557
820.494202,1533
820.612732,1528
820.731384,1560
820.849915,1523
820.968506,1535
821.087097,1540
821.205627,1522
821.324158,1508
821.442749,1495
821.561279,1506
821.679871,1506
821.798401,1482
821.916931,1545
822.035461,1513
822.154053,1528
822.272583,1476
822.391174,1503
822.509583,1451
822.628174,1531
822.746704,1484
822.865234,1475
822.983765,1470
823.102295,1505
823.220825,1463
823.339294,1525
823.457825,1500
823.576355,1488
823.694824,1523
823.813354,1486
823.931885,1483
824.050354,1529
824.168884,1507
824.287354,1561
824.405823,1540
824.524353,1536
824.642822,1538
824.761353,1503
824.879822,1503
824.998291,1516
825.116699,1490
825.235291,1498
825.353699,1546
825.472168,1473
825.590637,1502
825.709106,1475
825.827576,1500
825.946045,1451
826.064453,1435
826.182983,1429
826.301392,1434
826.4198,1458
826.53833,1423
826.656738,1437
826.775208,1491
826.893677,1402
827.012024,1401
827.130493,1438
827.248962,1431
827.36731,1425
827.485779,1446
827.604248,1404
827.722595,1411
827.841064,1432
827.959412,1423
828.077942,1374
828.196289,1425
828.314636,1405
828.433105,1411
828.551514,1415
828.669861,1426
828.78833,1360
828.906677,1391
829.025085,1398
829.143433,1377
829.261841,1406
829.38031,1386
829.498657,1381
829.617004,1387
829.735413,1421
829.85376,1379
829.972107,1353
830.090515,1376
830.208862,1384
830.327209,1404
830.445557,1400
830.563904,1370
830.682312,1394
830.800659,1372
830.919006,1359
831.037354,1331
831.155701,1426
831.274048,1384
831.392395,1370
831.51062,1412
831.629028,1354
831.747314,1425
831.865662,1358
831.984009,1372
832.102356,1377
832.220642,1366
832.338928,1322
832.457275,1374
832.575623,1371
832.693909,1360
832.812134,1363
832.930481,1384
833.048828,1375
833.167114,1372
833.2854,1400
833.403687,1413
833.521973,1346
833.640259,1346
833.758545,1373
833.876831,1394
833.995056,1366
834.113281,1416
834.231628,1398
834.349915,1375
834.468201,1381
834.586426,1380
834.704651,1347
834.822998,1394
834.941162,1366
835.059448,1386
835.177673,1389
835.295959,1388
835.414246,1433
835.53241,1396
835.650635,1385
835.768921,1361
835.887146,1393
836.005371,1410
836.123596,1436
836.241821,1406
836.360046,1405
836.478271,1452
836.596497,1444
836.714722,1467
836.832886,1427
836.95105,1404
837.069336,1458
837.1875,1476
837.305725,1456
837.423889,1456
837.542053,1428
837.660339,1466
837.778503,1495
837.896667,1442
838.014832,1487
838.132996,1466
838.25116,1456
838.369385,1461
838.487488,1451
838.605713,1439
838.723877,1452
838.84198,1468
838.960205,1435
839.078308,1448
839.196472,1445
839.314636,1430
839.4328,1454
839.550964,1421
839.669067,1405
839.787231,1455
839.905396,1464
840.023499,1480
840.141602,1414
840.259766,1422
840.377869,1397
840.495972,1402
840.614136,1396
840.732239,1432
840.850342,1411
840.968445,1439
841.086548,1425
841.204651,1432
841.322754,1441
841.440918,1402
841.55896,1421
841.677002,1397
841.795166,1382
841.913208,1447
842.031311,1362
842.149353,1361
842.267456,1381
842.385498,1355
842.503601,1389
842.621643,1344
842.739746,1344
842.857788,1351
842.97583,1364
843.093933,1360
843.211975,1363
843.330017,1367
843.44812,1352
843.566101,1383
843.684204,1313
843.802246,1362
843.920227,1382
844.038269,1381
844.156311,1360
844.274292,1370
844.392395,1359
844.510376,1382
844.628357,1378
844.74646,1321
844.864441,1391
844.982422,1336
845.100403,1342
845.218384,1366
845.336426,1356
845.454468,1338
845.572449,1358
845.69043,1358
845.808411,1339
845.926453,1336
846.044373,1345
846.162354,1317
846.280396,1397
846.398315,1307
846.516296,1374
846.634216,1307
846.752197,1369
846.870178,1361
846.988098,1350
847.106079,1346
847.22406,1314
847.34198,1345
847.4599,1360
847.577881,1367
847.695801,1317
847.813782,1378
847.931641,1327
848.049561,1331
848.167603,1331
848.285461,1353
848.403381,1335
848.521362,1335
848.639221,1351
848.75708,1377
848.875,1339
848.99292,1350
849.110901,1350
849.22876,1313
849.34668,1335
849.464539,1354
849.582458,1346
849.700317,1356
849.818176,1362
849.936096,1349
850.053955,1365
850.171875,1348
850.289673,1362
850.407593,1348
850.525452,1334
850.643311,1371
850.761169,1372
850.878967,1348
850.996887,1391
851.114746,1365
851.232544,1322
851.350403,1308
851.468262,1332
851.58606,1309
851.703979,1324
851.821777,1373
851.939636,1350
852.057434,1353
852.175232,1308
852.293091,1396
852.410889,1393
852.528687,1425
852.646545,1392
852.764343,1329
852.88208,1363
852.999939,1372
853.117676,1369
853.235535,1395
853.353271,1346
853.471069,1350
853.588928,1350
853.706604,1375
853.824402,1397
853.9422,1328
854.059998,1360
854.177734,1352
854.295532,1363
854.413269,1368
854.531006,1403
854.648804,1323
854.766541,1392
854.884277,1371
855.002014,1379
855.119751,1365
855.237549,1377
855.355225,1365
855.473022,1400
855.590698,1331
855.708435,1400
855.826172,1326
855.943848,1413
856.061646,1426
856.179321,1381
856.296997,1373
856.414795,1394
856.53241,1396
856.650085,1414
856.767822,1401
856.885559,1399
857.003174,1370
857.120911,1407
857.238586,1410
857.356201,1416
857.473938,1387
857.591614,1388
857.709351,1418
857.826965,1422
857.944641,1403
858.062317,1406
858.179993,1400
858.297668,1402
858.415283,1412
858.532959,1386
858.650574,1389
858.768188,1351
858.885803,1372
859.003479,1408
859.121094,1364
859.23877,1402
859.356384,1395
859.473999,1402
859.591675,1390
859.709229,1348
859.826843,1375
859.944458,1353
860.062012,1399
860.179626,1406
860.297302,1424
860.414856,1366
860.532471,1375
860.650024,1378
860.767639,1365
860.885193,1378
861.002808,1341
861.120361,1394
861.237976,1375
861.35553,1382
861.473022,1416
861.590698,1359
861.708191,1398
861.825745,1352
861.943298,1412
862.060852,1367
862.178406,1390
862.295959,1359
862.413513,1385
862.531006,1358
862.64856,1407
862.766113,1357
862.883667,1402
863.00116,1367
863.118713,1377
863.236206,1394
863.353699,1382
863.471252,1357
863.588745,1382
863.706177,1370
863.82373,1421
863.941162,1356
864.058716,1394
864.176208,1392
864.29364,1374
864.411194,1388
864.528687,1429
864.646118,1397
864.763611,1395
864.881042,1383
864.998535,1439
865.116028,1410
865.233459,1425
865.350891,1408
865.468384,1407
865.585754,1395
865.703308,1380
865.820679,1422
865.938171,1383
866.055542,1435
866.173035,1367
866.290466,1381
866.407837,1385
866.52533,1370
866.6427,1415
866.760071,1421
866.877563,1414
866.994934,1385
867.112305,1405
867.229736,1420
867.347107,1380
867.464539,1391
867.58197,1443
867.699341,1396
867.81665,1417
867.934082,1435
868.051453,1392
868.168823,1354
868.286194,1418
868.403564,1387
868.520935,1411
868.638306,1381
868.755676,1396
868.872986,1377
868.990295,1398
869.107727,1435
869.225037,1429
869.342346,1409
869.459717,1383
869.577026,1415
869.694336,1372
869.811707,1384
869.929016,1420
870.046326,1449
870.163635,1397
870.280945,1453
870.398254,1361
870.515564,1415
870.632812,1404
870.750183,1384
870.867432,1398
870.984741,1425
871.102051,1419
871.219299,1393
871.336609,1443
871.453918,1410
871.571106,1411
871.688416,1384
871.805664,1413
871.922852,1398
872.040222,1406
872.157471,1397
872.274719,1425
872.391968,1393
872.509155,1420
872.626465,1411
872.743652,1417
872.860962,1371
872.978149,1407
873.095337,1408
873.212646,1393
873.329834,1361
873.44696,1425
873.564209,1400
873.681396,1396
873.798645,1391
873.915894,1404
874.03302,1438
874.150208,1443
874.267456,1397
874.384583,1400
874.501831,1387
874.618958,1432
874.736145,1389
874.853333,1386
874.970459,1440
875.087646,1398
875.204834,1419
875.32196,1391
875.439148,1419
875.556274,1432
875.673401,1417
875.790527,1407
875.907715,1415
876.024841,1426
876.141968,1436
876.259094,1438
876.376282,1410
876.493347,1462
876.610474,1399
876.7276,1424
876.844727,1410
876.961853,1425
877.078918,1371
877.195984,1431
877.313171,1425
877.430237,1405
877.547302,1408
877.664368,1433
877.781433,1384
877.898499,1430
878.015625,1395
878.13269,1426
878.249695,1402
878.366821,1383
878.483887,1435
878.600952,1416
878.717957,1419
878.834961,1434
878.952087,1418
879.069092,1440
879.186157,1410
879.303162,1433
879.420227,1415
879.537231,1462
879.654236,1441
879.77124,1387
879.888306,1383
880.005249,1416
880.122314,1377
880.239319,1417
880.356323,1433
880.473328,1378
880.590271,1402
880.707275,1434
880.824341,1404
880.941284,1397
881.058228,1443
881.175232,1406
881.292236,1403
881.40918,1443
881.526123,1465
881.643066,1428
881.760071,1458
881.877014,1399
881.993958,1423
882.11084,1453
882.227783,1415
882.344727,1420
882.46167,1432
882.578613,1409
882.695618,1403
882.812439,1446
882.929382,1473
883.046326,1440
883.163208,1386
883.280151,1474
883.397034,1443
883.513916,1447
883.630798,1441
883.747742,1391
883.864563,1390
883.981506,1408
884.098389,1413
884.21521,1442
884.332153,1478
884.448975,1454
884.565796,1434
884.682678,1432
884.7995,1459
884.916443,1417
885.033264,1455
885.150085,1479
885.266968,1490
885.383789,1453
885.500671,1462
885.617493,1473
885.734314,1452
885.851196,1471
885.967896,1478
886.084717,1476
886.201599,1466
886.318359,1472
886.435181,1467
886.552002,1460
886.668762,1466
886.785645,1472
886.902344,1476
887.019165,1480
887.135925,1455
887.252747,1464
887.369446,1433
887.486267,1467
887.603027,1432
887.719788,1448
887.836548,1409
887.953247,1465
888.070068,1416
888.186829,1457
888.303528,1472
888.420288,1454
888.536987,1473
888.653687,1429
888.770447,1497
888.887146,1458
889.003967,1455
889.120667,1427
889.237305,1452
889.354065,1465
889.470703,1446
889.587463,1475
889.704163,1475
889.820862,1484
889.937561,1473
890.054199,1490
890.170837,1480
890.287598,1472
890.404236,1449
890.520874,1463
890.637634,1493
890.754211,1460
890.87085,1485
890.987549,1470
891.104187,1478
891.220886,1494
891.337463,1490
891.454102,1460
891.57074,1521
891.687378,1465
891.804077,1484
891.920654,1488
892.037231,1475
892.15387,1463
892.270447,1457
892.387085,1507
892.503723,1496
892.6203,1489
892.736877,1468
892.853516,1421
892.970032,1484
893.08667,1504
893.203186,1498
893.319763,1464
893.43634,1523
893.552917,1494
893.669556,1505
893.786011,1458
893.902588,1516
894.019165,1461
894.135681,1499
894.252197,1489
894.368835,1457
894.485291,1486
894.601868,1468
894.718384,1510
894.8349,1493
894.951355,1516
895.067932,1504
895.184448,1449
895.300964,1498
895.417419,1454
895.533936,1520
895.650452,1437
895.766907,1532
895.883423,1529
895.999878,1498
896.116333,1486
896.232849,1472
896.349304,1502
896.465759,1500
896.582214,1464
896.698669,1511
896.815125,1495
896.931641,1520
897.048035,1485
897.164551,1485
897.280884,1510
897.397339,1541
897.513794,1526
897.630249,1520
897.746582,1529
897.863098,1493
897.979431,1479
898.095886,1486
898.212341,1525
898.328674,1509
898.445129,1509
898.561462,1480
898.677795,1542
898.794312,1476
898.910645,1481
899.026978,1537
899.143433,1507
899.259766,1491
899.37616,1497
899.492493,1476
899.608765,1456
899.725159,1501
899.841553,1505
899.957947,1513
900.07428,1511
900.190552,1515
900.306946,1482
900.423157,1502
900.53949,1520
900.655884,1492
900.772156,1521
900.888489,1450
901.004822,1548
901.121033,1484
901.237366,1489
901.353699,1514
901.46991,1491
901.586304,1498
901.702515,1505
901.818787,1475
901.93512,1519
902.051331,1511
902.167603,1502
902.283875,1506
902.400085,1535
902.516418,1483
902.632629,1529
902.74884,1493
902.865112,1530
902.981384,1510
903.097595,1551
903.213867,1513
903.330017,1537
903.446289,1510
903.5625,1503
903.67865,1480
903.794922,1532
903.911072,1515
904.027344,1517
904.143494,1561
904.259705,1550
904.375916,1515
904.492065,1532
904.608215,1568
904.724426,1538
904.840576,1519
904.956726,1541
905.072876,1493
905.189087,1476
905.305176,1508
905.421387,1549
905.537537,1545
905.653687,1558
905.769775,1552
905.885925,1555
906.002014,1554
906.118164,1546
906.234314,1531
906.350403,1545
906.466492,1541
906.582642,1513
906.69873,1511
906.814758,1588
906.930908,1516
907.046936,1532
907.163086,1520
907.279175,1548
907.395264,1528
907.511353,1515
907.62738,1522
907.743408,1545
907.859497,1532
907.975525,1557
908.091553,1508
908.207703,1533
908.32373,1545
908.439758,1582
908.555786,1537
908.671814,1573
908.787842,1564
908.90387,1567
909.019775,1531
909.135864,1549
909.251892,1525
909.367859,1543
909.483826,1576
909.599854,1583
909.715881,1532
909.831848,1499
909.947815,1500
910.063782,1567
910.179749,1543
910.295776,1539
910.411743,1551
910.527649,1547
910.643616,1529
910.759583,1552
910.875488,1521
910.991455,1523
911.107361,1508
911.223267,1558
911.339294,1610
911.4552,1551
911.571106,1525
911.687073,1504
911.802979,1538
911.918823,1562
912.034729,1553
912.150635,1572
912.266602,1529
912.382446,1548
912.498352,1511
912.614197,1520
912.730103,1583
912.846008,1516
