792.44574,2216
792.56488,2166
792.68396,2218
792.80304,2179
792.92218,2116
793.041199,2140
793.160339,2093
793.279419,2056
793.398499,2047
793.517578,2047
793.636658,2019
793.755737,2055
793.874817,2025
793.993896,1977
794.112976,1985
794.232056,1983
794.351074,2029
794.470215,2005
794.589233,2007
794.708313,1937
794.827393,1998
794.946411,1983
795.065552,1946
795.18457,1937
795.303589,1957
795.422668,1974
795.541687,1957
795.660767,1919
795.779846,1932
795.898865,1922
796.017883,1919
796.136963,1867
796.255981,1947
796.375061,1924
796.49408,1901
796.613037,1917
796.732117,1918
796.851135,1903
796.970154,1914
797.089233,1900
797.208191,1884
797.327271,1862
797.446228,1870
797.565186,1857
797.684265,1900
797.803223,1883
797.922241,1859
798.04126,1890
798.160278,1894
798.279297,1916
798.398315,1886
798.517273,1894
798.636292,1842
798.75531,1888
798.874268,1913
798.993286,1878
799.112244,1908
799.231323,1897
799.350281,1896
799.469238,1896
799.588257,1858
799.707153,1834
799.826111,1897
799.945129,1859
800.064087,1917
800.183044,1872
800.302063,1879
800.421021,1880
800.539978,1854
800.658936,1883
800.777893,1883
800.896912,1874
801.015747,1916
801.134705,1865
801.253723,1897
801.37262,1873
801.491638,1861
801.610535,1843
801.729492,1883
801.84845,1899
801.967407,1905
802.086243,1849
802.205261,1913
802.324158,1892
802.443115,1928
802.562073,1921
802.680969,1929
802.799927,1957
802.918762,1963
803.037659,1916
803.156677,1892
803.275574,1935
803.39447,1977
803.513428,1959
803.632263,1996
803.751221,1935
803.870117,1960
803.989014,1963
804.107971,1957
804.226746,1988
804.345642,1915
804.4646,1991
804.583496,1952
804.702393,1970
804.821228,1946
804.940125,1995
805.059021,1977
805.177917,2001
805.296814,2021
805.415649,1999
805.534546,2016
805.653442,1997
805.772278,2066
805.891113,2077
806.01001,1986
806.128906,2027
806.247742,2003
806.366577,2018
806.485413,2046
806.604309,2019
806.723145,2040
806.84198,1987
806.960876,2008
807.079712,2049
807.198486,2044
807.317383,2028
807.436218,1980
807.554993,1983
807.673889,2089
807.792725,2028
807.91156,2022
808.030396,2056
808.14917,2053
808.268005,2045
808.386841,2046
808.505676,2044
808.624451,2040
808.743286,2035
808.862122,2064
808.980896,2032
809.099731,2078
809.218506,2101
809.337341,2052
809.456116,2080
809.57489,2108
809.693726,2102
809.8125,2070
809.931274,2112
810.050049,2104
810.168884,2079
810.287659,2082
810.406372,2091
810.525269,2102
810.643982,2106
810.762756,2129
810.881531,2101
811.000305,2015
811.11908,2147
811.237854,2146
811.356567,2079
811.475403,2151
811.594116,2089
811.71283,2098
811.831604,2175
811.950378,2126
812.069153,2086
812.187927,2108
812.30658,2086
812.425415,2177
812.544128,2122
812.662781,2123
812.781616,2124
812.900269,2119
813.019043,2115
813.137756,2116
813.256531,2085
813.375244,2133
813.493896,2056
813.612671,2087
813.731384,2117
813.850037,2094
813.96875,2115
814.087524,2115
814.206238,2079
814.324951,2135
814.443604,2052
814.562256,2077
814.68103,2087
814.799683,2123
814.918335,2059
815.037109,2060
815.155762,2059
815.274475,2078
815.393188,2042
815.511841,2016
815.630554,2055
815.749146,1972
815.867859,1987
815.986572,2035
816.105164,1997
816.223877,1975
816.342529,1953
816.461182,2020
816.579895,2011
816.698486,2028
816.817139,2037
816.935791,2017
817.054504,2024
817.173096,2053
817.291748,1976
817.4104,2010
817.529053,2008
817.647644,1905
817.766235,1883
817.884949,1860
818.00354,1837
818.122192,1834
818.240845,1783
818.359436,1730
818.478088,1715
818.59668,1679
818.715271,1694
818.833923,1648
818.952515,1652
819.071106,1639
819.189758,1572
819.30835,1582
819.426941,1579
819.545532,1555
819.664124,1524
819.782715,1553
819.901306,1532
820.019897,1546
820.138489,1530
820.25708,1563
820.375671,1513
820.494202,1478
820.612732,1504
820.731384,1467
820.849915,1454
820.968506,1514
821.087097,1478
821.205627,1457
821.324158,1501
821.442749,1480
821.561279,1446
821.679871,1474
821.798401,1423
821.916931,1499
822.035461,1459
822.154053,1441
822.272583,1420
822.391174,1440
822.509583,1426
822.628174,1459
822.746704,1424
822.865234,1454
822.983765,1444
823.102295,1412
823.220825,1479
823.339294,1462
823.457825,1433
823.576355,1397
823.694824,1449
823.813354,1477
823.931885,1468
824.050354,1490
824.168884,1480
824.287354,1469
824.405823,1485
824.524353,1490
824.642822,1498
824.761353,1497
824.879822,1435
824.998291,1455
825.116699,1488
825.235291,1457
825.353699,1450
825.472168,1405
825.590637,1451
825.709106,1431
825.827576,1412
825.946045,1395
826.064453,1402
826.182983,1399
826.301392,1369
826.4198,1449
826.53833,1362
826.656738,1394
826.775208,1413
826.893677,1386
827.012024,1380
827.130493,1379
827.248962,1362
827.36731,1382
827.485779,1392
827.604248,1396
827.722595,1382
827.841064,1348
827.959412,1335
828.077942,1384
828.196289,1374
828.314636,1379
828.433105,1342
828.551514,1387
828.669861,1324
828.78833,1326
828.906677,1351
829.025085,1358
829.143433,1329
829.261841,1364
829.38031,1357
829.498657,1355
829.617004,1354
829.735413,1305
829.85376,1335
829.972107,1356
830.090515,1348
830.208862,1371
830.327209,1347
830.445557,1331
830.563904,1398
830.682312,1367
830.800659,1368
830.919006,1317
831.037354,1350
831.155701,1344
831.274048,1306
831.392395,1327
831.51062,1380
831.629028,1280
831.747314,1380
831.865662,1347
831.984009,1334
832.102356,1338
832.220642,1355
832.338928,1310
832.457275,1365
832.575623,1366
832.693909,1310
832.812134,1357
832.930481,1315
833.048828,1315
833.167114,1317
833.2854,1355
833.403687,1365
833.521973,1346
833.640259,1330
833.758545,1334
833.876831,1338
833.995056,1348
834.113281,1337
834.231628,1342
834.349915,1379
834.468201,1328
834.586426,1356
834.704651,1343
834.822998,1316
834.941162,1401
835.059448,1334
835.177673,1347
835.295959,1307
835.414246,1367
835.53241,1318
835.650635,1370
835.768921,1372
835.887146,1367
836.005371,1341
836.123596,1357
836.241821,1380
836.360046,1360
836.478271,1350
836.596497,1426
836.714722,1385
836.832886,1393
836.95105,1415
837.069336,1409
837.1875,1426
837.305725,1453
837.423889,1441
837.542053,1450
837.660339,1425
837.778503,1432
837.896667,1432
838.014832,1423
838.132996,1372
838.25116,1444
838.369385,1430
838.487488,1427
838.605713,1399
838.723877,1350
838.84198,1402
838.960205,1398
839.078308,1417
839.196472,1417
839.314636,1377
839.4328,1392
839.550964,1377
839.669067,1421
839.787231,1388
839.905396,1445
840.023499,1397
840.141602,1377
840.259766,1400
840.377869,1396
840.495972,1419
840.614136,1399
840.732239,1367
840.850342,1353
840.968445,1379
841.086548,1378
841.204651,1381
841.322754,1351
841.440918,1354
841.55896,1342
841.677002,1352
841.795166,1352
841.913208,1335
842.031311,1341
842.149353,1346
842.267456,1344
842.385498,1319
842.503601,1323
842.621643,1357
842.739746,1326
842.857788,1322
842.97583,1331
843.093933,1293
843.211975,1310
843.330017,1337
843.44812,1357
843.566101,1303
843.684204,1343
843.802246,1300
843.920227,1318
844.038269,1342
844.156311,1340
844.274292,1319
844.392395,1347
844.510376,1343
844.628357,1306
844.74646,1321
844.864441,1286
844.982422,1305
845.100403,1301
845.218384,1312
845.336426,1319
845.454468,1343
845.572449,1305
845.69043,1312
845.808411,1277
845.926453,1312
846.044373,1304
846.162354,1273
846.280396,1306
846.398315,1307
846.516296,1359
846.634216,1298
846.752197,1321
846.870178,1297
846.988098,1319
847.106079,1306
847.22406,1327
847.34198,1326
847.4599,1302
847.577881,1349
847.695801,1294
847.813782,1341
847.931641,1318
848.049561,1331
848.167603,1322
848.285461,1319
848.403381,1320
848.521362,1329
848.639221,1320
848.75708,1299
848.875,1346
848.99292,1362
849.110901,1324
849.22876,1276
849.34668,1295
849.464539,1301
849.582458,1283
849.700317,1360
849.818176,1298
849.936096,1314
850.053955,1341
850.171875,1326
850.289673,1328
850.407593,1338
850.525452,1348
850.643311,1353
850.761169,1341
850.878967,1301
850.996887,1310
851.114746,1324
851.232544,1355
851.350403,1350
851.468262,1381
851.58606,1319
851.703979,1338
851.821777,1323
851.939636,1333
852.057434,1318
852.175232,1358
852.293091,1330
852.410889,1352
852.528687,1312
852.646545,1331
852.764343,1326
852.88208,1317
852.999939,1358
853.117676,1384
853.235535,1358
853.353271,1339
853.471069,1364
853.588928,1338
853.706604,1326
853.824402,1334
853.9422,1328
854.059998,1322
854.177734,1359
854.295532,1339
854.413269,1358
854.531006,1331
854.648804,1368
854.766541,1325
854.884277,1350
855.002014,1374
855.119751,1347
855.237549,1354
855.355225,1339
855.473022,1361
855.590698,1373
855.708435,1397
855.826172,1372
855.943848,1339
856.061646,1378
856.179321,1366
856.296997,1381
856.414795,1385
856.53241,1383
856.650085,1342
856.767822,1346
856.885559,1383
857.003174,1339
857.120911,1370
857.238586,1337
857.356201,1372
857.473938,1356
857.591614,1379
857.709351,1389
857.826965,1383
857.944641,1352
858.062317,1350
858.179993,1321
858.297668,1332
858.415283,1355
858.532959,1331
858.650574,1388
858.768188,1342
858.885803,1374
859.003479,1385
859.121094,1353
859.23877,1333
859.356384,1319
859.473999,1362
859.591675,1342
859.709229,1399
859.826843,1361
859.944458,1363
860.062012,1334
860.179626,1353
860.297302,1320
860.414856,1330
860.532471,1314
860.650024,1310
860.767639,1317
860.885193,1367
861.002808,1341
861.120361,1336
861.237976,1352
861.35553,1324
861.473022,1307
861.590698,1309
861.708191,1338
861.825745,1312
861.943298,1349
862.060852,1330
862.178406,1338
862.295959,1351
862.413513,1356
862.531006,1341
862.64856,1330
862.766113,1373
862.883667,1349
863.00116,1357
863.118713,1358
863.236206,1387
863.353699,1359
863.471252,1343
863.588745,1359
863.706177,1336
863.82373,1368
863.941162,1348
864.058716,1340
864.176208,1387
864.29364,1369
864.411194,1367
864.528687,1345
864.646118,1381
864.763611,1384
864.881042,1350
864.998535,1327
865.116028,1347
865.233459,1388
865.350891,1333
865.468384,1372
865.585754,1343
865.703308,1340
865.820679,1350
865.938171,1332
866.055542,1363
866.173035,1315
866.290466,1341
866.407837,1364
866.52533,1373
866.6427,1380
866.760071,1373
866.877563,1343
866.994934,1401
867.112305,1380
867.229736,1358
867.347107,1370
867.464539,1375
867.58197,1375
867.699341,1383
867.81665,1378
867.934082,1343
868.051453,1367
868.168823,1377
868.286194,1380
868.403564,1365
868.520935,1358
868.638306,1402
868.755676,1316
868.872986,1361
868.990295,1355
869.107727,1377
869.225037,1402
869.342346,1416
869.459717,1362
869.577026,1380
869.694336,1331
869.811707,1379
869.929016,1376
870.046326,1403
870.163635,1395
870.280945,1352
870.398254,1352
870.515564,1385
870.632812,1382
870.750183,1358
870.867432,1358
870.984741,1384
871.102051,1359
871.219299,1362
871.336609,1354
871.453918,1362
871.571106,1383
871.688416,1374
871.805664,1366
871.922852,1351
872.040222,1443
872.157471,1355
872.274719,1355
872.391968,1379
872.509155,1373
872.626465,1382
872.743652,1363
872.860962,1398
872.978149,1336
873.095337,1351
873.212646,1406
873.329834,1335
873.44696,1387
873.564209,1340
873.681396,1387
873.798645,1378
873.915894,1367
874.03302,1376
874.150208,1332
874.267456,1346
874.384583,1372
874.501831,1390
874.618958,1342
874.736145,1377
874.853333,1347
874.970459,1362
875.087646,1380
875.204834,1395
875.32196,1378
875.439148,1344
875.556274,1374
875.673401,1420
875.790527,1361
875.907715,1364
876.024841,1384
876.141968,1380
876.259094,1388
876.376282,1390
876.493347,1374
876.610474,1356
876.7276,1378
876.844727,1400
876.961853,1376
877.078918,1399
877.195984,1399
877.313171,1361
877.430237,1375
877.547302,1393
877.664368,1346
877.781433,1413
877.898499,1403
878.015625,1363
878.13269,1338
878.249695,1395
878.366821,1330
878.483887,1374
878.600952,1382
878.717957,1427
878.834961,1375
878.952087,1425
879.069092,1401
879.186157,1369
879.303162,1384
879.420227,1387
879.537231,1415
879.654236,1399
879.77124,1405
879.888306,1408
880.005249,1384
880.122314,1368
880.239319,1387
880.356323,1406
880.473328,1390
880.590271,1406
880.707275,1386
880.824341,1433
880.941284,1390
881.058228,1383
881.175232,1443
881.292236,1393
881.40918,1438
881.526123,1384
881.643066,1417
881.760071,1365
881.877014,1395
881.993958,1400
882.11084,1385
882.227783,1391
882.344727,1353
882.46167,1393
882.578613,1361
882.695618,1373
882.812439,1373
882.929382,1399
883.046326,1394
883.163208,1390
883.280151,1440
883.397034,1411
883.513916,1390
883.630798,1379
883.747742,1364
883.864563,1428
883.981506,1385
884.098389,1404
884.21521,1435
884.332153,1422
884.448975,1406
884.565796,1399
884.682678,1409
884.7995,1443
884.916443,1426
885.033264,1375
885.150085,1432
885.266968,1435
885.383789,1399
885.500671,1437
885.617493,1430
885.734314,1399
885.851196,1451
885.967896,1438
886.084717,1470
886.201599,1433
886.318359,1410
886.435181,1415
886.552002,1433
886.668762,1433
886.785645,1425
886.902344,1444
887.019165,1426
887.135925,1432
887.252747,1458
887.369446,1418
887.486267,1441
887.603027,1442
887.719788,1409
887.836548,1392
887.953247,1392
888.070068,1410
888.186829,1441
888.303528,1409
888.420288,1441
888.536987,1407
888.653687,1393
888.770447,1417
888.887146,1436
889.003967,1434
889.120667,1419
889.237305,1445
889.354065,1411
889.470703,1434
889.587463,1451
889.704163,1423
889.820862,1403
889.937561,1390
890.054199,1458
890.170837,1484
890.287598,1409
890.404236,1414
890.520874,1412
890.637634,1407
890.754211,1460
890.87085,1450
890.987549,1428
891.104187,1440
891.220886,1417
891.337463,1440
891.454102,1433
891.57074,1445
891.687378,1413
891.804077,1460
891.920654,1425
892.037231,1448
892.15387,1453
892.270447,1438
892.387085,1472
892.503723,1439
892.6203,1429
892.736877,1475
892.853516,1455
892.970032,1462
893.08667,1421
893.203186,1396
893.319763,1459
893.43634,1457
893.552917,1462
893.669556,1423
893.786011,1412
893.902588,1426
894.019165,1456
894.135681,1437
894.252197,1469
894.368835,1446
894.485291,1439
894.601868,1496
894.718384,1436
894.8349,1480
894.951355,1457
895.067932,1442
895.184448,1444
895.300964,1456
895.417419,1440
895.533936,1421
895.650452,1431
895.766907,1449
895.883423,1435
895.999878,1416
896.116333,1459
896.232849,1448
896.349304,1428
896.465759,1423
896.582214,1478
896.698669,1430
896.815125,1466
896.931641,1429
897.048035,1451
897.164551,1434
897.280884,1509
897.397339,1474
897.513794,1431
897.630249,1506
897.746582,1461
897.863098,1444
897.979431,1480
898.095886,1417
898.212341,1474
898.328674,1474
898.445129,1462
898.561462,1426
898.677795,1466
898.794312,1441
898.910645,1412
899.026978,1489
899.143433,1433
899.259766,1475
899.37616,1483
899.492493,1470
899.608765,1451
899.725159,1495
899.841553,1447
899.957947,1457
900.07428,1507
900.190552,1455
900.306946,1449
900.423157,1506
900.53949,1440
900.655884,1455
900.772156,1511
900.888489,1456
901.004822,1496
901.121033,1455
901.237366,1452
901.353699,1523
901.46991,1460
901.586304,1456
901.702515,1492
901.818787,1468
901.93512,1489
902.051331,1461
902.167603,1531
902.283875,1442
902.400085,1450
902.516418,1491
902.632629,1483
902.74884,1470
902.865112,1488
902.981384,1469
903.097595,1487
903.213867,1477
903.330017,1509
903.446289,1482
903.5625,1548
903.67865,1465
903.794922,1492
903.911072,1502
904.027344,1446
904.143494,1522
904.259705,1515
904.375916,1502
904.492065,1481
904.608215,1447
904.724426,1476
904.840576,1504
904.956726,1517
905.072876,1496
905.189087,1475
905.305176,1521
905.421387,1446
905.537537,1530
905.653687,1499
905.769775,1481
905.885925,1481
906.002014,1443
906.118164,1490
906.234314,1494
906.350403,1503
906.466492,1496
906.582642,1469
906.69873,1517
906.814758,1484
906.930908,1532
907.046936,1509
907.163086,1486
907.279175,1493
907.395264,1455
907.511353,1488
907.62738,1468
907.743408,1496
907.859497,1509
907.975525,1489
908.091553,1499
908.207703,1506
908.32373,1472
908.439758,1535
908.555786,1511
908.671814,1454
908.787842,1515
908.90387,1493
909.019775,1470
909.135864,1503
909.251892,1521
909.367859,1487
909.483826,1470
909.599854,1466
909.715881,1426
909.831848,1488
909.947815,1479
910.063782,1513
910.179749,1489
910.295776,1513
910.411743,1482
910.527649,1495
910.643616,1498
910.759583,1489
910.875488,1503
910.991455,1490
911.107361,1507
911.223267,1477
911.339294,1530
911.4552,1525
911.571106,1514
911.687073,1507
911.802979,1485
911.918823,1445
912.034729,1539
912.150635,1498
912.266602,1533
912.382446,1419
912.498352,1474
912.614197,1515
912.730103,1509
912.846008,1468
792.44574,2216
792.56488,2235
792.68396,2258
792.80304,2245
792.92218,2168
793.041199,2164
793.160339,2116
793.279419,2103
793.398499,2126
793.517578,2054
793.636658,2076
793.755737,2074
793.874817,2099
793.993896,2063
794.112976,2072
794.232056,1999
794.351074,2036
794.470215,2007
794.589233,1997
794.708313,2020
794.827393,1991
794.946411,1952
795.065552,2003
795.18457,1994
795.303589,1931
795.422668,2022
795.541687,1991
795.660767,2016
795.779846,2006
795.898865,1955
796.017883,1989
796.136963,1992
796.255981,1929
796.375061,1998
796.49408,1955
796.613037,1973
796.732117,1932
796.851135,1954
796.970154,1936
797.089233,1894
797.208191,1882
797.327271,1960
797.446228,1903
797.565186,1962
797.684265,1918
797.803223,1947
797.922241,1984
798.04126,1878
798.160278,1931
798.279297,1846
798.398315,1918
798.517273,1911
798.636292,1895
798.75531,1901
798.874268,1911
798.993286,1876
799.112244,1957
799.231323,1884
799.350281,1934
799.469238,1881
799.588257,1922
799.707153,1906
799.826111,1922
799.945129,1932
800.064087,1925
800.183044,1885
800.302063,1920
800.421021,1898
800.539978,1880
800.658936,1900
800.777893,1935
800.896912,1874
801.015747,1909
801.134705,1923
801.253723,1896
801.37262,1917
801.491638,1941
801.610535,1894
801.729492,1893
801.84845,1956
801.967407,1920
802.086243,1932
802.205261,1957
802.324158,1928
802.443115,1988
802.562073,1935
802.680969,1922
802.799927,1938
802.918762,1997
803.037659,1919
803.156677,2020
803.275574,1947
803.39447,1964
803.513428,1980
803.632263,1963
803.751221,1939
803.870117,1943
803.989014,1940
804.107971,1988
804.226746,1940
804.345642,2009
804.4646,1984
804.583496,1986
804.702393,2021
804.821228,2000
804.940125,1991
805.059021,1982
805.177917,2009
805.296814,2065
805.415649,2037
805.534546,2050
805.653442,2006
805.772278,2061
805.891113,2024
806.01001,2039
806.128906,2058
806.247742,2010
806.366577,2056
806.485413,2022
806.604309,2053
806.723145,2055
806.84198,2052
806.960876,2061
807.079712,2019
807.198486,2036
807.317383,2070
807.436218,2069
807.554993,2035
807.673889,2039
807.792725,2065
807.91156,2069
808.030396,2068
808.14917,2026
808.268005,2050
808.386841,2149
808.505676,2072
808.624451,2111
808.743286,2119
808.862122,2112
808.980896,2088
809.099731,2128
809.218506,2113
809.337341,2118
809.456116,2133
809.57489,2114
809.693726,2094
809.8125,2187
809.931274,2111
810.050049,2108
810.168884,2077
810.287659,2103
810.406372,2116
810.525269,2108
810.643982,2152
810.762756,2171
810.881531,2168
811.000305,2159
811.11908,2060
811.237854,2120
811.356567,2080
811.475403,2139
811.594116,2097
811.71283,2174
811.831604,2150
811.950378,2187
812.069153,2099
812.187927,2181
812.30658,2122
812.425415,2115
812.544128,2111
812.662781,2170
812.781616,2168
812.900269,2117
813.019043,2160
813.137756,2090
813.256531,2071
813.375244,2128
813.493896,2144
813.612671,2119
813.731384,2123
813.850037,2120
813.96875,2103
814.087524,2113
814.206238,2085
814.324951,2144
814.443604,2144
814.562256,2123
814.68103,2098
814.799683,2116
814.918335,2080
815.037109,2039
815.155762,2070
815.274475,2011
815.393188,2092
815.511841,2092
815.630554,2046
815.749146,2034
815.867859,1994
815.986572,2064
816.105164,1962
816.223877,2044
816.342529,2062
816.461182,2057
816.579895,2057
816.698486,2016
816.817139,2071
816.935791,2037
817.054504,2039
817.173096,2055
817.291748,2070
817.4104,1999
817.529053,2019
817.647644,1964
817.766235,1910
817.884949,1914
818.00354,1862
818.122192,1782
818.240845,1775
818.359436,1759
818.478088,1733
818.59668,1696
818.715271,1695
818.833923,1721
818.952515,1647
819.071106,1671
819.189758,1614
819.30835,1666
819.426941,1618
819.545532,1633
819.664124,1567
819.782715,1602
819.901306,1585
820.019897,1568
820.138489,1592
820.25708,1554
820.375671,1551
820.494202,1533
820.612732,1545
820.731384,1528
820.849915,1538
820.968506,1551
821.087097,1495
821.205627,1544
821.324158,1511
821.442749,1514
821.561279,1453
821.679871,1479
821.798401,1466
821.916931,1454
822.035461,1487
822.154053,1474
822.272583,1476
822.391174,1440
822.509583,1453
822.628174,1485
822.746704,1531
822.865234,1439
822.983765,1481
823.102295,1455
823.220825,1453
823.339294,1468
823.457825,1438
823.576355,1513
823.694824,1498
823.813354,1457
823.931885,1502
824.050354,1497
824.168884,1480
824.287354,1474
824.405823,1483
824.524353,1524
824.642822,1488
824.761353,1491
824.879822,1495
824.998291,1490
825.116699,1487
825.235291,1466
825.353699,1449
825.472168,1473
825.590637,1450
825.709106,1488
825.827576,1449
825.946045,1430
826.064453,1392
826.182983,1452
826.301392,1404
826.4198,1431
826.53833,1429
826.656738,1410
826.775208,1359
826.893677,1380
827.012024,1431
827.130493,1400
827.248962,1446
827.36731,1343
827.485779,1425
827.604248,1411
827.722595,1352
827.841064,1392
827.959412,1356
828.077942,1413
828.196289,1345
828.314636,1437
828.433105,1375
828.551514,1369
828.669861,1394
828.78833,1345
828.906677,1347
829.025085,1415
829.143433,1397
829.261841,1350
829.38031,1347
829.498657,1341
829.617004,1379
829.735413,1381
829.85376,1356
829.972107,1367
830.090515,1360
830.208862,1373
830.327209,1326
830.445557,1325
830.563904,1406
830.682312,1385
830.800659,1357
830.919006,1395
831.037354,1371
831.155701,1385
831.274048,1364
831.392395,1383
831.51062,1319
831.629028,1387
831.747314,1353
831.865662,1386
831.984009,1393
832.102356,1414
832.220642,1348
832.338928,1404
832.457275,1361
832.575623,1364
832.693909,1402
832.812134,1365
832.930481,1400
833.048828,1348
833.167114,1392
833.2854,1354
833.403687,1364
833.521973,1357
833.640259,1352
833.758545,1395
833.876831,1377
833.995056,1386
834.113281,1332
834.231628,1340
834.349915,1353
834.468201,1383
834.586426,1341
834.704651,1381
834.822998,1357
834.941162,1340
835.059448,1358
835.177673,1365
835.295959,1393
835.414246,1360
835.53241,1346
835.650635,1391
835.768921,1379
835.887146,1411
836.005371,1391
836.123596,1389
836.241821,1433
836.360046,1359
836.478271,1390
836.596497,1423
836.714722,1431
836.832886,1438
836.95105,1468
837.069336,1444
837.1875,1425
837.305725,1448
837.423889,1439
837.542053,1465
837.660339,1450
837.778503,1404
837.896667,1459
838.014832,1449
838.132996,1464
838.25116,1402
838.369385,1459
838.487488,1444
838.605713,1404
838.723877,1471
838.84198,1424
838.960205,1428
839.078308,1413
839.196472,1430
839.314636,1412
839.4328,1428
839.550964,1395
839.669067,1397
839.787231,1417
839.905396,1428
840.023499,1404
840.141602,1402
840.259766,1400
840.377869,1420
840.495972,1420
840.614136,1396
840.732239,1411
840.850342,1404
840.968445,1397
841.086548,1422
841.204651,1410
841.322754,1377
841.440918,1382
841.55896,1359
841.677002,1358
841.795166,1361
841.913208,1341
842.031311,1375
842.149353,1368
842.267456,1402
842.385498,1364
842.503601,1343
842.621643,1324
842.739746,1306
842.857788,1357
842.97583,1365
843.093933,1350
843.211975,1361
843.330017,1332
843.44812,1401
843.566101,1350
843.684204,1305
843.802246,1312
843.920227,1321
844.038269,1372
844.156311,1365
844.274292,1348
844.392395,1350
844.510376,1340
844.628357,1309
844.74646,1297
844.864441,1370
844.982422,1385
845.100403,1381
845.218384,1334
845.336426,1338
845.454468,1302
845.572449,1349
845.69043,1371
845.808411,1341
845.926453,1366
846.044373,1331
846.162354,1381
846.280396,1325
846.398315,1372
846.516296,1334
846.634216,1343
846.752197,1383
846.870178,1330
846.988098,1340
847.106079,1339
847.22406,1342
847.34198,1333
847.4599,1312
847.577881,1342
847.695801,1341
847.813782,1330
847.931641,1378
848.049561,1324
848.167603,1331
848.285461,1329
848.403381,1347
848.521362,1302
848.639221,1338
848.75708,1360
848.875,1332
848.99292,1369
849.110901,1341
849.22876,1345
849.34668,1359
849.464539,1326
849.582458,1368
849.700317,1308
849.818176,1331
849.936096,1371
850.053955,1369
850.171875,1343
850.289673,1279
850.407593,1377
850.525452,1346
850.643311,1356
850.761169,1342
850.878967,1334
850.996887,1337
851.114746,1333
851.232544,1396
851.350403,1340
851.468262,1342
851.58606,1322
851.703979,1330
851.821777,1345
851.939636,1354
852.057434,1336
852.175232,1342
852.293091,1357
852.410889,1369
852.528687,1329
852.646545,1371
852.764343,1343
852.88208,1338
852.999939,1380
853.117676,1354
853.235535,1362
853.353271,1380
853.471069,1337
853.588928,1396
853.706604,1350
853.824402,1350
853.9422,1350
854.059998,1358
854.177734,1377
854.295532,1387
854.413269,1359
854.531006,1386
854.648804,1347
854.766541,1341
854.884277,1338
855.002014,1381
855.119751,1371
855.237549,1393
855.355225,1418
855.473022,1363
855.590698,1383
855.708435,1393
855.826172,1355
855.943848,1362
856.061646,1369
856.179321,1356
856.296997,1376
856.414795,1365
856.53241,1379
856.650085,1367
856.767822,1415
856.885559,1390
857.003174,1388
857.120911,1398
857.238586,1405
857.356201,1407
857.473938,1341
857.591614,1406
857.709351,1369
857.826965,1371
857.944641,1404
858.062317,1398
858.179993,1397
858.297668,1375
858.415283,1378
858.532959,1404
858.650574,1349
858.768188,1399
858.885803,1348
859.003479,1357
859.121094,1400
859.23877,1383
859.356384,1340
859.473999,1387
859.591675,1373
859.709229,1391
859.826843,1417
859.944458,1353
860.062012,1363
860.179626,1358
860.297302,1388
860.414856,1364
860.532471,1374
860.650024,1394
860.767639,1382
860.885193,1346
861.002808,1343
861.120361,1344
861.237976,1377
861.35553,1380
861.473022,1365
861.590698,1366
861.708191,1357
861.825745,1381
861.943298,1426
862.060852,1373
862.178406,1383
862.295959,1355
862.413513,1346
862.531006,1437
862.64856,1353
862.766113,1357
862.883667,1370
863.00116,1425
863.118713,1352
863.236206,1433
863.353699,1373
863.471252,1389
863.588745,1381
863.706177,1382
863.82373,1409
863.941162,1391
864.058716,1345
864.176208,1377
864.29364,1390
864.411194,1378
864.528687,1439
864.646118,1397
864.763611,1388
864.881042,1385
864.998535,1404
865.116028,1349
865.233459,1424
865.350891,1387
865.468384,1431
865.585754,1364
865.703308,1395
865.820679,1407
865.938171,1411
866.055542,1381
866.173035,1382
866.290466,1380
866.407837,1356
866.52533,1382
866.6427,1416
866.760071,1368
866.877563,1418
866.994934,1399
867.112305,1360
867.229736,1424
867.347107,1374
867.464539,1420
867.58197,1335
867.699341,1380
867.81665,1379
867.934082,1361
868.051453,1362
868.168823,1406
868.286194,1380
868.403564,1417
868.520935,1402
868.638306,1406
868.755676,1389
868.872986,1411
868.990295,1404
869.107727,1360
869.225037,1415
869.342346,1387
869.459717,1365
869.577026,1378
869.694336,1423
869.811707,1372
869.929016,1412
870.046326,1390
870.163635,1372
870.280945,1370
870.398254,1397
870.515564,1384
870.632812,1397
870.750183,1447
870.867432,1374
870.984741,1401
871.102051,1413
871.219299,1383
871.336609,1390
871.453918,1408
871.571106,1419
871.688416,1408
871.805664,1436
871.922852,1370
872.040222,1373
872.157471,1399
872.274719,1354
872.391968,1368
872.509155,1373
872.626465,1411
872.743652,1433
872.860962,1407
872.978149,1382
873.095337,1389
873.212646,1394
873.329834,1382
873.44696,1402
873.564209,1398
873.681396,1423
873.798645,1435
873.915894,1367
874.03302,1399
874.150208,1362
874.267456,1392
874.384583,1380
874.501831,1363
874.618958,1374
874.736145,1389
874.853333,1398
874.970459,1379
875.087646,1399
875.204834,1388
875.32196,1399
875.439148,1391
875.556274,1440
875.673401,1398
875.790527,1400
875.907715,1394
876.024841,1410
876.141968,1389
876.259094,1389
876.376282,1380
876.493347,1430
876.610474,1429
876.7276,1426
876.844727,1391
876.961853,1392
877.078918,1438
877.195984,1455
877.313171,1390
877.430237,1429
877.547302,1393
877.664368,1400
877.781433,1429
877.898499,1380
878.015625,1412
878.13269,1389
878.249695,1395
878.366821,1411
878.483887,1412
878.600952,1423
878.717957,1399
878.834961,1439
878.952087,1403
879.069092,1371
879.186157,1438
879.303162,1403
879.420227,1399
879.537231,1401
879.654236,1405
879.77124,1392
879.888306,1387
880.005249,1442
880.122314,1418
880.239319,1379
880.356323,1397
880.473328,1413
880.590271,1414
880.707275,1392
880.824341,1407
880.941284,1436
881.058228,1405
881.175232,1410
881.292236,1424
881.40918,1390
881.526123,1425
881.643066,1412
881.760071,1423
881.877014,1419
881.993958,1407
882.11084,1439
882.227783,1383
882.344727,1399
882.46167,1427
882.578613,1383
882.695618,1450
882.812439,1449
882.929382,1416
883.046326,1400
883.163208,1417
883.280151,1394
883.397034,1369
883.513916,1448
883.630798,1419
883.747742,1475
883.864563,1419
883.981506,1434
884.098389,1386
884.21521,1454
884.332153,1430
884.448975,1459
884.565796,1413
884.682678,1460
884.7995,1413
884.916443,1433
885.033264,1435
885.150085,1426
885.266968,1475
885.383789,1451
885.500671,1438
885.617493,1432
885.734314,1420
885.851196,1450
885.967896,1426
886.084717,1427
886.201599,1478
886.318359,1427
886.435181,1478
886.552002,1490
886.668762,1445
886.785645,1429
886.902344,1449
887.019165,1444
887.135925,1439
887.252747,1433
887.369446,1437
887.486267,1444
887.603027,1411
887.719788,1422
887.836548,1436
887.953247,1448
888.070068,1462
888.186829,1432
888.303528,1445
888.420288,1485
888.536987,1443
888.653687,1430
888.770447,1432
888.887146,1430
889.003967,1417
889.120667,1451
889.237305,1450
889.354065,1443
889.470703,1439
889.587463,1475
889.704163,1459
889.820862,1462
889.937561,1443
890.054199,1426
890.170837,1450
890.287598,1421
890.404236,1429
890.520874,1419
890.637634,1468
890.754211,1463
890.87085,1449
890.987549,1470
891.104187,1456
891.220886,1480
891.337463,1460
891.454102,1419
891.57074,1451
891.687378,1475
891.804077,1517
891.920654,1460
892.037231,1434
892.15387,1493
892.270447,1439
892.387085,1460
892.503723,1436
892.6203,1462
892.736877,1454
892.853516,1457
892.970032,1469
893.08667,1465
893.203186,1456
893.319763,1469
893.43634,1464
893.552917,1472
893.669556,1483
893.786011,1512
893.902588,1506
894.019165,1456
894.135681,1458
894.252197,1493
894.368835,1495
894.485291,1496
894.601868,1503
894.718384,1494
894.8349,1510
894.951355,1497
895.067932,1473
895.184448,1458
895.300964,1467
895.417419,1468
895.533936,1477
895.650452,1454
895.766907,1497
895.883423,1505
895.999878,1471
896.116333,1484
896.232849,1502
896.349304,1461
896.465759,1489
896.582214,1464
896.698669,1494
896.815125,1512
896.931641,1466
897.048035,1494
897.164551,1494
897.280884,1484
897.397339,1490
897.513794,1440
897.630249,1492
897.746582,1488
897.863098,1465
897.979431,1495
898.095886,1488
898.212341,1517
898.328674,1489
898.445129,1527
898.561462,1533
898.677795,1494
898.794312,1486
898.910645,1519
899.026978,1457
899.143433,1468
899.259766,1461
899.37616,1497
899.492493,1488
899.608765,1520
899.725159,1537
899.841553,1515
899.957947,1508
900.07428,1529
900.190552,1536
900.306946,1504
900.423157,1520
900.53949,1504
900.655884,1524
900.772156,1474
900.888489,1479
901.004822,1513
901.121033,1520
901.237366,1472
901.353699,1491
901.46991,1474
901.586304,1500
901.702515,1462
901.818787,1504
901.93512,1517
902.051331,1496
902.167603,1527
902.283875,1516
902.400085,1503
902.516418,1467
902.632629,1491
902.74884,1528
902.865112,1524
902.981384,1501
903.097595,1512
903.213867,1524
903.330017,1528
903.446289,1524
903.5625,1515
903.67865,1497
903.794922,1545
903.911072,1530
904.027344,1546
904.143494,1520
904.259705,1541
904.375916,1521
904.492065,1539
904.608215,1470
904.724426,1480
904.840576,1525
904.956726,1534
905.072876,1483
905.189087,1528
905.305176,1486
905.421387,1509
905.537537,1530
905.653687,1536
905.769775,1523
905.885925,1521
906.002014,1511
906.118164,1511
906.234314,1507
906.350403,1530
906.466492,1557
906.582642,1533
906.69873,1523
906.814758,1548
906.930908,1561
907.046936,1510
907.163086,1543
907.279175,1546
907.395264,1555
907.511353,1530
907.62738,1503
907.743408,1559
907.859497,1559
907.975525,1540
908.091553,1537
908.207703,1530
908.32373,1573
908.439758,1522
908.555786,1504
908.671814,1531
908.787842,1563
908.90387,1506
909.019775,1541
909.135864,1511
909.251892,1551
909.367859,1585
909.483826,1516
909.599854,1540
909.715881,1537
909.831848,1584
909.947815,1496
910.063782,1521
910.179749,1573
910.295776,1555
910.411743,1541
910.527649,1508
910.643616,1528
910.759583,1524
910.875488,1507
910.991455,1516
911.107361,1549
911.223267,1569
911.339294,1528
911.4552,1493
911.571106,1516
911.687073,1538
911.802979,1538
911.918823,1499
912.034729,1545
912.150635,1541
912.266602,1500
912.382446,1551
912.498352,1528
912.614197,1510
912.730103,1526
912.846008,1515
792.44574,2280
792.56488,2279
792.68396,2237
792.80304,2203
792.92218,2145
793.041199,2128
793.160339,2160
793.279419,2135
793.398499,2146
793.517578,2128
793.636658,2054
793.755737,2141
793.874817,2101
793.993896,2079
794.112976,2117
794.232056,2026
794.351074,2043
794.470215,2030
794.589233,2050
794.708313,2020
794.827393,2021
794.946411,1994
795.065552,2060
795.18457,2043
795.303589,2061
795.422668,2003
795.541687,1961
795.660767,2002
795.779846,1985
795.898865,1999
796.017883,1956
796.136963,1966
796.255981,1961
796.375061,1964
796.49408,1975
796.613037,1959
796.732117,1973
796.851135,1967
796.970154,1958
797.089233,1924
797.208191,1955
797.327271,1935
797.446228,1940
797.565186,1923
797.684265,1908
797.803223,1921
797.922241,1918
798.04126,1943
798.160278,1957
798.279297,1941
798.398315,1880
798.517273,1932
798.636292,1904
798.75531,1947
798.874268,1911
798.993286,1917
799.112244,1856
799.231323,1938
799.350281,1953
799.469238,1922
799.588257,1908
799.707153,1929
799.826111,1955
799.945129,1882
800.064087,1979
800.183044,1927
800.302063,1909
800.421021,1903
800.539978,1888
800.658936,1873
800.777893,1940
800.896912,1953
801.015747,1934
801.134705,1980
801.253723,1956
801.37262,1885
801.491638,1933
801.610535,1984
801.729492,1937
801.84845,1938
801.967407,1917
802.086243,1986
802.205261,1962
802.324158,1916
802.443115,1988
802.562073,1979
802.680969,1966
802.799927,1940
802.918762,1950
803.037659,1960
803.156677,1998
803.275574,2003
803.39447,1957
803.513428,1980
803.632263,2004
803.751221,2010
803.870117,1980
803.989014,1946
804.107971,1999
804.226746,1991
804.345642,2004
804.4646,2015
804.583496,2060
804.702393,2017
804.821228,2044
804.940125,2017
805.059021,2023
805.177917,2091
805.296814,2008
805.415649,2079
805.534546,2060
805.653442,1999
805.772278,2036
805.891113,2031
806.01001,2040
806.128906,2052
806.247742,2041
806.366577,1991
806.485413,2069
806.604309,2035
806.723145,1997
806.84198,2038
806.960876,2040
807.079712,2047
807.198486,2103
807.317383,2049
807.436218,2067
807.554993,2103
807.673889,2141
807.792725,2067
807.91156,2110
808.030396,2115
808.14917,2071
808.268005,2029
808.386841,2098
808.505676,2067
808.624451,2095
808.743286,2061
808.862122,2095
808.980896,2056
809.099731,2116
809.218506,2098
809.337341,2055
809.456116,2122
809.57489,2116
809.693726,2117
809.8125,2111
809.931274,2143
810.050049,2134
810.168884,2146
810.287659,2156
810.406372,2131
810.525269,2117
810.643982,2107
810.762756,2137
810.881531,2105
811.000305,2122
811.11908,2151
811.237854,2132
811.356567,2165
811.475403,2112
811.594116,2116
811.71283,2121
811.831604,2106
811.950378,2150
812.069153,2104
812.187927,2171
812.30658,2122
812.425415,2180
812.544128,2093
812.662781,2128
812.781616,2068
812.900269,2123
813.019043,2096
813.137756,2151
813.256531,2128
813.375244,2165
813.493896,2168
813.612671,2151
813.731384,2081
813.850037,2103
813.96875,2106
814.087524,2105
814.206238,2094
814.324951,2117
814.443604,2094
814.562256,2114
814.68103,2111
814.799683,2137
814.918335,2091
815.037109,2070
815.155762,2066
815.274475,2073
815.393188,2076
815.511841,2065
815.630554,2078
815.749146,2044
815.867859,2036
815.986572,2034
816.105164,2037
816.223877,2020
816.342529,2072
816.461182,2043
816.579895,2028
816.698486,2029
816.817139,2050
816.935791,2076
817.054504,2063
817.173096,2044
817.291748,2078
817.4104,2033
817.529053,1950
817.647644,1958
817.766235,1917
817.884949,1932
818.00354,1880
818.122192,1835
818.240845,1857
818.359436,1817
818.478088,1797
818.59668,1736
818.715271,1690
818.833923,1665
818.952515,1650
819.071106,1652
819.189758,1640
819.30835,1660
819.426941,1617
819.545532,1607
819.664124,1617
819.782715,1587
819.901306,1564
820.019897,1546
820.138489,1588
820.25708,1568
820.375671,1517
820.494202,1506
820.612732,1532
820.731384,1524
820.849915,1537
820.968506,1529
821.087097,1509
821.205627,1527
821.324158,1565
821.442749,1506
821.561279,1452
821.679871,1551
821.798401,1493
821.916931,1567
822.035461,1474
822.154053,1571
822.272583,1472
822.391174,1494
822.509583,1472
822.628174,1468
822.746704,1503
822.865234,1440
822.983765,1489
823.102295,1478
823.220825,1490
823.339294,1440
823.457825,1496
823.576355,1526
823.694824,1465
823.813354,1473
823.931885,1512
824.050354,1461
824.168884,1527
824.287354,1492
824.405823,1517
824.524353,1527
824.642822,1514
824.761353,1480
824.879822,1481
824.998291,1488
825.116699,1474
825.235291,1500
825.353699,1534
825.472168,1444
825.590637,1488
825.709106,1487
825.827576,1467
825.946045,1446
826.064453,1457
826.182983,1425
826.301392,1452
826.4198,1452
826.53833,1460
826.656738,1429
826.775208,1392
826.893677,1401
827.012024,1448
827.130493,1397
827.248962,1398
827.36731,1409
827.485779,1374
827.604248,1390
827.722595,1410
827.841064,1412
827.959412,1379
828.077942,1379
828.196289,1371
828.314636,1393
828.433105,1383
828.551514,1389
828.669861,1423
828.78833,1409
828.906677,1386
829.025085,1403
829.143433,1351
829.261841,1398
829.38031,1362
829.498657,1381
829.617004,1365
829.735413,1368
829.85376,1395
829.972107,1381
830.090515,1374
830.208862,1377
830.327209,1395
830.445557,1360
830.563904,1377
830.682312,1343
830.800659,1345
830.919006,1350
831.037354,1377
831.155701,1396
831.274048,1364
831.392395,1383
831.51062,1341
831.629028,1412
831.747314,1381
831.865662,1371
831.984009,1379
832.102356,1409
832.220642,1331
832.338928,1371
832.457275,1381
832.575623,1366
832.693909,1347
832.812134,1410
832.930481,1377
833.048828,1382
833.167114,1375
833.2854,1415
833.403687,1344
833.521973,1419
833.640259,1357
833.758545,1343
833.876831,1360
833.995056,1387
834.113281,1394
834.231628,1396
834.349915,1395
834.468201,1373
834.586426,1343
834.704651,1380
834.822998,1410
834.941162,1417
835.059448,1362
835.177673,1398
835.295959,1333
835.414246,1410
835.53241,1387
835.650635,1405
835.768921,1423
835.887146,1360
836.005371,1395
836.123596,1392
836.241821,1401
836.360046,1424
836.478271,1388
836.596497,1424
836.714722,1422
836.832886,1454
836.95105,1425
837.069336,1453
837.1875,1464
837.305725,1469
837.423889,1442
837.542053,1448
837.660339,1429
837.778503,1437
837.896667,1477
838.014832,1441
838.132996,1461
838.25116,1454
838.369385,1451
838.487488,1469
838.605713,1498
838.723877,1486
838.84198,1456
838.960205,1419
839.078308,1427
839.196472,1456
839.314636,1440
839.4328,1422
839.550964,1432
839.669067,1421
839.787231,1436
839.905396,1448
840.023499,1458
840.141602,1391
840.259766,1419
840.377869,1391
840.495972,1426
840.614136,1428
840.732239,1339
840.850342,1412
840.968445,1382
841.086548,1392
841.204651,1405
841.322754,1443
841.440918,1374
841.55896,1436
841.677002,1358
841.795166,1400
841.913208,1344
842.031311,1361
842.149353,1375
842.267456,1398
842.385498,1348
842.503601,1371
842.621643,1351
842.739746,1397
842.857788,1367
842.97583,1380
843.093933,1372
843.211975,1357
843.330017,1364
843.44812,1385
843.566101,1346
843.684204,1349
843.802246,1378
843.920227,1345
844.038269,1341
844.156311,1355
844.274292,1333
844.392395,1360
844.510376,1337
844.628357,1359
844.74646,1354
844.864441,1362
844.982422,1375
845.100403,1372
845.218384,1352
845.336426,1334
845.454468,1389
845.572449,1338
845.69043,1347
845.808411,1357
845.926453,1360
846.044373,1359
846.162354,1416
846.280396,1324
846.398315,1306
846.516296,1371
846.634216,1362
846.752197,1320
846.870178,1381
846.988098,1341
847.106079,1364
847.22406,1356
847.34198,1356
847.4599,1373
847.577881,1336
847.695801,1356
847.813782,1330
847.931641,1361
848.049561,1337
848.167603,1333
848.285461,1354
848.403381,1387
848.521362,1360
848.639221,1341
848.75708,1395
848.875,1365
848.99292,1376
849.110901,1373
849.22876,1400
849.34668,1373
849.464539,1372
849.582458,1376
849.700317,1337
849.818176,1377
849.936096,1367
850.053955,1385
850.171875,1347
850.289673,1375
850.407593,1363
850.525452,1354
850.643311,1374
850.761169,1362
850.878967,1416
850.996887,1356
851.114746,1367
851.232544,1371
851.350403,1388
851.468262,1370
851.58606,1337
851.703979,1391
851.821777,1334
851.939636,1345
852.057434,1327
852.175232,1377
852.293091,1398
852.410889,1379
852.528687,1320
852.646545,1385
852.764343,1364
852.88208,1347
852.999939,1376
853.117676,1387
853.235535,1403
853.353271,1395
853.471069,1385
853.588928,1357
853.706604,1369
853.824402,1396
853.9422,1348
854.059998,1386
854.177734,1372
854.295532,1387
854.413269,1403
854.531006,1349
854.648804,1383
854.766541,1385
854.884277,1374
855.002014,1434
855.119751,1404
855.237549,1395
855.355225,1390
855.473022,1382
855.590698,1385
855.708435,1377
855.826172,1396
855.943848,1363
856.061646,1408
856.179321,1396
856.296997,1370
856.414795,1391
856.53241,1393
856.650085,1418
856.767822,1393
856.885559,1409
857.003174,1368
857.120911,1418
857.238586,1394
857.356201,1416
857.473938,1393
857.591614,1410
857.709351,1400
857.826965,1412
857.944641,1393
858.062317,1382
858.179993,1404
858.297668,1388
858.415283,1367
858.532959,1342
858.650574,1392
858.768188,1365
858.885803,1388
859.003479,1389
859.121094,1364
859.23877,1403
859.356384,1386
859.473999,1383
859.591675,1353
859.709229,1424
859.826843,1383
859.944458,1337
860.062012,1344
860.179626,1322
860.297302,1385
860.414856,1360
860.532471,1373
860.650024,1369
860.767639,1392
860.885193,1401
861.002808,1357
861.120361,1349
861.237976,1351
861.35553,1372
861.473022,1382
861.590698,1381
861.708191,1389
861.825745,1405
861.943298,1370
862.060852,1386
862.178406,1391
862.295959,1353
862.413513,1378
862.531006,1363
862.64856,1375
862.766113,1406
862.883667,1375
863.00116,1349
863.118713,1352
863.236206,1379
863.353699,1354
863.471252,1406
863.588745,1370
863.706177,1362
863.82373,1369
863.941162,1400
864.058716,1375
864.176208,1399
864.29364,1368
864.411194,1389
864.528687,1384
864.646118,1384
864.763611,1404
864.881042,1387
864.998535,1369
865.116028,1431
865.233459,1413
865.350891,1408
865.468384,1399
865.585754,1369
865.703308,1375
865.820679,1423
865.938171,1399
866.055542,1366
866.173035,1387
866.290466,1386
866.407837,1434
866.52533,1402
866.6427,1402
866.760071,1381
866.877563,1399
866.994934,1385
867.112305,1396
867.229736,1384
867.347107,1379
867.464539,1400
867.58197,1364
867.699341,1437
867.81665,1438
867.934082,1418
868.051453,1424
868.168823,1405
868.286194,1403
868.403564,1411
868.520935,1410
868.638306,1391
868.755676,1442
868.872986,1401
868.990295,1354
869.107727,1448
869.225037,1446
869.342346,1448
869.459717,1367
869.577026,1447
869.694336,1393
869.811707,1409
869.929016,1425
870.046326,1375
870.163635,1410
870.280945,1435
870.398254,1382
870.515564,1406
870.632812,1368
870.750183,1434
870.867432,1441
870.984741,1452
871.102051,1390
871.219299,1410
871.336609,1415
871.453918,1379
871.571106,1398
871.688416,1390
871.805664,1389
871.922852,1392
872.040222,1401
872.157471,1395
872.274719,1399
872.391968,1420
872.509155,1381
872.626465,1405
872.743652,1393
872.860962,1420
872.978149,1370
873.095337,1450
873.212646,1450
873.329834,1413
873.44696,1457
873.564209,1410
873.681396,1395
873.798645,1430
873.915894,1363
874.03302,1419
874.150208,1435
874.267456,1398
874.384583,1392
874.501831,1423
874.618958,1398
874.736145,1401
874.853333,1432
874.970459,1375
875.087646,1449
875.204834,1427
875.32196,1390
875.439148,1399
875.556274,1404
875.673401,1480
875.790527,1404
875.907715,1430
876.024841,1402
876.141968,1407
876.259094,1413
876.376282,1451
876.493347,1432
876.610474,1404
876.7276,1388
876.844727,1402
876.961853,1415
877.078918,1383
877.195984,1417
877.313171,1424
877.430237,1435
877.547302,1449
877.664368,1406
877.781433,1445
877.898499,1452
878.015625,1427
878.13269,1360
878.249695,1457
878.366821,1402
878.483887,1452
878.600952,1418
878.717957,1425
878.834961,1411
878.952087,1464
879.069092,1434
879.186157,1429
879.303162,1396
879.420227,1389
879.537231,1413
879.654236,1378
879.77124,1393
879.888306,1448
880.005249,1397
880.122314,1419
880.239319,1432
880.356323,1431
880.473328,1397
880.590271,1424
880.707275,1443
880.824341,1395
880.941284,1424
881.058228,1399
881.175232,1442
881.292236,1438
881.40918,1396
881.526123,1419
881.643066,1442
881.760071,1437
881.877014,1407
881.993958,1453
882.11084,1426
882.227783,1414
882.344727,1409
882.46167,1402
882.578613,1439
882.695618,1436
882.812439,1426
882.929382,1410
883.046326,1410
883.163208,1438
883.280151,1434
883.397034,1452
883.513916,1427
883.630798,1469
883.747742,1408
883.864563,1414
883.981506,1449
884.098389,1419
884.21521,1423
884.332153,1445
884.448975,1389
884.565796,1459
884.682678,1406
884.7995,1442
884.916443,1459
885.033264,1472
885.150085,1455
885.266968,1484
885.383789,1466
885.500671,1464
885.617493,1463
885.734314,1473
885.851196,1465
885.967896,1415
886.084717,1451
886.201599,1446
886.318359,1468
886.435181,1425
886.552002,1459
886.668762,1447
886.785645,1472
886.902344,1436
887.019165,1476
887.135925,1465
887.252747,1499
887.369446,1459
887.486267,1468
887.603027,1451
887.719788,1486
887.836548,1484
887.953247,1417
888.070068,1467
888.186829,1516
888.303528,1426
888.420288,1448
888.536987,1474
888.653687,1413
888.770447,1451
888.887146,1457
889.003967,1460
889.120667,1421
889.237305,1471
889.354065,1482
889.470703,1498
889.587463,1449
889.704163,1462
889.820862,1451
889.937561,1425
890.054199,1450
890.170837,1509
890.287598,1429
890.404236,1459
890.520874,1467
890.637634,1464
890.754211,1466
890.87085,1450
890.987549,1477
891.104187,1509
891.220886,1454
891.337463,1447
891.454102,1503
891.57074,1484
891.687378,1466
891.804077,1476
891.920654,1463
892.037231,1463
892.15387,1469
892.270447,1485
892.387085,1448
892.503723,1512
892.6203,1451
892.736877,1432
892.853516,1505
892.970032,1472
893.08667,1493
893.203186,1485
893.319763,1454
893.43634,1503
893.552917,1470
893.669556,1463
893.786011,1493
893.902588,1437
894.019165,1507
894.135681,1516
894.252197,1429
894.368835,1532
894.485291,1471
894.601868,1494
894.718384,1504
894.8349,1457
894.951355,1474
895.067932,1483
895.184448,1515
895.300964,1495
895.417419,1502
895.533936,1505
895.650452,1480
895.766907,1528
895.883423,1488
895.999878,1462
896.116333,1498
896.232849,1505
896.349304,1479
896.465759,1545
896.582214,1469
896.698669,1472
896.815125,1464
896.931641,1467
897.048035,1526
897.164551,1463
897.280884,1470
897.397339,1538
897.513794,1479
897.630249,1484
897.746582,1481
897.863098,1479
897.979431,1505
898.095886,1494
898.212341,1506
898.328674,1521
898.445129,1489
898.561462,1522
898.677795,1502
898.794312,1479
898.910645,1515
899.026978,1458
899.143433,1504
899.259766,1514
899.37616,1523
899.492493,1508
899.608765,1496
899.725159,1489
899.841553,1506
899.957947,1519
900.07428,1492
900.190552,1543
900.306946,1509
900.423157,1498
900.53949,1524
900.655884,1472
900.772156,1477
900.888489,1534
901.004822,1475
901.121033,1531
901.237366,1520
901.353699,1534
901.46991,1531
901.586304,1507
901.702515,1468
901.818787,1512
901.93512,1471
902.051331,1533
902.167603,1521
902.283875,1545
902.400085,1508
902.516418,1548
902.632629,1515
902.74884,1538
902.865112,1568
902.981384,1508
903.097595,1549
903.213867,1520
903.330017,1521
903.446289,1560
903.5625,1509
903.67865,1551
903.794922,1522
903.911072,1521
904.027344,1550
904.143494,1571
904.259705,1542
904.375916,1526
904.492065,1555
904.608215,1578
904.724426,1529
904.840576,1542
904.956726,1484
905.072876,1520
905.189087,1541
905.305176,1545
905.421387,1545
905.537537,1524
905.653687,1498
905.769775,1542
905.885925,1605
906.002014,1547
906.118164,1490
906.234314,1549
906.350403,1512
906.466492,1527
906.582642,1516
906.69873,1494
906.814758,1532
906.930908,1537
907.046936,1517
907.163086,1569
907.279175,1549
907.395264,1553
907.511353,1559
907.62738,1510
907.743408,1524
907.859497,1556
907.975525,1540
908.091553,1534
908.207703,1505
908.32373,1533
908.439758,1574
908.555786,1522
908.671814,1526
908.787842,1567
908.90387,1565
909.019775,1564
909.135864,1518
909.251892,1544
909.367859,1530
909.483826,1558
909.599854,1526
909.715881,1546
909.831848,1529
909.947815,1561
910.063782,1550
910.179749,1554
910.295776,1565
910.411743,1519
910.527649,1575
910.643616,1594
910.759583,1532
910.875488,1566
910.991455,1596
911.107361,1544
911.223267,1560
911.339294,1563
911.4552,1547
911.571106,1536
911.687073,1545
911.802979,1533
911.918823,1540
912.034729,1535
912.150635,1517
912.266602,1543
912.382446,1554
912.498352,1502
912.614197,1522
912.730103,1512
912.846008,1540
