792.44574,2140
792.56488,2126
792.68396,2079
792.80304,2124
792.92218,2061
793.041199,1989
793.160339,2048
793.279419,1995
793.398499,1956
793.517578,1950
793.636658,1928
793.755737,1940
793.874817,1928
793.993896,1893
794.112976,1907
794.232056,1886
794.351074,1900
794.470215,1831
794.589233,1854
794.708313,1818
794.827393,1831
794.946411,1774
795.065552,1840
795.18457,1805
795.303589,1809
795.422668,1775
795.541687,1792
795.660767,1757
795.779846,1780
795.898865,1756
796.017883,1766
796.136963,1757
796.255981,1748
796.375061,1741
796.49408,1738
796.613037,1741
796.732117,1730
796.851135,1779
796.970154,1707
797.089233,1740
797.208191,1663
797.327271,1750
797.446228,1725
797.565186,1741
797.684265,1737
797.803223,1727
797.922241,1716
798.04126,1656
798.160278,1696
798.279297,1708
798.398315,1679
798.517273,1736
798.636292,1719
798.75531,1691
798.874268,1710
798.993286,1699
799.112244,1684
799.231323,1687
799.350281,1684
799.469238,1680
799.588257,1729
799.707153,1667
799.826111,1728
799.945129,1708
800.064087,1649
800.183044,1695
800.302063,1684
800.421021,1692
800.539978,1681
800.658936,1677
800.777893,1703
800.896912,1701
801.015747,1697
801.134705,1690
801.253723,1713
801.37262,1665
801.491638,1731
801.610535,1685
801.729492,1676
801.84845,1676
801.967407,1673
802.086243,1703
802.205261,1741
802.324158,1744
802.443115,1677
802.562073,1734
802.680969,1694
802.799927,1703
802.918762,1714
803.037659,1652
803.156677,1702
803.275574,1719
803.39447,1710
803.513428,1711
803.632263,1695
803.751221,1715
803.870117,1707
803.989014,1710
804.107971,1696
804.226746,1718
804.345642,1718
804.4646,1692
804.583496,1733
804.702393,1699
804.821228,1711
804.940125,1745
805.059021,1712
805.177917,1709
805.296814,1708
805.415649,1743
805.534546,1764
805.653442,1734
805.772278,1730
805.891113,1700
806.01001,1756
806.128906,1742
806.247742,1720
806.366577,1730
806.485413,1768
806.604309,1700
806.723145,1716
806.84198,1748
806.960876,1729
807.079712,1724
807.198486,1699
807.317383,1733
807.436218,1728
807.554993,1726
807.673889,1752
807.792725,1780
807.91156,1739
808.030396,1739
808.14917,1718
808.268005,1747
808.386841,1726
808.505676,1718
808.624451,1752
808.743286,1737
808.862122,1761
808.980896,1773
809.099731,1758
809.218506,1747
809.337341,1746
809.456116,1726
809.57489,1735
809.693726,1796
809.8125,1790
809.931274,1756
810.050049,1779
810.168884,1737
810.287659,1749
810.406372,1774
810.525269,1772
810.643982,1736
810.762756,1758
810.881531,1743
811.000305,1767
811.11908,1746
811.237854,1760
811.356567,1771
811.475403,1755
811.594116,1717
811.71283,1775
811.831604,1744
811.950378,1794
812.069153,1783
812.187927,1730
812.30658,1786
812.425415,1728
812.544128,1787
812.662781,1773
812.781616,1765
812.900269,1792
813.019043,1778
813.137756,1749
813.256531,1762
813.375244,1717
813.493896,1740
813.612671,1751
813.731384,1774
813.850037,1788
813.96875,1758
814.087524,1752
814.206238,1779
814.324951,1725
814.443604,1735
814.562256,1723
814.68103,1699
814.799683,1743
814.918335,1722
815.037109,1740
815.155762,1708
815.274475,1750
815.393188,1728
815.511841,1728
815.630554,1649
815.749146,1702
815.867859,1715
815.986572,1699
816.105164,1682
816.223877,1714
816.342529,1710
816.461182,1716
816.579895,1682
816.698486,1708
816.817139,1683
816.935791,1704
817.054504,1758
817.173096,1714
817.291748,1729
817.4104,1704
817.529053,1669
817.647644,1694
817.766235,1681
817.884949,1660
818.00354,1646
818.122192,1584
818.240845,1596
818.359436,1546
818.478088,1551
818.59668,1484
818.715271,1548
818.833923,1451
818.952515,1514
819.071106,1470
819.189758,1479
819.30835,1439
819.426941,1454
819.545532,1435
819.664124,1463
819.782715,1407
819.901306,1425
820.019897,1475
820.138489,1426
820.25708,1420
820.375671,1409
820.494202,1424
820.612732,1459
820.731384,1390
820.849915,1423
820.968506,1435
821.087097,1414
821.205627,1420
821.324158,1339
821.442749,1386
821.561279,1371
821.679871,1395
821.798401,1397
821.916931,1383
822.035461,1403
822.154053,1416
822.272583,1337
822.391174,1373
822.509583,1361
822.628174,1407
822.746704,1387
822.865234,1346
822.983765,1357
823.102295,1361
823.220825,1336
823.339294,1343
823.457825,1353
823.576355,1384
823.694824,1366
823.813354,1417
823.931885,1387
824.050354,1384
824.168884,1369
824.287354,1363
824.405823,1388
824.524353,1387
824.642822,1361
824.761353,1400
824.879822,1359
824.998291,1389
825.116699,1372
825.235291,1392
825.353699,1369
825.472168,1383
825.590637,1366
825.709106,1390
825.827576,1363
825.946045,1337
826.064453,1328
826.182983,1344
826.301392,1403
826.4198,1362
826.53833,1327
826.656738,1311
826.775208,1330
826.893677,1272
827.012024,1314
827.130493,1364
827.248962,1327
827.36731,1322
827.485779,1337
827.604248,1353
827.722595,1304
827.841064,1325
827.959412,1303
828.077942,1317
828.196289,1306
828.314636,1318
828.433105,1299
828.551514,1303
828.669861,1332
828.78833,1331
828.906677,1301
829.025085,1276
829.143433,1317
829.261841,1283
829.38031,1290
829.498657,1307
829.617004,1312
829.735413,1275
829.85376,1311
829.972107,1314
830.090515,1316
830.208862,1303
830.327209,1300
830.445557,1304
830.563904,1310
830.682312,1311
830.800659,1311
830.919006,1311
831.037354,1302
831.155701,1332
831.274048,1289
831.392395,1328
831.51062,1306
831.629028,1297
831.747314,1286
831.865662,1324
831.984009,1316
832.102356,1320
832.220642,1264
832.338928,1324
832.457275,1353
832.575623,1301
832.693909,1297
832.812134,1287
832.930481,1309
833.048828,1307
833.167114,1304
833.2854,1324
833.403687,1345
833.521973,1323
833.640259,1344
833.758545,1259
833.876831,1285
833.995056,1344
834.113281,1283
834.231628,1296
834.349915,1314
834.468201,1328
834.586426,1285
834.704651,1320
834.822998,1297
834.941162,1335
835.059448,1281
835.177673,1317
835.295959,1288
835.414246,1312
835.53241,1316
835.650635,1324
835.768921,1293
835.887146,1296
836.005371,1291
836.123596,1306
836.241821,1328
836.360046,1324
836.478271,1364
836.596497,1324
836.714722,1348
836.832886,1348
836.95105,1343
837.069336,1339
837.1875,1321
837.305725,1342
837.423889,1322
837.542053,1323
837.660339,1317
837.778503,1337
837.896667,1332
838.014832,1341
838.132996,1342
838.25116,1365
838.369385,1328
838.487488,1389
838.605713,1365
838.723877,1354
838.84198,1374
838.960205,1373
839.078308,1326
839.196472,1316
839.314636,1324
839.4328,1343
839.550964,1336
839.669067,1359
839.787231,1314
839.905396,1347
840.023499,1353
840.141602,1373
840.259766,1308
840.377869,1307
840.495972,1361
840.614136,1321
840.732239,1320
840.850342,1348
840.968445,1304
841.086548,1334
841.204651,1272
841.322754,1367
841.440918,1313
841.55896,1360
841.677002,1271
841.795166,1311
841.913208,1307
842.031311,1308
842.149353,1338
842.267456,1297
842.385498,1277
842.503601,1357
842.621643,1335
842.739746,1346
842.857788,1278
842.97583,1275
843.093933,1285
843.211975,1285
843.330017,1318
843.44812,1326
843.566101,1292
843.684204,1273
843.802246,1294
843.920227,1310
844.038269,1276
844.156311,1344
844.274292,1295
844.392395,1294
844.510376,1287
844.628357,1355
844.74646,1278
844.864441,1287
844.982422,1303
845.100403,1270
845.218384,1292
845.336426,1302
845.454468,1291
845.572449,1262
845.69043,1292
845.808411,1305
845.926453,1291
846.044373,1298
846.162354,1293
846.280396,1282
846.398315,1273
846.516296,1299
846.634216,1271
846.752197,1237
846.870178,1303
846.988098,1307
847.106079,1304
847.22406,1277
847.34198,1296
847.4599,1301
847.577881,1258
847.695801,1273
847.813782,1284
847.931641,1272
848.049561,1303
848.167603,1280
848.285461,1274
848.403381,1272
848.521362,1288
848.639221,1275
848.75708,1267
848.875,1258
848.99292,1279
849.110901,1282
849.22876,1314
849.34668,1275
849.464539,1322
849.582458,1296
849.700317,1325
849.818176,1284
849.936096,1289
850.053955,1274
850.171875,1282
850.289673,1282
850.407593,1295
850.525452,1291
850.643311,1275
850.761169,1274
850.878967,1299
850.996887,1257
851.114746,1294
851.232544,1308
851.350403,1274
851.468262,1337
851.58606,1324
851.703979,1299
851.821777,1299
851.939636,1296
852.057434,1317
852.175232,1314
852.293091,1291
852.410889,1285
852.528687,1288
852.646545,1301
852.764343,1297
852.88208,1304
852.999939,1277
853.117676,1307
853.235535,1327
853.353271,1257
853.471069,1341
853.588928,1311
853.706604,1295
853.824402,1316
853.9422,1311
854.059998,1271
854.177734,1287
854.295532,1306
854.413269,1329
854.531006,1296
854.648804,1300
854.766541,1302
854.884277,1301
855.002014,1301
855.119751,1302
855.237549,1322
855.355225,1363
855.473022,1328
855.590698,1285
855.708435,1320
855.826172,1293
855.943848,1318
856.061646,1343
856.179321,1290
856.296997,1300
856.414795,1324
856.53241,1294
856.650085,1340
856.767822,1299
856.885559,1332
857.003174,1305
857.120911,1311
857.238586,1311
857.356201,1322
857.473938,1320
857.591614,1353
857.709351,1314
857.826965,1274
857.944641,1340
858.062317,1323
858.179993,1331
858.297668,1351
858.415283,1323
858.532959,1347
858.650574,1322
858.768188,1346
858.885803,1340
859.003479,1333
859.121094,1359
859.23877,1283
859.356384,1287
859.473999,1303
859.591675,1320
859.709229,1304
859.826843,1291
859.944458,1302
860.062012,1271
860.179626,1291
860.297302,1276
860.414856,1308
860.532471,1269
860.650024,1294
860.767639,1307
860.885193,1282
861.002808,1290
861.120361,1289
861.237976,1290
861.35553,1315
861.473022,1301
861.590698,1343
861.708191,1318
861.825745,1342
861.943298,1276
862.060852,1307
862.178406,1281
862.295959,1301
862.413513,1309
862.531006,1304
862.64856,1328
862.766113,1313
862.883667,1303
863.00116,1311
863.118713,1310
863.236206,1306
863.353699,1274
863.471252,1311
863.588745,1300
863.706177,1329
863.82373,1280
863.941162,1304
864.058716,1324
864.176208,1326
864.29364,1310
864.411194,1314
864.528687,1294
864.646118,1332
864.763611,1295
864.881042,1326
864.998535,1306
865.116028,1293
865.233459,1331
865.350891,1322
865.468384,1294
865.585754,1296
865.703308,1310
865.820679,1289
865.938171,1289
866.055542,1350
866.173035,1324
866.290466,1276
866.407837,1314
866.52533,1307
866.6427,1333
866.760071,1319
866.877563,1295
866.994934,1332
867.112305,1312
867.229736,1342
867.347107,1282
867.464539,1339
867.58197,1288
867.699341,1326
867.81665,1319
867.934082,1342
868.051453,1310
868.168823,1300
868.286194,1316
868.403564,1282
868.520935,1296
868.638306,1319
868.755676,1250
868.872986,1312
868.990295,1292
869.107727,1358
869.225037,1343
869.342346,1301
869.459717,1312
869.577026,1284
869.694336,1332
869.811707,1325
869.929016,1311
870.046326,1342
870.163635,1327
870.280945,1342
870.398254,1318
870.515564,1376
870.632812,1303
870.750183,1292
870.867432,1328
870.984741,1364
871.102051,1324
871.219299,1331
871.336609,1334
871.453918,1314
871.571106,1349
871.688416,1380
871.805664,1338
871.922852,1321
872.040222,1330
872.157471,1377
872.274719,1345
872.391968,1376
872.509155,1344
872.626465,1331
872.743652,1362
872.860962,1353
872.978149,1380
873.095337,1360
873.212646,1345
873.329834,1315
873.44696,1329
873.564209,1337
873.681396,1309
873.798645,1351
873.915894,1321
874.03302,1346
874.150208,1334
874.267456,1364
874.384583,1341
874.501831,1344
874.618958,1318
874.736145,1333
874.853333,1364
874.970459,1357
875.087646,1358
875.204834,1304
875.32196,1351
875.439148,1320
875.556274,1387
875.673401,1332
875.790527,1302
875.907715,1332
876.024841,1331
876.141968,1362
876.259094,1355
876.376282,1308
876.493347,1359
876.610474,1336
876.7276,1307
876.844727,1371
876.961853,1348
877.078918,1338
877.195984,1300
877.313171,1338
877.430237,1344
877.547302,1346
877.664368,1310
877.781433,1357
877.898499,1315
878.015625,1330
878.13269,1313
878.249695,1323
878.366821,1304
878.483887,1360
878.600952,1330
878.717957,1314
878.834961,1328
878.952087,1311
879.069092,1344
879.186157,1368
879.303162,1330
879.420227,1321
879.537231,1341
879.654236,1346
879.77124,1365
879.888306,1357
880.005249,1338
880.122314,1350
880.239319,1332
880.356323,1348
880.473328,1317
880.590271,1297
880.707275,1329
880.824341,1310
880.941284,1299
881.058228,1321
881.175232,1336
881.292236,1336
881.40918,1322
881.526123,1345
881.643066,1351
881.760071,1380
881.877014,1347
881.993958,1328
882.11084,1296
882.227783,1335
882.344727,1338
882.46167,1316
882.578613,1320
882.695618,1371
882.812439,1319
882.929382,1375
883.046326,1331
883.163208,1340
883.280151,1326
883.397034,1360
883.513916,1345
883.630798,1339
883.747742,1326
883.864563,1334
883.981506,1354
884.098389,1350
884.21521,1349
884.332153,1327
884.448975,1309
884.565796,1384
884.682678,1367
884.7995,1366
884.916443,1383
885.033264,1412
885.150085,1384
885.266968,1386
885.383789,1448
885.500671,1430
885.617493,1378
885.734314,1415
885.851196,1413
885.967896,1378
886.084717,1401
886.201599,1430
886.318359,1391
886.435181,1402
886.552002,1376
886.668762,1373
886.785645,1409
886.902344,1374
887.019165,1420
887.135925,1353
887.252747,1383
887.369446,1397
887.486267,1350
887.603027,1366
887.719788,1373
887.836548,1336
887.953247,1310
888.070068,1371
888.186829,1375
888.303528,1402
888.420288,1382
888.536987,1362
888.653687,1319
888.770447,1376
888.887146,1339
889.003967,1347
889.120667,1397
889.237305,1338
889.354065,1352
889.470703,1368
889.587463,1384
889.704163,1344
889.820862,1384
889.937561,1357
890.054199,1368
890.170837,1353
890.287598,1343
890.404236,1348
890.520874,1328
890.637634,1357
890.754211,1391
890.87085,1321
890.987549,1337
891.104187,1359
891.220886,1379
891.337463,1342
891.454102,1393
891.57074,1381
891.687378,1367
891.804077,1387
891.920654,1340
892.037231,1316
892.15387,1360
892.270447,1364
892.387085,1390
892.503723,1382
892.6203,1343
892.736877,1369
892.853516,1353
892.970032,1358
893.08667,1380
893.203186,1359
893.319763,1367
893.43634,1390
893.552917,1368
893.669556,1352
893.786011,1353
893.902588,1364
894.019165,1363
894.135681,1346
894.252197,1422
894.368835,1394
894.485291,1316
894.601868,1368
894.718384,1379
894.8349,1414
894.951355,1387
895.067932,1384
895.184448,1370
895.300964,1382
895.417419,1365
895.533936,1376
895.650452,1365
895.766907,1364
895.883423,1333
895.999878,1405
896.116333,1403
896.232849,1376
896.349304,1363
896.465759,1376
896.582214,1378
896.698669,1373
896.815125,1406
896.931641,1372
897.048035,1362
897.164551,1383
897.280884,1386
897.397339,1383
897.513794,1418
897.630249,1408
897.746582,1370
897.863098,1367
897.979431,1379
898.095886,1391
898.212341,1354
898.328674,1390
898.445129,1352
898.561462,1421
898.677795,1350
898.794312,1404
898.910645,1334
899.026978,1401
899.143433,1391
899.259766,1374
899.37616,1360
899.492493,1389
899.608765,1375
899.725159,1394
899.841553,1405
899.957947,1416
900.07428,1405
900.190552,1383
900.306946,1367
900.423157,1375
900.53949,1347
900.655884,1421
900.772156,1415
900.888489,1398
901.004822,1376
901.121033,1392
901.237366,1407
901.353699,1367
901.46991,1373
901.586304,1375
901.702515,1387
901.818787,1408
901.93512,1398
902.051331,1383
902.167603,1428
902.283875,1404
902.400085,1410
902.516418,1407
902.632629,1461
902.74884,1456
902.865112,1420
902.981384,1415
903.097595,1422
903.213867,1373
903.330017,1461
903.446289,1431
903.5625,1394
903.67865,1426
903.794922,1412
903.911072,1442
904.027344,1393
904.143494,1448
904.259705,1405
904.375916,1451
904.492065,1402
904.608215,1448
904.724426,1388
904.840576,1408
904.956726,1374
905.072876,1395
905.189087,1353
905.305176,1404
905.421387,1413
905.537537,1423
905.653687,1397
905.769775,1412
905.885925,1459
906.002014,1382
906.118164,1431
906.234314,1384
906.350403,1420
906.466492,1402
906.582642,1436
906.69873,1411
906.814758,1422
906.930908,1419
907.046936,1408
907.163086,1409
907.279175,1369
907.395264,1433
907.511353,1370
907.62738,1405
907.743408,1421
907.859497,1413
907.975525,1422
908.091553,1396
908.207703,1381
908.32373,1417
908.439758,1434
908.555786,1428
908.671814,1419
908.787842,1416
908.90387,1412
909.019775,1433
909.135864,1411
909.251892,1446
909.367859,1376
909.483826,1370
909.599854,1398
909.715881,1432
909.831848,1425
909.947815,1434
910.063782,1424
910.179749,1425
910.295776,1411
910.411743,1440
910.527649,1412
910.643616,1429
910.759583,1406
910.875488,1436
910.991455,1389
911.107361,1433
911.223267,1423
911.339294,1439
911.4552,1449
911.571106,1400
911.687073,1426
911.802979,1410
911.918823,1428
912.034729,1429
912.150635,1450
912.266602,1404
912.382446,1430
912.498352,1470
912.614197,1425
912.730103,1396
912.846008,1377
792.44574,2188
792.56488,2119
792.68396,2164
792.80304,2084
792.92218,2031
793.041199,2028
793.160339,2054
793.279419,2013
793.398499,1989
793.517578,1997
793.636658,1943
793.755737,1938
793.874817,1969
793.993896,1921
794.112976,1934
794.232056,1888
794.351074,1926
794.470215,1909
794.589233,1872
794.708313,1909
794.827393,1887
794.946411,1843
795.065552,1830
795.18457,1839
795.303589,1823
795.422668,1862
795.541687,1843
795.660767,1746
795.779846,1829
795.898865,1796
796.017883,1811
796.136963,1779
796.255981,1807
796.375061,1807
796.49408,1791
796.613037,1786
796.732117,1734
796.851135,1748
796.970154,1759
797.089233,1702
797.208191,1766
797.327271,1751
797.446228,1748
797.565186,1717
797.684265,1768
797.803223,1759
797.922241,1716
798.04126,1752
798.160278,1740
798.279297,1706
798.398315,1745
798.517273,1740
798.636292,1729
798.75531,1747
798.874268,1712
798.993286,1731
799.112244,1717
799.231323,1717
799.350281,1685
799.469238,1732
799.588257,1759
799.707153,1738
799.826111,1752
799.945129,1729
800.064087,1739
800.183044,1724
800.302063,1742
800.421021,1698
800.539978,1657
800.658936,1744
800.777893,1697
800.896912,1700
801.015747,1725
801.134705,1706
801.253723,1710
801.37262,1768
801.491638,1687
801.610535,1693
801.729492,1729
801.84845,1709
801.967407,1699
802.086243,1709
802.205261,1732
802.324158,1745
802.443115,1723
802.562073,1702
802.680969,1746
802.799927,1719
802.918762,1691
803.037659,1747
803.156677,1712
803.275574,1734
803.39447,1767
803.513428,1711
803.632263,1753
803.751221,1738
803.870117,1783
803.989014,1701
804.107971,1688
804.226746,1744
804.345642,1764
804.4646,1761
804.583496,1741
804.702393,1750
804.821228,1761
804.940125,1747
805.059021,1739
805.177917,1758
805.296814,1756
805.415649,1784
805.534546,1721
805.653442,1770
805.772278,1730
805.891113,1796
806.01001,1756
806.128906,1786
806.247742,1738
806.366577,1779
806.485413,1806
806.604309,1786
806.723145,1776
806.84198,1771
806.960876,1780
807.079712,1758
807.198486,1767
807.317383,1730
807.436218,1738
807.554993,1748
807.673889,1756
807.792725,1773
807.91156,1790
808.030396,1735
808.14917,1762
808.268005,1744
808.386841,1815
808.505676,1795
808.624451,1764
808.743286,1787
808.862122,1756
808.980896,1775
809.099731,1812
809.218506,1791
809.337341,1812
809.456116,1758
809.57489,1770
809.693726,1822
809.8125,1803
809.931274,1829
810.050049,1768
810.168884,1779
810.287659,1815
810.406372,1739
810.525269,1789
810.643982,1847
810.762756,1799
810.881531,1831
811.000305,1791
811.11908,1801
811.237854,1776
811.356567,1795
811.475403,1814
811.594116,1788
811.71283,1824
811.831604,1833
811.950378,1804
812.069153,1830
812.187927,1842
812.30658,1789
812.425415,1797
812.544128,1789
812.662781,1819
812.781616,1793
812.900269,1828
813.019043,1815
813.137756,1767
813.256531,1768
813.375244,1818
813.493896,1793
813.612671,1817
813.731384,1797
813.850037,1790
813.96875,1761
814.087524,1796
814.206238,1782
814.324951,1815
814.443604,1769
814.562256,1773
814.68103,1783
814.799683,1764
814.918335,1776
815.037109,1738
815.155762,1805
815.274475,1779
815.393188,1728
815.511841,1726
815.630554,1704
815.749146,1757
815.867859,1747
815.986572,1742
816.105164,1735
816.223877,1715
816.342529,1755
816.461182,1711
816.579895,1758
816.698486,1753
816.817139,1758
816.935791,1745
817.054504,1776
817.173096,1750
817.291748,1717
817.4104,1713
817.529053,1706
817.647644,1704
817.766235,1690
817.884949,1698
818.00354,1641
818.122192,1635
818.240845,1613
818.359436,1560
818.478088,1574
818.59668,1586
818.715271,1517
818.833923,1536
818.952515,1513
819.071106,1506
819.189758,1510
819.30835,1502
819.426941,1508
819.545532,1453
819.664124,1469
819.782715,1467
819.901306,1439
820.019897,1464
820.138489,1451
820.25708,1450
820.375671,1433
820.494202,1420
820.612732,1459
820.731384,1405
820.849915,1464
820.968506,1449
821.087097,1435
821.205627,1485
821.324158,1406
821.442749,1371
821.561279,1475
821.679871,1369
821.798401,1402
821.916931,1407
822.035461,1414
822.154053,1440
822.272583,1355
822.391174,1388
822.509583,1418
822.628174,1364
822.746704,1403
822.865234,1378
822.983765,1359
823.102295,1382
823.220825,1395
823.339294,1408
823.457825,1371
823.576355,1407
823.694824,1380
823.813354,1408
823.931885,1429
824.050354,1419
824.168884,1436
824.287354,1428
824.405823,1404
824.524353,1408
824.642822,1449
824.761353,1397
824.879822,1411
824.998291,1393
825.116699,1453
825.235291,1361
825.353699,1411
825.472168,1373
825.590637,1403
825.709106,1373
825.827576,1387
825.946045,1358
826.064453,1350
826.182983,1371
826.301392,1366
826.4198,1385
826.53833,1382
826.656738,1354
826.775208,1377
826.893677,1358
827.012024,1336
827.130493,1370
827.248962,1372
827.36731,1351
827.485779,1359
827.604248,1342
827.722595,1364
827.841064,1332
827.959412,1363
828.077942,1381
828.196289,1342
828.314636,1348
828.433105,1370
828.551514,1338
828.669861,1356
828.78833,1334
828.906677,1336
829.025085,1325
829.143433,1300
829.261841,1311
829.38031,1312
829.498657,1341
829.617004,1318
829.735413,1350
829.85376,1345
829.972107,1352
830.090515,1324
830.208862,1384
830.327209,1297
830.445557,1349
830.563904,1347
830.682312,1328
830.800659,1335
830.919006,1296
831.037354,1339
831.155701,1328
831.274048,1319
831.392395,1321
831.51062,1350
831.629028,1285
831.747314,1321
831.865662,1343
831.984009,1326
832.102356,1339
832.220642,1340
832.338928,1321
832.457275,1356
832.575623,1339
832.693909,1321
832.812134,1346
832.930481,1306
833.048828,1344
833.167114,1305
833.2854,1330
833.403687,1365
833.521973,1353
833.640259,1303
833.758545,1333
833.876831,1309
833.995056,1343
834.113281,1315
834.231628,1327
834.349915,1288
834.468201,1319
834.586426,1315
834.704651,1321
834.822998,1305
834.941162,1349
835.059448,1316
835.177673,1355
835.295959,1325
835.414246,1323
835.53241,1330
835.650635,1299
835.768921,1341
835.887146,1345
836.005371,1343
836.123596,1346
836.241821,1351
836.360046,1332
836.478271,1356
836.596497,1363
836.714722,1347
836.832886,1334
836.95105,1385
837.069336,1356
837.1875,1386
837.305725,1361
837.423889,1350
837.542053,1354
837.660339,1333
837.778503,1361
837.896667,1346
838.014832,1378
838.132996,1348
838.25116,1381
838.369385,1377
838.487488,1366
838.605713,1380
838.723877,1371
838.84198,1365
838.960205,1383
839.078308,1383
839.196472,1368
839.314636,1416
839.4328,1418
839.550964,1342
839.669067,1360
839.787231,1354
839.905396,1341
840.023499,1348
840.141602,1379
840.259766,1364
840.377869,1360
840.495972,1390
840.614136,1358
840.732239,1323
840.850342,1389
840.968445,1371
841.086548,1349
841.204651,1375
841.322754,1364
841.440918,1334
841.55896,1341
841.677002,1359
841.795166,1303
841.913208,1330
842.031311,1338
842.149353,1362
842.267456,1382
842.385498,1342
842.503601,1331
842.621643,1327
842.739746,1341
842.857788,1320
842.97583,1340
843.093933,1326
843.211975,1318
843.330017,1322
843.44812,1344
843.566101,1289
843.684204,1314
843.802246,1313
843.920227,1382
844.038269,1346
844.156311,1353
844.274292,1299
844.392395,1333
844.510376,1368
844.628357,1317
844.74646,1318
844.864441,1341
844.982422,1288
845.100403,1320
845.218384,1316
845.336426,1339
845.454468,1272
845.572449,1292
845.69043,1292
845.808411,1327
845.926453,1290
846.044373,1340
846.162354,1289
846.280396,1324
846.398315,1341
846.516296,1290
846.634216,1319
846.752197,1278
846.870178,1326
846.988098,1340
847.106079,1327
847.22406,1335
847.34198,1286
847.4599,1332
847.577881,1290
847.695801,1345
847.813782,1299
847.931641,1318
848.049561,1308
848.167603,1323
848.285461,1308
848.403381,1311
848.521362,1294
848.639221,1306
848.75708,1281
848.875,1307
848.99292,1293
849.110901,1331
849.22876,1300
849.34668,1303
849.464539,1311
849.582458,1310
849.700317,1279
849.818176,1293
849.936096,1339
850.053955,1321
850.171875,1291
850.289673,1303
850.407593,1288
850.525452,1301
850.643311,1355
850.761169,1286
850.878967,1319
850.996887,1299
851.114746,1300
851.232544,1307
851.350403,1335
851.468262,1332
851.58606,1329
851.703979,1297
851.821777,1318
851.939636,1327
852.057434,1271
852.175232,1334
852.293091,1346
852.410889,1292
852.528687,1331
852.646545,1354
852.764343,1324
852.88208,1316
852.999939,1325
853.117676,1350
853.235535,1335
853.353271,1338
853.471069,1341
853.588928,1344
853.706604,1314
853.824402,1340
853.9422,1338
854.059998,1332
854.177734,1359
854.295532,1320
854.413269,1321
854.531006,1323
854.648804,1339
854.766541,1331
854.884277,1317
855.002014,1329
855.119751,1323
855.237549,1344
855.355225,1347
855.473022,1370
855.590698,1345
855.708435,1315
855.826172,1328
855.943848,1351
856.061646,1305
856.179321,1322
856.296997,1338
856.414795,1343
856.53241,1373
856.650085,1334
856.767822,1356
856.885559,1330
857.003174,1362
857.120911,1332
857.238586,1330
857.356201,1393
857.473938,1365
857.591614,1385
857.709351,1351
857.826965,1358
857.944641,1340
858.062317,1312
858.179993,1370
858.297668,1342
858.415283,1390
858.532959,1340
858.650574,1336
858.768188,1396
858.885803,1370
859.003479,1376
859.121094,1327
859.23877,1359
859.356384,1297
859.473999,1335
859.591675,1348
859.709229,1397
859.826843,1299
859.944458,1348
860.062012,1311
860.179626,1399
860.297302,1336
860.414856,1297
860.532471,1332
860.650024,1337
860.767639,1339
860.885193,1344
861.002808,1326
861.120361,1319
861.237976,1321
861.35553,1342
861.473022,1366
861.590698,1350
861.708191,1327
861.825745,1371
861.943298,1334
862.060852,1305
862.178406,1287
862.295959,1319
862.413513,1265
862.531006,1337
862.64856,1309
862.766113,1316
862.883667,1353
863.00116,1309
863.118713,1352
863.236206,1305
863.353699,1321
863.471252,1298
863.588745,1334
863.706177,1327
863.82373,1348
863.941162,1354
864.058716,1320
864.176208,1349
864.29364,1352
864.411194,1347
864.528687,1329
864.646118,1289
864.763611,1315
864.881042,1277
864.998535,1305
865.116028,1305
865.233459,1343
865.350891,1339
865.468384,1331
865.585754,1355
865.703308,1381
865.820679,1340
865.938171,1346
866.055542,1405
866.173035,1322
866.290466,1352
866.407837,1344
866.52533,1321
866.6427,1346
866.760071,1343
866.877563,1361
866.994934,1350
867.112305,1337
867.229736,1332
867.347107,1348
867.464539,1362
867.58197,1336
867.699341,1350
867.81665,1353
867.934082,1351
868.051453,1330
868.168823,1365
868.286194,1316
868.403564,1327
868.520935,1354
868.638306,1381
868.755676,1327
868.872986,1369
868.990295,1286
869.107727,1357
869.225037,1339
869.342346,1362
869.459717,1353
869.577026,1332
869.694336,1405
869.811707,1335
869.929016,1375
870.046326,1322
870.163635,1352
870.280945,1373
870.398254,1367
870.515564,1377
870.632812,1356
870.750183,1373
870.867432,1333
870.984741,1352
871.102051,1328
871.219299,1374
871.336609,1325
871.453918,1415
871.571106,1387
871.688416,1407
871.805664,1343
871.922852,1345
872.040222,1357
872.157471,1339
872.274719,1392
872.391968,1364
872.509155,1378
872.626465,1333
872.743652,1362
872.860962,1374
872.978149,1372
873.095337,1374
873.212646,1357
873.329834,1343
873.44696,1379
873.564209,1331
873.681396,1340
873.798645,1352
873.915894,1401
874.03302,1386
874.150208,1378
874.267456,1378
874.384583,1371
874.501831,1351
874.618958,1374
874.736145,1381
874.853333,1366
874.970459,1368
875.087646,1379
875.204834,1414
875.32196,1343
875.439148,1408
875.556274,1381
875.673401,1386
875.790527,1303
875.907715,1356
876.024841,1365
876.141968,1371
876.259094,1381
876.376282,1373
876.493347,1396
876.610474,1327
876.7276,1369
876.844727,1415
876.961853,1333
877.078918,1341
877.195984,1338
877.313171,1379
877.430237,1357
877.547302,1376
877.664368,1341
877.781433,1375
877.898499,1370
878.015625,1344
878.13269,1357
878.249695,1359
878.366821,1343
878.483887,1363
878.600952,1345
878.717957,1375
878.834961,1359
878.952087,1370
879.069092,1359
879.186157,1343
879.303162,1367
879.420227,1370
879.537231,1350
879.654236,1353
879.77124,1369
879.888306,1324
880.005249,1352
880.122314,1335
880.239319,1346
880.356323,1338
880.473328,1356
880.590271,1356
880.707275,1346
880.824341,1354
880.941284,1314
881.058228,1370
881.175232,1373
881.292236,1388
881.40918,1335
881.526123,1383
881.643066,1329
881.760071,1362
881.877014,1396
881.993958,1352
882.11084,1331
882.227783,1371
882.344727,1372
882.46167,1349
882.578613,1377
882.695618,1362
882.812439,1339
882.929382,1405
883.046326,1382
883.163208,1396
883.280151,1322
883.397034,1353
883.513916,1347
883.630798,1386
883.747742,1359
883.864563,1385
883.981506,1346
884.098389,1372
884.21521,1378
884.332153,1418
884.448975,1408
884.565796,1381
884.682678,1381
884.7995,1405
884.916443,1414
885.033264,1426
885.150085,1442
885.266968,1440
885.383789,1444
885.500671,1435
885.617493,1425
885.734314,1402
885.851196,1437
885.967896,1433
886.084717,1482
886.201599,1396
886.318359,1469
886.435181,1450
886.552002,1404
886.668762,1420
886.785645,1408
886.902344,1414
887.019165,1438
887.135925,1406
887.252747,1444
887.369446,1415
887.486267,1388
887.603027,1384
887.719788,1417
887.836548,1424
887.953247,1375
888.070068,1383
888.186829,1419
888.303528,1393
888.420288,1391
888.536987,1406
888.653687,1364
888.770447,1348
888.887146,1359
889.003967,1372
889.120667,1417
889.237305,1425
889.354065,1362
889.470703,1386
889.587463,1357
889.704163,1368
889.820862,1375
889.937561,1400
890.054199,1385
890.170837,1403
890.287598,1391
890.404236,1397
890.520874,1407
890.637634,1378
890.754211,1416
890.87085,1438
890.987549,1403
891.104187,1388
891.220886,1399
891.337463,1360
891.454102,1388
891.57074,1438
891.687378,1359
891.804077,1365
891.920654,1409
892.037231,1404
892.15387,1395
892.270447,1388
892.387085,1420
892.503723,1381
892.6203,1394
892.736877,1434
892.853516,1346
892.970032,1408
893.08667,1422
893.203186,1391
893.319763,1362
893.43634,1402
893.552917,1354
893.669556,1462
893.786011,1383
893.902588,1423
894.019165,1395
894.135681,1364
894.252197,1415
894.368835,1388
894.485291,1443
894.601868,1408
894.718384,1401
894.8349,1395
894.951355,1391
895.067932,1430
895.184448,1398
895.300964,1425
895.417419,1400
895.533936,1430
895.650452,1390
895.766907,1410
895.883423,1361
895.999878,1420
896.116333,1359
896.232849,1401
896.349304,1441
896.465759,1380
896.582214,1394
896.698669,1367
896.815125,1440
896.931641,1357
897.048035,1416
897.164551,1373
897.280884,1382
897.397339,1408
897.513794,1419
897.630249,1431
897.746582,1443
897.863098,1393
897.979431,1369
898.095886,1418
898.212341,1406
898.328674,1416
898.445129,1418
898.561462,1438
898.677795,1431
898.794312,1414
898.910645,1403
899.026978,1434
899.143433,1422
899.259766,1418
899.37616,1372
899.492493,1413
899.608765,1418
899.725159,1426
899.841553,1410
899.957947,1440
900.07428,1433
900.190552,1447
900.306946,1394
900.423157,1441
900.53949,1389
900.655884,1412
900.772156,1450
900.888489,1435
901.004822,1435
901.121033,1457
901.237366,1450
901.353699,1419
901.46991,1396
901.586304,1404
901.702515,1433
901.818787,1421
901.93512,1436
902.051331,1461
902.167603,1449
902.283875,1470
902.400085,1446
902.516418,1418
902.632629,1479
902.74884,1488
902.865112,1438
902.981384,1436
903.097595,1462
903.213867,1430
903.330017,1475
903.446289,1494
903.5625,1511
903.67865,1482
903.794922,1462
903.911072,1373
904.027344,1474
904.143494,1441
904.259705,1439
904.375916,1401
904.492065,1408
904.608215,1471
904.724426,1425
904.840576,1434
904.956726,1458
905.072876,1418
905.189087,1438
905.305176,1430
905.421387,1415
905.537537,1440
905.653687,1416
905.769775,1405
905.885925,1493
906.002014,1420
906.118164,1429
906.234314,1443
906.350403,1429
906.466492,1414
906.582642,1457
906.69873,1495
906.814758,1465
906.930908,1390
907.046936,1454
907.163086,1455
907.279175,1453
907.395264,1456
907.511353,1457
907.62738,1449
907.743408,1447
907.859497,1422
907.975525,1452
908.091553,1422
908.207703,1473
908.32373,1447
908.439758,1434
908.555786,1464
908.671814,1445
908.787842,1450
908.90387,1427
909.019775,1458
909.135864,1435
909.251892,1454
909.367859,1457
909.483826,1431
909.599854,1436
909.715881,1424
909.831848,1459
909.947815,1427
910.063782,1453
910.179749,1409
910.295776,1460
910.411743,1491
910.527649,1428
910.643616,1458
910.759583,1454
910.875488,1475
910.991455,1471
911.107361,1437
911.223267,1424
911.339294,1487
911.4552,1430
911.571106,1441
911.687073,1448
911.802979,1457
911.918823,1452
912.034729,1451
912.150635,1415
912.266602,1475
912.382446,1430
912.498352,1487
912.614197,1444
912.730103,1400
912.846008,1426
792.44574,2193
792.56488,2200
792.68396,2186
792.80304,2125
792.92218,2050
793.041199,2045
793.160339,2056
793.279419,2045
793.398499,2019
793.517578,1995
793.636658,2014
793.755737,1953
793.874817,1927
793.993896,1965
794.112976,1930
794.232056,1931
794.351074,1919
794.470215,1922
794.589233,1890
794.708313,1862
794.827393,1865
794.946411,1874
795.065552,1892
795.18457,1856
795.303589,1877
795.422668,1832
795.541687,1841
795.660767,1873
795.779846,1823
795.898865,1800
796.017883,1776
796.136963,1777
796.255981,1774
796.375061,1811
796.49408,1770
796.613037,1731
796.732117,1763
796.851135,1770
796.970154,1814
797.089233,1782
797.208191,1829
797.327271,1788
797.446228,1770
797.565186,1777
797.684265,1766
797.803223,1743
797.922241,1757
798.04126,1777
798.160278,1764
798.279297,1727
798.398315,1743
798.517273,1755
798.636292,1749
798.75531,1760
798.874268,1739
798.993286,1711
799.112244,1663
799.231323,1708
799.350281,1725
799.469238,1775
799.588257,1722
799.707153,1795
799.826111,1701
799.945129,1769
800.064087,1733
800.183044,1753
800.302063,1747
800.421021,1758
800.539978,1745
800.658936,1752
800.777893,1758
800.896912,1742
801.015747,1720
801.134705,1712
801.253723,1705
801.37262,1723
801.491638,1735
801.610535,1743
801.729492,1735
801.84845,1701
801.967407,1731
802.086243,1672
802.205261,1712
802.324158,1780
802.443115,1750
802.562073,1778
802.680969,1739
802.799927,1722
802.918762,1716
803.037659,1709
803.156677,1732
803.275574,1710
803.39447,1726
803.513428,1738
803.632263,1795
803.751221,1692
803.870117,1787
803.989014,1734
804.107971,1772
804.226746,1773
804.345642,1701
804.4646,1824
804.583496,1698
804.702393,1720
804.821228,1757
804.940125,1770
805.059021,1749
805.177917,1795
805.296814,1748
805.415649,1781
805.534546,1742
805.653442,1774
805.772278,1738
805.891113,1722
806.01001,1790
806.128906,1797
806.247742,1752
806.366577,1755
806.485413,1753
806.604309,1782
806.723145,1741
806.84198,1847
806.960876,1725
807.079712,1760
807.198486,1823
807.317383,1752
807.436218,1773
807.554993,1797
807.673889,1797
807.792725,1773
807.91156,1761
808.030396,1806
808.14917,1812
808.268005,1784
808.386841,1796
808.505676,1773
808.624451,1808
808.743286,1719
808.862122,1752
808.980896,1796
809.099731,1765
809.218506,1751
809.337341,1747
809.456116,1780
809.57489,1762
809.693726,1832
809.8125,1818
809.931274,1830
810.050049,1813
810.168884,1790
810.287659,1812
810.406372,1817
810.525269,1825
810.643982,1822
810.762756,1813
810.881531,1764
811.000305,1787
811.11908,1780
811.237854,1814
811.356567,1788
811.475403,1809
811.594116,1795
811.71283,1769
811.831604,1798
811.950378,1781
812.069153,1759
812.187927,1774
812.30658,1787
812.425415,1754
812.544128,1831
812.662781,1833
812.781616,1819
812.900269,1831
813.019043,1781
813.137756,1792
813.256531,1852
813.375244,1806
813.493896,1814
813.612671,1823
813.731384,1834
813.850037,1803
813.96875,1774
814.087524,1778
814.206238,1796
814.324951,1797
814.443604,1786
814.562256,1803
814.68103,1785
814.799683,1734
814.918335,1780
815.037109,1750
815.155762,1770
815.274475,1787
815.393188,1780
815.511841,1715
815.630554,1707
815.749146,1774
815.867859,1752
815.986572,1723
816.105164,1776
816.223877,1736
816.342529,1796
816.461182,1744
816.579895,1783
816.698486,1760
816.817139,1741
816.935791,1792
817.054504,1773
817.173096,1734
817.291748,1703
817.4104,1742
817.529053,1728
817.647644,1673
817.766235,1682
817.884949,1680
818.00354,1665
818.122192,1650
818.240845,1614
818.359436,1572
818.478088,1584
818.59668,1587
818.715271,1543
818.833923,1537
818.952515,1523
819.071106,1457
819.189758,1526
819.30835,1466
819.426941,1505
819.545532,1503
819.664124,1472
819.782715,1512
819.901306,1486
820.019897,1413
820.138489,1490
820.25708,1426
820.375671,1498
820.494202,1448
820.612732,1425
820.731384,1496
820.849915,1432
820.968506,1392
821.087097,1487
821.205627,1427
821.324158,1471
821.442749,1442
821.561279,1479
821.679871,1438
821.798401,1428
821.916931,1403
822.035461,1452
822.154053,1420
822.272583,1406
822.391174,1374
822.509583,1438
822.628174,1423
822.746704,1405
822.865234,1415
822.983765,1419
823.102295,1401
823.220825,1383
823.339294,1415
823.457825,1404
823.576355,1387
823.694824,1460
823.813354,1420
823.931885,1393
824.050354,1427
824.168884,1425
824.287354,1430
824.405823,1441
824.524353,1430
824.642822,1457
824.761353,1413
824.879822,1463
824.998291,1419
825.116699,1415
825.235291,1425
825.353699,1410
825.472168,1375
825.590637,1391
825.709106,1394
825.827576,1422
825.946045,1369
826.064453,1407
826.182983,1388
826.301392,1366
826.4198,1369
826.53833,1356
826.656738,1357
826.775208,1358
826.893677,1375
827.012024,1367
827.130493,1362
827.248962,1337
827.36731,1375
827.485779,1359
827.604248,1386
827.722595,1357
827.841064,1329
827.959412,1338
828.077942,1353
828.196289,1368
828.314636,1319
828.433105,1358
828.551514,1325
828.669861,1358
828.78833,1318
828.906677,1347
829.025085,1336
829.143433,1346
829.261841,1366
829.38031,1350
829.498657,1342
829.617004,1385
829.735413,1362
829.85376,1359
829.972107,1342
830.090515,1351
830.208862,1335
830.327209,1338
830.445557,1351
830.563904,1394
830.682312,1361
830.800659,1343
830.919006,1318
831.037354,1346
831.155701,1392
831.274048,1374
831.392395,1345
831.51062,1334
831.629028,1299
831.747314,1338
831.865662,1329
831.984009,1341
832.102356,1365
832.220642,1358
832.338928,1344
832.457275,1351
832.575623,1345
832.693909,1364
832.812134,1335
832.930481,1351
833.048828,1341
833.167114,1342
833.2854,1334
833.403687,1367
833.521973,1352
833.640259,1317
833.758545,1356
833.876831,1359
833.995056,1320
834.113281,1334
834.231628,1364
834.349915,1327
834.468201,1315
834.586426,1360
834.704651,1375
834.822998,1377
834.941162,1326
835.059448,1354
835.177673,1371
835.295959,1309
835.414246,1356
835.53241,1336
835.650635,1322
835.768921,1310
835.887146,1324
836.005371,1343
836.123596,1367
836.241821,1353
836.360046,1362
836.478271,1372
836.596497,1354
836.714722,1359
836.832886,1365
836.95105,1353
837.069336,1408
837.1875,1397
837.305725,1392
837.423889,1359
837.542053,1403
837.660339,1340
837.778503,1338
837.896667,1363
838.014832,1338
838.132996,1376
838.25116,1348
838.369385,1407
838.487488,1389
838.605713,1375
838.723877,1401
838.84198,1358
838.960205,1373
839.078308,1305
839.196472,1347
839.314636,1391
839.4328,1339
839.550964,1326
839.669067,1388
839.787231,1347
839.905396,1346
840.023499,1358
840.141602,1361
840.259766,1333
840.377869,1351
840.495972,1331
840.614136,1333
840.732239,1376
840.850342,1356
840.968445,1373
841.086548,1351
841.204651,1358
841.322754,1355
841.440918,1385
841.55896,1325
841.677002,1350
841.795166,1323
841.913208,1365
842.031311,1370
842.149353,1346
842.267456,1335
842.385498,1365
842.503601,1346
842.621643,1335
842.739746,1383
842.857788,1331
842.97583,1352
843.093933,1332
843.211975,1350
843.330017,1373
843.44812,1306
843.566101,1307
843.684204,1322
843.802246,1315
843.920227,1298
844.038269,1354
844.156311,1350
844.274292,1340
844.392395,1345
844.510376,1334
844.628357,1308
844.74646,1344
844.864441,1285
844.982422,1378
845.100403,1353
845.218384,1324
845.336426,1324
845.454468,1338
845.572449,1346
845.69043,1322
845.808411,1323
845.926453,1300
846.044373,1315
846.162354,1302
846.280396,1320
846.398315,1322
846.516296,1330
846.634216,1332
846.752197,1325
846.870178,1323
846.988098,1307
847.106079,1310
847.22406,1273
847.34198,1347
847.4599,1306
847.577881,1339
847.695801,1276
847.813782,1342
847.931641,1319
848.049561,1330
848.167603,1339
848.285461,1288
848.403381,1346
848.521362,1315
848.639221,1319
848.75708,1316
848.875,1347
848.99292,1279
849.110901,1323
849.22876,1293
849.34668,1318
849.464539,1306
849.582458,1315
849.700317,1278
849.818176,1331
849.936096,1334
850.053955,1329
850.171875,1311
850.289673,1314
850.407593,1329
850.525452,1305
850.643311,1348
850.761169,1309
850.878967,1298
850.996887,1348
851.114746,1341
851.232544,1354
851.350403,1335
851.468262,1315
851.58606,1355
851.703979,1373
851.821777,1375
851.939636,1271
852.057434,1332
852.175232,1309
852.293091,1336
852.410889,1328
852.528687,1335
852.646545,1345
852.764343,1345
852.88208,1339
852.999939,1344
853.117676,1315
853.235535,1346
853.353271,1357
853.471069,1329
853.588928,1342
853.706604,1325
853.824402,1349
853.9422,1363
854.059998,1355
854.177734,1360
854.295532,1376
854.413269,1341
854.531006,1335
854.648804,1345
854.766541,1357
854.884277,1336
855.002014,1350
855.119751,1337
855.237549,1346
855.355225,1350
855.473022,1350
855.590698,1329
855.708435,1362
855.826172,1330
855.943848,1366
856.061646,1343
856.179321,1311
856.296997,1361
856.414795,1345
856.53241,1339
856.650085,1352
856.767822,1320
856.885559,1384
857.003174,1321
857.120911,1388
857.238586,1332
857.356201,1415
857.473938,1330
857.591614,1379
857.709351,1368
857.826965,1342
857.944641,1325
858.062317,1370
858.179993,1352
858.297668,1387
858.415283,1338
858.532959,1389
858.650574,1344
858.768188,1378
858.885803,1368
859.003479,1382
859.121094,1346
859.23877,1355
859.356384,1345
859.473999,1371
859.591675,1315
859.709229,1341
859.826843,1327
859.944458,1316
860.062012,1294
860.179626,1340
860.297302,1332
860.414856,1286
860.532471,1331
860.650024,1333
860.767639,1357
860.885193,1365
861.002808,1306
861.120361,1335
861.237976,1338
861.35553,1329
861.473022,1348
861.590698,1328
861.708191,1354
861.825745,1362
861.943298,1355
862.060852,1331
862.178406,1338
862.295959,1347
862.413513,1360
862.531006,1308
862.64856,1350
862.766113,1356
862.883667,1345
863.00116,1344
863.118713,1378
863.236206,1358
863.353699,1335
863.471252,1338
863.588745,1340
863.706177,1371
863.82373,1380
863.941162,1346
864.058716,1361
864.176208,1371
864.29364,1360
864.411194,1354
864.528687,1346
864.646118,1385
864.763611,1347
864.881042,1354
864.998535,1356
865.116028,1374
865.233459,1359
865.350891,1347
865.468384,1352
865.585754,1325
865.703308,1272
865.820679,1367
865.938171,1344
866.055542,1348
866.173035,1332
866.290466,1372
866.407837,1352
866.52533,1386
866.6427,1374
866.760071,1393
866.877563,1301
866.994934,1408
867.112305,1352
867.229736,1343
867.347107,1342
867.464539,1345
867.58197,1368
867.699341,1363
867.81665,1354
867.934082,1363
868.051453,1335
868.168823,1358
868.286194,1368
868.403564,1348
868.520935,1356
868.638306,1352
868.755676,1346
868.872986,1331
868.990295,1388
869.107727,1359
869.225037,1351
869.342346,1387
869.459717,1358
869.577026,1354
869.694336,1377
869.811707,1377
869.929016,1370
870.046326,1363
870.163635,1347
870.280945,1363
870.398254,1353
870.515564,1365
870.632812,1400
870.750183,1371
870.867432,1400
870.984741,1374
871.102051,1391
871.219299,1395
871.336609,1364
871.453918,1380
871.571106,1376
871.688416,1399
871.805664,1353
871.922852,1375
872.040222,1386
872.157471,1408
872.274719,1405
872.391968,1401
872.509155,1393
872.626465,1371
872.743652,1437
872.860962,1363
872.978149,1359
873.095337,1378
873.212646,1386
873.329834,1369
873.44696,1375
873.564209,1371
873.681396,1420
873.798645,1332
873.915894,1371
874.03302,1365
874.150208,1391
874.267456,1368
874.384583,1362
874.501831,1383
874.618958,1401
874.736145,1407
874.853333,1368
874.970459,1365
875.087646,1399
875.204834,1391
875.32196,1425
875.439148,1365
875.556274,1378
875.673401,1396
875.790527,1418
875.907715,1377
876.024841,1373
876.141968,1368
876.259094,1400
876.376282,1362
876.493347,1392
876.610474,1351
876.7276,1384
876.844727,1382
876.961853,1403
877.078918,1368
877.195984,1332
877.313171,1412
877.430237,1363
877.547302,1372
877.664368,1358
877.781433,1370
877.898499,1350
878.015625,1305
878.13269,1392
878.249695,1360
878.366821,1366
878.483887,1367
878.600952,1373
878.717957,1357
878.834961,1367
878.952087,1355
879.069092,1384
879.186157,1379
879.303162,1383
879.420227,1351
879.537231,1382
879.654236,1390
879.77124,1377
879.888306,1341
880.005249,1394
880.122314,1343
880.239319,1378
880.356323,1378
880.473328,1383
880.590271,1384
880.707275,1372
880.824341,1391
880.941284,1352
881.058228,1372
881.175232,1353
881.292236,1394
881.40918,1363
881.526123,1376
881.643066,1343
881.760071,1394
881.877014,1356
881.993958,1374
882.11084,1360
882.227783,1389
882.344727,1340
882.46167,1394
882.578613,1327
882.695618,1369
882.812439,1389
882.929382,1414
883.046326,1356
883.163208,1310
883.280151,1339
883.397034,1337
883.513916,1420
883.630798,1386
883.747742,1350
883.864563,1370
883.981506,1376
884.098389,1400
884.21521,1359
884.332153,1377
884.448975,1398
884.565796,1437
884.682678,1371
884.7995,1404
884.916443,1376
885.033264,1428
885.150085,1455
885.266968,1464
885.383789,1429
885.500671,1497
885.617493,1450
885.734314,1480
885.851196,1417
885.967896,1457
886.084717,1407
886.201599,1420
886.318359,1387
886.435181,1455
886.552002,1467
886.668762,1450
886.785645,1426
886.902344,1430
887.019165,1390
887.135925,1419
887.252747,1404
887.369446,1439
887.486267,1427
887.603027,1403
887.719788,1373
887.836548,1417
887.953247,1398
888.070068,1415
888.186829,1398
888.303528,1387
888.420288,1423
888.536987,1399
888.653687,1412
888.770447,1387
888.887146,1437
889.003967,1387
889.120667,1374
889.237305,1393
889.354065,1401
889.470703,1410
889.587463,1355
889.704163,1429
889.820862,1397
889.937561,1407
890.054199,1410
890.170837,1414
890.287598,1390
890.404236,1402
890.520874,1398
890.637634,1411
890.754211,1425
890.87085,1429
890.987549,1409
891.104187,1419
891.220886,1392
891.337463,1390
891.454102,1407
891.57074,1412
891.687378,1407
891.804077,1445
891.920654,1397
892.037231,1445
892.15387,1379
892.270447,1440
892.387085,1368
892.503723,1416
892.6203,1422
892.736877,1406
892.853516,1379
892.970032,1432
893.08667,1371
893.203186,1429
893.319763,1399
893.43634,1418
893.552917,1391
893.669556,1450
893.786011,1402
893.902588,1454
894.019165,1389
894.135681,1403
894.252197,1434
894.368835,1435
894.485291,1458
894.601868,1435
894.718384,1451
894.8349,1403
894.951355,1413
895.067932,1439
895.184448,1368
895.300964,1425
895.417419,1425
895.533936,1415
895.650452,1427
895.766907,1447
895.883423,1473
895.999878,1395
896.116333,1410
896.232849,1431
896.349304,1387
896.465759,1414
896.582214,1374
896.698669,1436
896.815125,1429
896.931641,1388
897.048035,1456
897.164551,1388
897.280884,1421
897.397339,1413
897.513794,1420
897.630249,1395
897.746582,1419
897.863098,1417
897.979431,1411
898.095886,1424
898.212341,1410
898.328674,1462
898.445129,1462
898.561462,1430
898.677795,1430
898.794312,1461
898.910645,1441
899.026978,1409
899.143433,1410
899.259766,1406
899.37616,1433
899.492493,1399
899.608765,1434
899.725159,1417
899.841553,1461
899.957947,1411
900.07428,1458
900.190552,1453
900.306946,1438
900.423157,1412
900.53949,1431
900.655884,1416
900.772156,1449
900.888489,1425
901.004822,1422
901.121033,1469
901.237366,1422
901.353699,1442
901.46991,1436
901.586304,1456
901.702515,1452
901.818787,1454
901.93512,1416
902.051331,1471
902.167603,1464
902.283875,1448
902.400085,1414
902.516418,1474
902.632629,1487
902.74884,1472
902.865112,1479
902.981384,1493
903.097595,1520
903.213867,1475
903.330017,1445
903.446289,1487
903.5625,1482
903.67865,1478
903.794922,1508
903.911072,1425
904.027344,1468
904.143494,1480
904.259705,1437
904.375916,1472
904.492065,1461
904.608215,1468
904.724426,1413
904.840576,1422
904.956726,1447
905.072876,1405
905.189087,1461
905.305176,1388
905.421387,1464
905.537537,1450
905.653687,1449
905.769775,1471
905.885925,1449
906.002014,1488
906.118164,1438
906.234314,1448
906.350403,1457
906.466492,1457
906.582642,1440
906.69873,1453
906.814758,1457
906.930908,1450
907.046936,1471
907.163086,1450
907.279175,1482
907.395264,1403
907.511353,1470
907.62738,1470
907.743408,1462
907.859497,1460
907.975525,1450
908.091553,1447
908.207703,1460
908.32373,1494
908.439758,1471
908.555786,1447
908.671814,1464
908.787842,1460
908.90387,1427
909.019775,1472
909.135864,1457
909.251892,1453
909.367859,1460
909.483826,1477
909.599854,1445
909.715881,1507
909.831848,1473
909.947815,1443
910.063782,1487
910.179749,1449
910.295776,1425
910.411743,1499
910.527649,1473
910.643616,1466
910.759583,1422
910.875488,1500
910.991455,1447
911.107361,1497
911.223267,1508
911.339294,1485
911.4552,1487
911.571106,1441
911.687073,1477
911.802979,1461
911.918823,1466
912.034729,1474
912.150635,1464
912.266602,1449
912.382446,1451
912.498352,1455
912.614197,1456
912.730103,1446
912.846008,1424
