792.44574,2249
792.56488,2274
792.68396,2253
792.80304,2194
792.92218,2162
793.041199,2103
793.160339,2176
793.279419,2141
793.398499,2129
793.517578,2124
793.636658,2116
793.755737,2121
793.874817,2134
793.993896,2142
794.112976,2058
794.232056,2042
794.351074,2051
794.470215,2050
794.589233,2039
794.708313,2036
794.827393,2010
794.946411,1987
795.065552,2015
795.18457,2031
795.303589,1986
795.422668,1961
795.541687,1989
795.660767,2004
795.779846,1957
795.898865,1967
796.017883,1966
796.136963,1936
796.255981,1964
796.375061,1913
796.49408,1989
796.613037,1888
796.732117,1927
796.851135,1918
796.970154,1919
797.089233,1943
797.208191,1962
797.327271,1914
797.446228,1869
797.565186,1942
797.684265,1879
797.803223,1874
797.922241,1899
798.04126,1891
798.160278,1951
798.279297,1909
798.398315,1922
798.517273,1897
798.636292,1920
798.75531,1889
798.874268,1903
798.993286,1898
799.112244,1895
799.231323,1891
799.350281,1889
799.469238,1934
799.588257,1882
799.707153,1910
799.826111,1921
799.945129,1916
800.064087,1951
800.183044,1899
800.302063,1872
800.421021,1890
800.539978,1910
800.658936,1940
800.777893,1898
800.896912,1911
801.015747,1937
801.134705,1876
801.253723,1945
801.37262,1913
801.491638,1938
801.610535,1911
801.729492,1896
801.84845,1975
801.967407,1915
802.086243,1942
802.205261,1945
802.324158,1936
802.443115,1938
802.562073,1952
802.680969,1879
802.799927,1951
802.918762,1935
803.037659,1974
803.156677,1971
803.275574,2002
803.39447,1938
803.513428,1925
803.632263,1965
803.751221,1935
803.870117,1960
803.989014,1910
804.107971,1975
804.226746,1968
804.345642,1965
804.4646,1985
804.583496,1988
804.702393,2000
804.821228,1932
804.940125,1974
805.059021,2015
805.177917,2031
805.296814,2034
805.415649,1996
805.534546,2033
805.653442,2014
805.772278,2035
805.891113,2031
806.01001,2007
806.128906,2004
806.247742,1985
806.366577,2023
806.485413,2047
806.604309,2044
806.723145,2035
806.84198,2058
806.960876,2022
807.079712,2017
807.198486,2041
807.317383,2061
807.436218,2064
807.554993,2063
807.673889,2020
807.792725,2044
807.91156,2077
808.030396,2100
808.14917,2031
808.268005,2098
808.386841,2042
808.505676,2021
808.624451,2058
808.743286,2061
808.862122,2060
808.980896,2097
809.099731,2061
809.218506,2073
809.337341,2080
809.456116,2084
809.57489,2145
809.693726,2107
809.8125,2116
809.931274,2121
810.050049,2139
810.168884,2165
810.287659,2131
810.406372,2123
810.525269,2070
810.643982,2126
810.762756,2141
810.881531,2134
811.000305,2135
811.11908,2084
811.237854,2118
811.356567,2073
811.475403,2075
811.594116,2131
811.71283,2087
811.831604,2123
811.950378,2157
812.069153,2113
812.187927,2073
812.30658,2104
812.425415,2123
812.544128,2139
812.662781,2167
812.781616,2134
812.900269,2127
813.019043,2075
813.137756,2128
813.256531,2170
813.375244,2148
813.493896,2108
813.612671,2157
813.731384,2155
813.850037,2161
813.96875,2119
814.087524,2132
814.206238,2125
814.324951,2074
814.443604,2134
814.562256,2095
814.68103,2115
814.799683,2145
814.918335,2075
815.037109,2040
815.155762,2115
815.274475,2060
815.393188,2024
815.511841,2078
815.630554,2046
815.749146,2035
815.867859,2057
815.986572,2000
816.105164,2015
816.223877,2001
816.342529,2052
816.461182,2029
816.579895,2055
816.698486,2066
816.817139,2028
816.935791,2084
817.054504,2029
817.173096,2063
817.291748,2057
817.4104,2016
817.529053,1968
817.647644,1953
817.766235,1918
817.884949,1878
818.00354,1831
818.122192,1822
818.240845,1764
818.359436,1752
818.478088,1735
818.59668,1714
818.715271,1682
818.833923,1685
818.952515,1646
819.071106,1629
819.189758,1621
819.30835,1568
819.426941,1575
819.545532,1565
819.664124,1562
819.782715,1570
819.901306,1561
820.019897,1544
820.138489,1529
820.25708,1546
820.375671,1546
820.494202,1525
820.612732,1498
820.731384,1503
820.849915,1497
820.968506,1495
821.087097,1524
821.205627,1499
821.324158,1483
821.442749,1477
821.561279,1434
821.679871,1463
821.798401,1474
821.916931,1485
822.035461,1460
822.154053,1491
822.272583,1480
822.391174,1436
822.509583,1410
822.628174,1413
822.746704,1459
822.865234,1390
822.983765,1415
823.102295,1460
823.220825,1411
823.339294,1457
823.457825,1410
823.576355,1463
823.694824,1456
823.813354,1474
823.931885,1455
824.050354,1473
824.168884,1468
824.287354,1476
824.405823,1462
824.524353,1475
824.642822,1493
824.761353,1480
824.879822,1481
824.998291,1453
825.116699,1453
825.235291,1437
825.353699,1488
825.472168,1403
825.590637,1409
825.709106,1479
825.827576,1426
825.946045,1421
826.064453,1388
826.182983,1398
826.301392,1396
826.4198,1431
826.53833,1363
826.656738,1368
826.775208,1366
826.893677,1408
827.012024,1320
827.130493,1377
827.248962,1360
827.36731,1405
827.485779,1394
827.604248,1390
827.722595,1371
827.841064,1385
827.959412,1370
828.077942,1334
828.196289,1360
828.314636,1364
828.433105,1372
828.551514,1362
828.669861,1325
828.78833,1367
828.906677,1320
829.025085,1360
829.143433,1363
829.261841,1375
829.38031,1339
829.498657,1322
829.617004,1378
829.735413,1365
829.85376,1381
829.972107,1340
830.090515,1287
830.208862,1356
830.327209,1336
830.445557,1359
830.563904,1326
830.682312,1356
830.800659,1337
830.919006,1326
831.037354,1363
831.155701,1346
831.274048,1368
831.392395,1361
831.51062,1350
831.629028,1337
831.747314,1366
831.865662,1292
831.984009,1328
832.102356,1341
832.220642,1350
832.338928,1340
832.457275,1342
832.575623,1355
832.693909,1313
832.812134,1344
832.930481,1329
833.048828,1301
833.167114,1370
833.2854,1350
833.403687,1341
833.521973,1331
833.640259,1331
833.758545,1347
833.876831,1359
833.995056,1340
834.113281,1339
834.231628,1300
834.349915,1347
834.468201,1385
834.586426,1336
834.704651,1349
834.822998,1320
834.941162,1354
835.059448,1371
835.177673,1326
835.295959,1353
835.414246,1351
835.53241,1345
835.650635,1361
835.768921,1341
835.887146,1352
836.005371,1357
836.123596,1423
836.241821,1371
836.360046,1328
836.478271,1363
836.596497,1409
836.714722,1410
836.832886,1433
836.95105,1426
837.069336,1409
837.1875,1393
837.305725,1400
837.423889,1419
837.542053,1431
837.660339,1416
837.778503,1429
837.896667,1427
838.014832,1447
838.132996,1384
838.25116,1404
838.369385,1411
838.487488,1417
838.605713,1448
838.723877,1474
838.84198,1413
838.960205,1438
839.078308,1384
839.196472,1425
839.314636,1360
839.4328,1410
839.550964,1408
839.669067,1377
839.787231,1420
839.905396,1380
840.023499,1434
840.141602,1382
840.259766,1378
840.377869,1392
840.495972,1395
840.614136,1369
840.732239,1360
840.850342,1401
840.968445,1394
841.086548,1363
841.204651,1376
841.322754,1353
841.440918,1419
841.55896,1337
841.677002,1374
841.795166,1302
841.913208,1404
842.031311,1344
842.149353,1376
842.267456,1324
842.385498,1354
842.503601,1332
842.621643,1347
842.739746,1336
842.857788,1351
842.97583,1312
843.093933,1337
843.211975,1317
843.330017,1308
843.44812,1290
843.566101,1338
843.684204,1321
843.802246,1320
843.920227,1309
844.038269,1322
844.156311,1317
844.274292,1358
844.392395,1315
844.510376,1341
844.628357,1286
844.74646,1302
844.864441,1326
844.982422,1331
845.100403,1308
845.218384,1326
845.336426,1322
845.454468,1310
845.572449,1295
845.69043,1351
845.808411,1305
845.926453,1315
846.044373,1295
846.162354,1286
846.280396,1330
846.398315,1308
846.516296,1301
846.634216,1331
846.752197,1343
846.870178,1298
846.988098,1318
847.106079,1320
847.22406,1317
847.34198,1322
847.4599,1286
847.577881,1334
847.695801,1302
847.813782,1292
847.931641,1332
848.049561,1283
848.167603,1329
848.285461,1263
848.403381,1330
848.521362,1332
848.639221,1312
848.75708,1365
848.875,1340
848.99292,1285
849.110901,1328
849.22876,1311
849.34668,1284
849.464539,1319
849.582458,1279
849.700317,1299
849.818176,1330
849.936096,1284
850.053955,1294
850.171875,1331
850.289673,1306
850.407593,1327
850.525452,1318
850.643311,1331
850.761169,1283
850.878967,1330
850.996887,1331
851.114746,1295
851.232544,1293
851.350403,1321
851.468262,1310
851.58606,1275
851.703979,1333
851.821777,1304
851.939636,1330
852.057434,1324
852.175232,1334
852.293091,1316
852.410889,1330
852.528687,1340
852.646545,1327
852.764343,1314
852.88208,1335
852.999939,1318
853.117676,1356
853.235535,1342
853.353271,1363
853.471069,1360
853.588928,1325
853.706604,1295
853.824402,1375
853.9422,1321
854.059998,1304
854.177734,1315
854.295532,1314
854.413269,1374
854.531006,1335
854.648804,1334
854.766541,1326
854.884277,1337
855.002014,1376
855.119751,1360
855.237549,1359
855.355225,1374
855.473022,1370
855.590698,1334
855.708435,1374
855.826172,1330
855.943848,1370
856.061646,1359
856.179321,1358
856.296997,1355
856.414795,1350
856.53241,1364
856.650085,1367
856.767822,1337
856.885559,1375
857.003174,1340
857.120911,1410
857.238586,1376
857.356201,1355
857.473938,1368
857.591614,1327
857.709351,1328
857.826965,1372
857.944641,1378
858.062317,1317
858.179993,1346
858.297668,1340
858.415283,1322
858.532959,1334
858.650574,1355
858.768188,1354
858.885803,1350
859.003479,1342
859.121094,1343
859.23877,1335
859.356384,1353
859.473999,1319
859.591675,1355
859.709229,1375
859.826843,1342
859.944458,1375
860.062012,1347
860.179626,1342
860.297302,1334
860.414856,1339
860.532471,1351
860.650024,1313
860.767639,1378
860.885193,1314
861.002808,1329
861.120361,1337
861.237976,1330
861.35553,1369
861.473022,1314
861.590698,1320
861.708191,1348
861.825745,1281
861.943298,1334
862.060852,1337
862.178406,1340
862.295959,1348
862.413513,1332
862.531006,1332
862.64856,1354
862.766113,1338
862.883667,1367
863.00116,1343
863.118713,1363
863.236206,1350
863.353699,1385
863.471252,1331
863.588745,1396
863.706177,1353
863.82373,1357
863.941162,1321
864.058716,1322
864.176208,1336
864.29364,1338
864.411194,1330
864.528687,1354
864.646118,1375
864.763611,1347
864.881042,1365
864.998535,1331
865.116028,1343
865.233459,1336
865.350891,1345
865.468384,1383
865.585754,1356
865.703308,1369
865.820679,1346
865.938171,1343
866.055542,1332
866.173035,1317
866.290466,1343
866.407837,1331
866.52533,1308
866.6427,1404
866.760071,1368
866.877563,1346
866.994934,1328
867.112305,1350
867.229736,1373
867.347107,1360
867.464539,1356
867.58197,1372
867.699341,1362
867.81665,1348
867.934082,1345
868.051453,1379
868.168823,1368
868.286194,1365
868.403564,1352
868.520935,1371
868.638306,1377
868.755676,1359
868.872986,1349
868.990295,1338
869.107727,1368
869.225037,1327
869.342346,1332
869.459717,1364
869.577026,1410
869.694336,1357
869.811707,1339
869.929016,1338
870.046326,1370
870.163635,1352
870.280945,1367
870.398254,1359
870.515564,1401
870.632812,1335
870.750183,1339
870.867432,1343
870.984741,1357
871.102051,1334
871.219299,1360
871.336609,1398
871.453918,1369
871.571106,1387
871.688416,1362
871.805664,1345
871.922852,1374
872.040222,1352
872.157471,1398
872.274719,1366
872.391968,1374
872.509155,1357
872.626465,1362
872.743652,1359
872.860962,1384
872.978149,1310
873.095337,1385
873.212646,1356
873.329834,1351
873.44696,1380
873.564209,1367
873.681396,1392
873.798645,1391
873.915894,1361
874.03302,1358
874.150208,1403
874.267456,1389
874.384583,1373
874.501831,1350
874.618958,1380
874.736145,1353
874.853333,1401
874.970459,1375
875.087646,1364
875.204834,1352
875.32196,1388
875.439148,1341
875.556274,1394
875.673401,1342
875.790527,1354
875.907715,1364
876.024841,1354
876.141968,1381
876.259094,1373
876.376282,1334
876.493347,1396
876.610474,1336
876.7276,1361
876.844727,1367
876.961853,1368
877.078918,1355
877.195984,1362
877.313171,1401
877.430237,1362
877.547302,1398
877.664368,1347
877.781433,1404
877.898499,1356
878.015625,1404
878.13269,1338
878.249695,1397
878.366821,1354
878.483887,1352
878.600952,1346
878.717957,1374
878.834961,1363
878.952087,1390
879.069092,1339
879.186157,1401
879.303162,1363
879.420227,1375
879.537231,1342
879.654236,1370
879.77124,1424
879.888306,1360
880.005249,1376
880.122314,1382
880.239319,1355
880.356323,1345
880.473328,1336
880.590271,1360
880.707275,1371
880.824341,1388
880.941284,1357
881.058228,1352
881.175232,1402
881.292236,1340
881.40918,1370
881.526123,1362
881.643066,1345
881.760071,1389
881.877014,1407
881.993958,1408
882.11084,1352
882.227783,1404
882.344727,1360
882.46167,1393
882.578613,1360
882.695618,1380
882.812439,1392
882.929382,1358
883.046326,1403
883.163208,1388
883.280151,1383
883.397034,1399
883.513916,1389
883.630798,1385
883.747742,1373
883.864563,1374
883.981506,1386
884.098389,1397
884.21521,1366
884.332153,1372
884.448975,1382
884.565796,1413
884.682678,1356
884.7995,1406
884.916443,1395
885.033264,1428
885.150085,1415
885.266968,1419
885.383789,1427
885.500671,1422
885.617493,1398
885.734314,1477
885.851196,1429
885.967896,1423
886.084717,1437
886.201599,1436
886.318359,1425
886.435181,1394
886.552002,1425
886.668762,1403
886.785645,1439
886.902344,1422
887.019165,1429
887.135925,1384
887.252747,1420
887.369446,1436
887.486267,1435
887.603027,1379
887.719788,1388
887.836548,1400
887.953247,1394
888.070068,1414
888.186829,1358
888.303528,1388
888.420288,1456
888.536987,1386
888.653687,1405
888.770447,1409
888.887146,1367
889.003967,1430
889.120667,1407
889.237305,1392
889.354065,1393
889.470703,1445
889.587463,1368
889.704163,1402
889.820862,1399
889.937561,1420
890.054199,1412
890.170837,1411
890.287598,1457
890.404236,1415
890.520874,1441
890.637634,1377
890.754211,1435
890.87085,1422
890.987549,1441
891.104187,1412
891.220886,1423
891.337463,1392
891.454102,1441
891.57074,1440
891.687378,1407
891.804077,1395
891.920654,1385
892.037231,1405
892.15387,1412
892.270447,1406
892.387085,1403
892.503723,1412
892.6203,1445
892.736877,1426
892.853516,1436
892.970032,1458
893.08667,1413
893.203186,1462
893.319763,1408
893.43634,1419
893.552917,1436
893.669556,1386
893.786011,1415
893.902588,1436
894.019165,1452
894.135681,1421
894.252197,1461
894.368835,1420
894.485291,1453
894.601868,1405
894.718384,1428
894.8349,1412
894.951355,1462
895.067932,1399
895.184448,1410
895.300964,1364
895.417419,1463
895.533936,1430
895.650452,1438
895.766907,1455
895.883423,1457
895.999878,1422
896.116333,1445
896.232849,1379
896.349304,1428
896.465759,1458
896.582214,1370
896.698669,1464
896.815125,1440
896.931641,1441
897.048035,1426
897.164551,1437
897.280884,1457
897.397339,1363
897.513794,1433
897.630249,1442
897.746582,1441
897.863098,1448
897.979431,1463
898.095886,1421
898.212341,1416
898.328674,1407
898.445129,1449
898.561462,1440
898.677795,1438
898.794312,1440
898.910645,1433
899.026978,1448
899.143433,1490
899.259766,1431
899.37616,1445
899.492493,1408
899.608765,1453
899.725159,1441
899.841553,1421
899.957947,1414
900.07428,1451
900.190552,1493
900.306946,1439
900.423157,1418
900.53949,1439
900.655884,1452
900.772156,1431
900.888489,1435
901.004822,1451
901.121033,1456
901.237366,1451
901.353699,1454
901.46991,1433
901.586304,1446
901.702515,1475
901.818787,1443
901.93512,1465
902.051331,1463
902.167603,1480
902.283875,1489
902.400085,1474
902.516418,1466
902.632629,1482
902.74884,1479
902.865112,1513
902.981384,1462
903.097595,1467
903.213867,1455
903.330017,1508
903.446289,1490
903.5625,1491
903.67865,1452
903.794922,1458
903.911072,1428
904.027344,1426
904.143494,1464
904.259705,1480
904.375916,1468
904.492065,1442
904.608215,1441
904.724426,1441
904.840576,1422
904.956726,1473
905.072876,1444
905.189087,1473
905.305176,1456
905.421387,1505
905.537537,1473
905.653687,1446
905.769775,1432
905.885925,1458
906.002014,1421
906.118164,1457
906.234314,1467
906.350403,1493
906.466492,1445
906.582642,1455
906.69873,1456
906.814758,1460
906.930908,1410
907.046936,1441
907.163086,1441
907.279175,1469
907.395264,1492
907.511353,1420
907.62738,1490
907.743408,1444
907.859497,1452
907.975525,1430
908.091553,1452
908.207703,1442
908.32373,1453
908.439758,1484
908.555786,1498
908.671814,1444
908.787842,1447
908.90387,1474
909.019775,1448
909.135864,1486
909.251892,1470
909.367859,1458
909.483826,1474
909.599854,1490
909.715881,1464
909.831848,1515
909.947815,1471
910.063782,1478
910.179749,1486
910.295776,1522
910.411743,1436
910.527649,1514
910.643616,1462
910.759583,1450
910.875488,1477
910.991455,1475
911.107361,1472
911.223267,1506
911.339294,1514
911.4552,1479
911.571106,1463
911.687073,1455
911.802979,1451
911.918823,1489
912.034729,1477
912.150635,1482
912.266602,1474
912.382446,1498
912.498352,1471
912.614197,1501
912.730103,1490
912.846008,1444
792.44574,2311
792.56488,2313
792.68396,2253
792.80304,2256
792.92218,2199
793.041199,2196
793.160339,2174
793.279419,2159
793.398499,2161
793.517578,2178
793.636658,2119
793.755737,2143
793.874817,2116
793.993896,2151
794.112976,2135
794.232056,2062
794.351074,2095
794.470215,2071
794.589233,2064
794.708313,2063
794.827393,2004
794.946411,2086
795.065552,2025
795.18457,1993
795.303589,2016
795.422668,2050
795.541687,2048
795.660767,2026
795.779846,2031
795.898865,2013
796.017883,1999
796.136963,1961
796.255981,1955
796.375061,2000
796.49408,1978
796.613037,1987
796.732117,1988
796.851135,1985
796.970154,1956
797.089233,1982
797.208191,1972
797.327271,1960
797.446228,1913
797.565186,1970
797.684265,1970
797.803223,1980
797.922241,1953
798.04126,1975
798.160278,1912
798.279297,1961
798.398315,1946
798.517273,1946
798.636292,1900
798.75531,1919
798.874268,1983
798.993286,1950
799.112244,1955
799.231323,1917
799.350281,1927
799.469238,1947
799.588257,1989
799.707153,1908
799.826111,1978
799.945129,1988
800.064087,1967
800.183044,1973
800.302063,1938
800.421021,1923
800.539978,1946
800.658936,1925
800.777893,1919
800.896912,1979
801.015747,1942
801.134705,1940
801.253723,1915
801.37262,1964
801.491638,1960
801.610535,1910
801.729492,1964
801.84845,1979
801.967407,1944
802.086243,1986
802.205261,1997
802.324158,1960
802.443115,1990
802.562073,1964
802.680969,1988
802.799927,1968
802.918762,1967
803.037659,2011
803.156677,1973
803.275574,1978
803.39447,1993
803.513428,2002
803.632263,2002
803.751221,1944
803.870117,2007
803.989014,2026
804.107971,2002
804.226746,2039
804.345642,2038
804.4646,1979
804.583496,1993
804.702393,2012
804.821228,2034
804.940125,2104
805.059021,2048
805.177917,2013
805.296814,2066
805.415649,2079
805.534546,2066
805.653442,2079
805.772278,2042
805.891113,2065
806.01001,2103
806.128906,2070
806.247742,2007
806.366577,2079
806.485413,2115
806.604309,2074
806.723145,2118
806.84198,2120
806.960876,2086
807.079712,2081
807.198486,2070
807.317383,2059
807.436218,2056
807.554993,2052
807.673889,2088
807.792725,2063
807.91156,2108
808.030396,2149
808.14917,2030
808.268005,2053
808.386841,2116
808.505676,2114
808.624451,2109
808.743286,2107
808.862122,2155
808.980896,2050
809.099731,2144
809.218506,2071
809.337341,2110
809.456116,2138
809.57489,2137
809.693726,2110
809.8125,2089
809.931274,2164
810.050049,2159
810.168884,2149
810.287659,2149
810.406372,2168
810.525269,2168
810.643982,2166
810.762756,2174
810.881531,2148
811.000305,2205
811.11908,2181
811.237854,2177
811.356567,2137
811.475403,2199
811.594116,2107
811.71283,2151
811.831604,2210
811.950378,2148
812.069153,2161
812.187927,2127
812.30658,2139
812.425415,2190
812.544128,2163
812.662781,2148
812.781616,2200
812.900269,2119
813.019043,2171
813.137756,2211
813.256531,2122
813.375244,2201
813.493896,2170
813.612671,2155
813.731384,2170
813.850037,2171
813.96875,2202
814.087524,2179
814.206238,2145
814.324951,2186
814.443604,2108
814.562256,2135
814.68103,2162
814.799683,2133
814.918335,2181
815.037109,2149
815.155762,2104
815.274475,2111
815.393188,2168
815.511841,2090
815.630554,2106
815.749146,2081
815.867859,2035
815.986572,2049
816.105164,2024
816.223877,2038
816.342529,2052
816.461182,2113
816.579895,2120
816.698486,2075
816.817139,2086
816.935791,2162
817.054504,2039
817.173096,2099
817.291748,2064
817.4104,2053
817.529053,1969
817.647644,1988
817.766235,1945
817.884949,1877
818.00354,1911
818.122192,1847
818.240845,1789
818.359436,1794
818.478088,1800
818.59668,1727
818.715271,1668
818.833923,1704
818.952515,1694
819.071106,1613
819.189758,1621
819.30835,1607
819.426941,1637
819.545532,1593
819.664124,1619
819.782715,1563
819.901306,1570
820.019897,1530
820.138489,1528
820.25708,1561
820.375671,1514
820.494202,1587
820.612732,1477
820.731384,1516
820.849915,1511
820.968506,1495
821.087097,1511
821.205627,1524
821.324158,1492
821.442749,1517
821.561279,1497
821.679871,1464
821.798401,1493
821.916931,1500
822.035461,1469
822.154053,1515
822.272583,1447
822.391174,1477
822.509583,1422
822.628174,1472
822.746704,1453
822.865234,1473
822.983765,1480
823.102295,1503
823.220825,1465
823.339294,1484
823.457825,1478
823.576355,1482
823.694824,1491
823.813354,1486
823.931885,1537
824.050354,1511
824.168884,1515
824.287354,1522
824.405823,1474
824.524353,1500
824.642822,1518
824.761353,1517
824.879822,1510
824.998291,1502
825.116699,1441
825.235291,1495
825.353699,1467
825.472168,1463
825.590637,1495
825.709106,1482
825.827576,1424
825.946045,1433
826.064453,1479
826.182983,1436
826.301392,1421
826.4198,1428
826.53833,1443
826.656738,1436
826.775208,1387
826.893677,1432
827.012024,1410
827.130493,1413
827.248962,1385
827.36731,1411
827.485779,1391
827.604248,1414
827.722595,1444
827.841064,1383
827.959412,1348
828.077942,1359
828.196289,1363
828.314636,1377
828.433105,1387
828.551514,1372
828.669861,1379
828.78833,1437
828.906677,1400
829.025085,1395
829.143433,1373
829.261841,1380
829.38031,1372
829.498657,1360
829.617004,1391
829.735413,1383
829.85376,1379
829.972107,1370
830.090515,1308
830.208862,1378
830.327209,1358
830.445557,1365
830.563904,1397
830.682312,1390
830.800659,1374
830.919006,1412
831.037354,1405
831.155701,1379
831.274048,1342
831.392395,1369
831.51062,1407
831.629028,1306
831.747314,1375
831.865662,1381
831.984009,1374
832.102356,1422
832.220642,1375
832.338928,1395
832.457275,1381
832.575623,1356
832.693909,1372
832.812134,1382
832.930481,1374
833.048828,1358
833.167114,1379
833.2854,1390
833.403687,1379
833.521973,1347
833.640259,1371
833.758545,1359
833.876831,1353
833.995056,1391
834.113281,1370
834.231628,1365
834.349915,1339
834.468201,1333
834.586426,1361
834.704651,1356
834.822998,1407
834.941162,1334
835.059448,1364
835.177673,1384
835.295959,1332
835.414246,1354
835.53241,1364
835.650635,1422
835.768921,1361
835.887146,1370
836.005371,1409
836.123596,1398
836.241821,1423
836.360046,1392
836.478271,1368
836.596497,1431
836.714722,1436
836.832886,1419
836.95105,1415
837.069336,1429
837.1875,1448
837.305725,1450
837.423889,1457
837.542053,1444
837.660339,1459
837.778503,1455
837.896667,1418
838.014832,1436
838.132996,1444
838.25116,1436
838.369385,1453
838.487488,1461
838.605713,1447
838.723877,1427
838.84198,1441
838.960205,1402
839.078308,1414
839.196472,1414
839.314636,1486
839.4328,1433
839.550964,1396
839.669067,1422
839.787231,1405
839.905396,1453
840.023499,1402
840.141602,1426
840.259766,1424
840.377869,1414
840.495972,1417
840.614136,1436
840.732239,1431
840.850342,1411
840.968445,1413
841.086548,1372
841.204651,1387
841.322754,1398
841.440918,1360
841.55896,1383
841.677002,1383
841.795166,1415
841.913208,1339
842.031311,1382
842.149353,1345
842.267456,1368
842.385498,1352
842.503601,1371
842.621643,1347
842.739746,1376
842.857788,1362
842.97583,1306
843.093933,1333
843.211975,1361
843.330017,1369
843.44812,1367
843.566101,1346
843.684204,1344
843.802246,1342
843.920227,1377
844.038269,1364
844.156311,1343
844.274292,1372
844.392395,1341
844.510376,1336
844.628357,1341
844.74646,1364
844.864441,1318
844.982422,1333
845.100403,1363
845.218384,1361
845.336426,1333
845.454468,1375
845.572449,1321
845.69043,1326
845.808411,1300
845.926453,1358
846.044373,1341
846.162354,1338
846.280396,1344
846.398315,1349
846.516296,1346
846.634216,1352
846.752197,1342
846.870178,1299
846.988098,1304
847.106079,1307
847.22406,1314
847.34198,1342
847.4599,1358
847.577881,1336
847.695801,1373
847.813782,1315
847.931641,1346
848.049561,1370
848.167603,1315
848.285461,1340
848.403381,1309
848.521362,1320
848.639221,1364
848.75708,1333
848.875,1371
848.99292,1349
849.110901,1357
849.22876,1331
849.34668,1312
849.464539,1344
849.582458,1370
849.700317,1318
849.818176,1337
849.936096,1329
850.053955,1372
850.171875,1360
850.289673,1362
850.407593,1318
850.525452,1364
850.643311,1309
850.761169,1330
850.878967,1323
850.996887,1401
851.114746,1326
851.232544,1293
851.350403,1310
851.468262,1361
851.58606,1314
851.703979,1351
851.821777,1288
851.939636,1325
852.057434,1349
852.175232,1338
852.293091,1338
852.410889,1361
852.528687,1350
852.646545,1368
852.764343,1363
852.88208,1384
852.999939,1327
853.117676,1338
853.235535,1379
853.353271,1352
853.471069,1348
853.588928,1336
853.706604,1375
853.824402,1328
853.9422,1370
854.059998,1353
854.177734,1357
854.295532,1390
854.413269,1334
854.531006,1377
854.648804,1350
854.766541,1344
854.884277,1377
855.002014,1352
855.119751,1379
855.237549,1419
855.355225,1384
855.473022,1368
855.590698,1394
855.708435,1370
855.826172,1375
855.943848,1388
856.061646,1432
856.179321,1338
856.296997,1396
856.414795,1370
856.53241,1411
856.650085,1395
856.767822,1384
856.885559,1389
857.003174,1414
857.120911,1387
857.238586,1392
857.356201,1429
857.473938,1376
857.591614,1384
857.709351,1316
857.826965,1374
857.944641,1324
858.062317,1381
858.179993,1368
858.297668,1405
858.415283,1378
858.532959,1383
858.650574,1358
858.768188,1383
858.885803,1395
859.003479,1394
859.121094,1347
859.23877,1371
859.356384,1387
859.473999,1357
859.591675,1353
859.709229,1403
859.826843,1383
859.944458,1367
860.062012,1365
860.179626,1366
860.297302,1329
860.414856,1339
860.532471,1374
860.650024,1342
860.767639,1365
860.885193,1355
861.002808,1410
861.120361,1323
861.237976,1398
861.35553,1336
861.473022,1364
861.590698,1368
861.708191,1404
861.825745,1339
861.943298,1369
862.060852,1374
862.178406,1322
862.295959,1357
862.413513,1322
862.531006,1346
862.64856,1373
862.766113,1337
862.883667,1384
863.00116,1341
863.118713,1356
863.236206,1355
863.353699,1390
863.471252,1342
863.588745,1358
863.706177,1387
863.82373,1365
863.941162,1396
864.058716,1335
864.176208,1409
864.29364,1350
864.411194,1383
864.528687,1358
864.646118,1376
864.763611,1374
864.881042,1386
864.998535,1404
865.116028,1387
865.233459,1387
865.350891,1357
865.468384,1368
865.585754,1417
865.703308,1360
865.820679,1400
865.938171,1361
866.055542,1347
866.173035,1429
866.290466,1411
866.407837,1373
866.52533,1385
866.6427,1386
866.760071,1378
866.877563,1361
866.994934,1378
867.112305,1416
867.229736,1357
867.347107,1352
867.464539,1396
867.58197,1407
867.699341,1446
867.81665,1344
867.934082,1392
868.051453,1374
868.168823,1383
868.286194,1352
868.403564,1407
868.520935,1346
868.638306,1429
868.755676,1347
868.872986,1429
868.990295,1419
869.107727,1369
869.225037,1344
869.342346,1389
869.459717,1410
869.577026,1377
869.694336,1385
869.811707,1398
869.929016,1388
870.046326,1406
870.163635,1373
870.280945,1360
870.398254,1387
870.515564,1388
870.632812,1411
870.750183,1408
870.867432,1380
870.984741,1347
871.102051,1389
871.219299,1411
871.336609,1385
871.453918,1409
871.571106,1427
871.688416,1380
871.805664,1413
871.922852,1409
872.040222,1394
872.157471,1441
872.274719,1345
872.391968,1408
872.509155,1402
872.626465,1394
872.743652,1376
872.860962,1401
872.978149,1396
873.095337,1389
873.212646,1448
873.329834,1378
873.44696,1378
873.564209,1405
873.681396,1390
873.798645,1414
873.915894,1349
874.03302,1376
874.150208,1379
874.267456,1401
874.384583,1379
874.501831,1412
874.618958,1380
874.736145,1401
874.853333,1377
874.970459,1414
875.087646,1425
875.204834,1406
875.32196,1396
875.439148,1362
875.556274,1372
875.673401,1391
875.790527,1370
875.907715,1360
876.024841,1430
876.141968,1412
876.259094,1381
876.376282,1375
876.493347,1372
876.610474,1408
876.7276,1421
876.844727,1433
876.961853,1375
877.078918,1354
877.195984,1414
877.313171,1397
877.430237,1412
877.547302,1467
877.664368,1414
877.781433,1394
877.898499,1383
878.015625,1377
878.13269,1389
878.249695,1369
878.366821,1403
878.483887,1453
878.600952,1417
878.717957,1446
878.834961,1367
878.952087,1436
879.069092,1360
879.186157,1403
879.303162,1388
879.420227,1421
879.537231,1380
879.654236,1372
879.77124,1402
879.888306,1379
880.005249,1430
880.122314,1378
880.239319,1409
880.356323,1386
880.473328,1380
880.590271,1389
880.707275,1432
880.824341,1372
880.941284,1379
881.058228,1428
881.175232,1369
881.292236,1355
881.40918,1387
881.526123,1423
881.643066,1399
881.760071,1413
881.877014,1378
881.993958,1414
882.11084,1444
882.227783,1384
882.344727,1426
882.46167,1391
882.578613,1408
882.695618,1381
882.812439,1351
882.929382,1375
883.046326,1417
883.163208,1408
883.280151,1421
883.397034,1428
883.513916,1362
883.630798,1427
883.747742,1384
883.864563,1403
883.981506,1381
884.098389,1431
884.21521,1442
884.332153,1416
884.448975,1393
884.565796,1402
884.682678,1413
884.7995,1462
884.916443,1451
885.033264,1380
885.150085,1469
885.266968,1449
885.383789,1450
885.500671,1443
885.617493,1437
885.734314,1416
885.851196,1475
885.967896,1444
886.084717,1452
886.201599,1440
886.318359,1464
886.435181,1431
886.552002,1467
886.668762,1452
886.785645,1444
886.902344,1412
887.019165,1431
887.135925,1453
887.252747,1429
887.369446,1429
887.486267,1424
887.603027,1469
887.719788,1421
887.836548,1454
887.953247,1394
888.070068,1450
888.186829,1438
888.303528,1476
888.420288,1388
888.536987,1458
888.653687,1403
888.770447,1423
888.887146,1401
889.003967,1414
889.120667,1404
889.237305,1451
889.354065,1475
889.470703,1440
889.587463,1408
889.704163,1451
889.820862,1422
889.937561,1457
890.054199,1432
890.170837,1437
890.287598,1427
890.404236,1421
890.520874,1473
890.637634,1449
890.754211,1405
890.87085,1435
890.987549,1448
891.104187,1422
891.220886,1463
891.337463,1478
891.454102,1449
891.57074,1414
891.687378,1446
891.804077,1435
891.920654,1394
892.037231,1409
892.15387,1448
892.270447,1426
892.387085,1405
892.503723,1434
892.6203,1422
892.736877,1419
892.853516,1482
892.970032,1470
893.08667,1481
893.203186,1403
893.319763,1455
893.43634,1430
893.552917,1486
893.669556,1430
893.786011,1418
893.902588,1479
894.019165,1464
894.135681,1429
894.252197,1487
894.368835,1470
894.485291,1464
894.601868,1486
894.718384,1426
894.8349,1473
894.951355,1471
895.067932,1452
895.184448,1465
895.300964,1440
895.417419,1393
895.533936,1436
895.650452,1466
895.766907,1475
895.883423,1459
895.999878,1517
896.116333,1462
896.232849,1473
896.349304,1440
896.465759,1471
896.582214,1473
896.698669,1434
896.815125,1473
896.931641,1428
897.048035,1428
897.164551,1444
897.280884,1423
897.397339,1506
897.513794,1441
897.630249,1436
897.746582,1503
897.863098,1452
897.979431,1457
898.095886,1455
898.212341,1451
898.328674,1452
898.445129,1468
898.561462,1487
898.677795,1489
898.794312,1476
898.910645,1421
899.026978,1474
899.143433,1436
899.259766,1449
899.37616,1466
899.492493,1445
899.608765,1484
899.725159,1483
899.841553,1463
899.957947,1504
900.07428,1466
900.190552,1480
900.306946,1513
900.423157,1514
900.53949,1507
900.655884,1497
900.772156,1454
900.888489,1463
901.004822,1498
901.121033,1465
901.237366,1478
901.353699,1507
901.46991,1460
901.586304,1487
901.702515,1449
901.818787,1470
901.93512,1463
902.051331,1501
902.167603,1496
902.283875,1515
902.400085,1499
902.516418,1503
902.632629,1529
902.74884,1510
902.865112,1504
902.981384,1476
903.097595,1508
903.213867,1512
903.330017,1528
903.446289,1531
903.5625,1502
903.67865,1545
903.794922,1493
903.911072,1503
904.027344,1482
904.143494,1512
904.259705,1530
904.375916,1517
904.492065,1480
904.608215,1504
904.724426,1461
904.840576,1465
904.956726,1487
905.072876,1514
905.189087,1447
905.305176,1502
905.421387,1513
905.537537,1442
905.653687,1463
905.769775,1537
905.885925,1528
906.002014,1489
906.118164,1497
906.234314,1495
906.350403,1464
906.466492,1483
906.582642,1510
906.69873,1506
906.814758,1483
906.930908,1491
907.046936,1479
907.163086,1486
907.279175,1517
907.395264,1536
907.511353,1524
907.62738,1512
907.743408,1500
907.859497,1478
907.975525,1504
908.091553,1521
908.207703,1499
908.32373,1485
908.439758,1502
908.555786,1507
908.671814,1465
908.787842,1481
908.90387,1498
909.019775,1472
909.135864,1463
909.251892,1478
909.367859,1528
909.483826,1525
909.599854,1515
909.715881,1504
909.831848,1486
909.947815,1508
910.063782,1531
910.179749,1527
910.295776,1499
910.411743,1501
910.527649,1517
910.643616,1470
910.759583,1546
910.875488,1488
910.991455,1533
911.107361,1490
911.223267,1490
911.339294,1505
911.4552,1483
911.571106,1494
911.687073,1486
911.802979,1524
911.918823,1460
912.034729,1493
912.150635,1531
912.266602,1509
912.382446,1487
912.498352,1515
912.614197,1475
912.730103,1530
912.846008,1476
792.44574,2319
792.56488,2312
792.68396,2271
792.80304,2244
792.92218,2201
793.041199,2226
793.160339,2166
793.279419,2183
793.398499,2151
793.517578,2131
793.636658,2164
793.755737,2210
793.874817,2129
793.993896,2180
794.112976,2125
794.232056,2128
794.351074,2059
794.470215,2071
794.589233,2095
794.708313,2022
794.827393,2071
794.946411,2063
795.065552,2017
795.18457,2030
795.303589,2086
795.422668,2016
795.541687,2032
795.660767,2063
795.779846,2024
795.898865,2069
796.017883,1991
796.136963,1982
796.255981,2002
796.375061,1993
796.49408,1994
796.613037,1983
796.732117,2042
796.851135,1951
796.970154,2001
797.089233,2008
797.208191,1946
797.327271,1954
797.446228,1988
797.565186,2033
797.684265,1940
797.803223,1963
797.922241,1941
798.04126,1968
798.160278,1937
798.279297,1983
798.398315,1972
798.517273,1955
798.636292,1956
798.75531,1959
798.874268,1957
798.993286,2013
799.112244,1953
799.231323,1891
799.350281,1967
799.469238,1930
799.588257,1973
799.707153,1972
799.826111,1945
799.945129,1994
800.064087,1969
800.183044,1918
800.302063,1963
800.421021,1931
800.539978,1955
800.658936,1950
800.777893,2019
800.896912,1963
801.015747,1939
801.134705,1987
801.253723,1967
801.37262,1999
801.491638,1966
801.610535,2007
801.729492,1941
801.84845,1988
801.967407,1955
802.086243,1986
802.205261,2014
802.324158,1983
802.443115,1957
802.562073,2005
802.680969,2037
802.799927,2005
802.918762,1987
803.037659,1972
803.156677,1977
803.275574,2016
803.39447,1983
803.513428,2008
803.632263,1995
803.751221,2011
803.870117,1982
803.989014,2017
804.107971,2054
804.226746,2040
804.345642,2042
804.4646,2038
804.583496,2003
804.702393,2080
804.821228,1993
804.940125,2076
805.059021,2076
805.177917,2007
805.296814,2093
805.415649,2054
805.534546,2055
805.653442,2070
805.772278,2058
805.891113,2149
806.01001,2061
806.128906,2101
806.247742,2068
806.366577,2052
806.485413,2081
806.604309,2098
806.723145,2099
806.84198,2111
806.960876,2040
807.079712,2061
807.198486,2069
807.317383,2107
807.436218,2124
807.554993,2125
807.673889,2051
807.792725,2113
807.91156,2109
808.030396,2092
808.14917,2108
808.268005,2124
808.386841,2105
808.505676,2115
808.624451,2086
808.743286,2116
808.862122,2104
808.980896,2141
809.099731,2106
809.218506,2144
809.337341,2114
809.456116,2123
809.57489,2142
809.693726,2181
809.8125,2196
809.931274,2185
810.050049,2154
810.168884,2147
810.287659,2152
810.406372,2157
810.525269,2173
810.643982,2118
810.762756,2156
810.881531,2183
811.000305,2168
811.11908,2171
811.237854,2161
811.356567,2173
811.475403,2133
811.594116,2149
811.71283,2162
811.831604,2154
811.950378,2194
812.069153,2122
812.187927,2180
812.30658,2167
812.425415,2185
812.544128,2192
812.662781,2190
812.781616,2188
812.900269,2108
813.019043,2169
813.137756,2167
813.256531,2155
813.375244,2237
813.493896,2197
813.612671,2137
813.731384,2213
813.850037,2214
813.96875,2143
814.087524,2214
814.206238,2120
814.324951,2137
814.443604,2158
814.562256,2147
814.68103,2127
814.799683,2163
814.918335,2116
815.037109,2111
815.155762,2145
815.274475,2146
815.393188,2168
815.511841,2133
815.630554,2050
815.749146,2056
815.867859,2071
815.986572,2117
816.105164,2059
816.223877,2050
816.342529,2076
816.461182,2090
816.579895,2088
816.698486,2102
816.817139,2106
816.935791,2095
817.054504,2092
817.173096,2135
817.291748,2066
817.4104,2069
817.529053,1955
817.647644,2023
817.766235,1939
817.884949,1894
818.00354,1842
818.122192,1867
818.240845,1825
818.359436,1797
818.478088,1795
818.59668,1763
818.715271,1728
818.833923,1716
818.952515,1690
819.071106,1687
819.189758,1669
819.30835,1647
819.426941,1594
819.545532,1628
819.664124,1605
819.782715,1578
819.901306,1585
820.019897,1572
820.138489,1561
820.25708,1579
820.375671,1554
820.494202,1565
820.612732,1544
820.731384,1510
820.849915,1531
820.968506,1517
821.087097,1496
821.205627,1512
821.324158,1477
821.442749,1522
821.561279,1545
821.679871,1490
821.798401,1524
821.916931,1548
822.035461,1495
822.154053,1479
822.272583,1493
822.391174,1483
822.509583,1481
822.628174,1518
822.746704,1490
822.865234,1473
822.983765,1493
823.102295,1489
823.220825,1443
823.339294,1454
823.457825,1449
823.576355,1516
823.694824,1487
823.813354,1478
823.931885,1537
824.050354,1481
824.168884,1481
824.287354,1553
824.405823,1530
824.524353,1558
824.642822,1507
824.761353,1535
824.879822,1498
824.998291,1489
825.116699,1502
825.235291,1501
825.353699,1488
825.472168,1436
825.590637,1483
825.709106,1443
825.827576,1464
825.946045,1456
826.064453,1471
826.182983,1414
826.301392,1466
826.4198,1460
826.53833,1436
826.656738,1421
826.775208,1426
826.893677,1432
827.012024,1388
827.130493,1485
827.248962,1376
827.36731,1398
827.485779,1409
827.604248,1411
827.722595,1385
827.841064,1373
827.959412,1388
828.077942,1362
828.196289,1370
828.314636,1413
828.433105,1410
828.551514,1382
828.669861,1420
828.78833,1365
828.906677,1383
829.025085,1457
829.143433,1358
829.261841,1411
829.38031,1402
829.498657,1381
829.617004,1392
829.735413,1394
829.85376,1413
829.972107,1368
830.090515,1376
830.208862,1342
830.327209,1383
830.445557,1340
830.563904,1376
830.682312,1363
830.800659,1357
830.919006,1345
831.037354,1399
831.155701,1382
831.274048,1350
831.392395,1385
831.51062,1386
831.629028,1370
831.747314,1409
831.865662,1394
831.984009,1349
832.102356,1396
832.220642,1362
832.338928,1376
832.457275,1348
832.575623,1365
832.693909,1370
832.812134,1359
832.930481,1355
833.048828,1400
833.167114,1330
833.2854,1355
833.403687,1395
833.521973,1393
833.640259,1366
833.758545,1374
833.876831,1380
833.995056,1404
834.113281,1377
834.231628,1400
834.349915,1372
834.468201,1395
834.586426,1349
834.704651,1390
834.822998,1391
834.941162,1358
835.059448,1371
835.177673,1396
835.295959,1383
835.414246,1374
835.53241,1390
835.650635,1368
835.768921,1422
835.887146,1360
836.005371,1421
836.123596,1405
836.241821,1409
836.360046,1388
836.478271,1420
836.596497,1444
836.714722,1418
836.832886,1465
836.95105,1424
837.069336,1443
837.1875,1452
837.305725,1446
837.423889,1495
837.542053,1433
837.660339,1474
837.778503,1462
837.896667,1473
838.014832,1473
838.132996,1433
838.25116,1465
838.369385,1439
838.487488,1439
838.605713,1489
838.723877,1433
838.84198,1457
838.960205,1461
839.078308,1439
839.196472,1455
839.314636,1455
839.4328,1443
839.550964,1444
839.669067,1453
839.787231,1455
839.905396,1448
840.023499,1456
840.141602,1430
840.259766,1437
840.377869,1416
840.495972,1425
840.614136,1432
840.732239,1393
840.850342,1442
840.968445,1394
841.086548,1435
841.204651,1411
841.322754,1391
841.440918,1440
841.55896,1441
841.677002,1390
841.795166,1398
841.913208,1387
842.031311,1374
842.149353,1363
842.267456,1356
842.385498,1334
842.503601,1346
842.621643,1376
842.739746,1365
842.857788,1362
842.97583,1328
843.093933,1363
843.211975,1350
843.330017,1352
843.44812,1376
843.566101,1352
843.684204,1357
843.802246,1351
843.920227,1372
844.038269,1450
844.156311,1334
844.274292,1342
844.392395,1366
844.510376,1341
844.628357,1353
844.74646,1370
844.864441,1323
844.982422,1336
845.100403,1353
845.218384,1363
845.336426,1340
845.454468,1379
845.572449,1325
845.69043,1343
845.808411,1343
845.926453,1335
846.044373,1325
846.162354,1341
846.280396,1313
846.398315,1330
846.516296,1353
846.634216,1337
846.752197,1341
846.870178,1354
846.988098,1341
847.106079,1363
847.22406,1374
847.34198,1331
847.4599,1365
847.577881,1336
847.695801,1317
847.813782,1331
847.931641,1331
848.049561,1365
848.167603,1275
848.285461,1345
848.403381,1325
848.521362,1337
848.639221,1338
848.75708,1353
848.875,1366
848.99292,1379
849.110901,1355
849.22876,1334
849.34668,1362
849.464539,1354
849.582458,1366
849.700317,1365
849.818176,1367
849.936096,1377
850.053955,1359
850.171875,1348
850.289673,1349
850.407593,1361
850.525452,1358
850.643311,1377
850.761169,1355
850.878967,1328
850.996887,1361
851.114746,1351
851.232544,1322
851.350403,1360
851.468262,1330
851.58606,1388
851.703979,1322
851.821777,1354
851.939636,1327
852.057434,1333
852.175232,1361
852.293091,1357
852.410889,1348
852.528687,1425
852.646545,1368
852.764343,1367
852.88208,1336
852.999939,1383
853.117676,1365
853.235535,1359
853.353271,1365
853.471069,1364
853.588928,1376
853.706604,1335
853.824402,1373
853.9422,1346
854.059998,1405
854.177734,1367
854.295532,1330
854.413269,1367
854.531006,1359
854.648804,1366
854.766541,1383
854.884277,1365
855.002014,1373
855.119751,1343
855.237549,1370
855.355225,1352
855.473022,1374
855.590698,1395
855.708435,1413
855.826172,1353
855.943848,1377
856.061646,1360
856.179321,1369
856.296997,1400
856.414795,1394
856.53241,1423
856.650085,1414
856.767822,1413
856.885559,1393
857.003174,1447
857.120911,1391
857.238586,1411
857.356201,1442
857.473938,1400
857.591614,1398
857.709351,1420
857.826965,1349
857.944641,1400
858.062317,1371
858.179993,1365
858.297668,1358
858.415283,1397
858.532959,1372
858.650574,1405
858.768188,1390
858.885803,1355
859.003479,1391
859.121094,1380
859.23877,1404
859.356384,1372
859.473999,1382
859.591675,1383
859.709229,1390
859.826843,1391
859.944458,1360
860.062012,1373
860.179626,1382
860.297302,1361
860.414856,1399
860.532471,1348
860.650024,1383
860.767639,1348
860.885193,1379
861.002808,1340
861.120361,1378
861.237976,1364
861.35553,1366
861.473022,1410
861.590698,1398
861.708191,1387
861.825745,1384
861.943298,1332
862.060852,1323
862.178406,1352
862.295959,1370
862.413513,1349
862.531006,1378
862.64856,1353
862.766113,1405
862.883667,1381
863.00116,1384
863.118713,1338
863.236206,1357
863.353699,1341
863.471252,1365
863.588745,1390
863.706177,1377
863.82373,1356
863.941162,1354
864.058716,1390
864.176208,1368
864.29364,1384
864.411194,1380
864.528687,1369
864.646118,1388
864.763611,1382
864.881042,1371
864.998535,1426
865.116028,1399
865.233459,1384
865.350891,1360
865.468384,1421
865.585754,1412
865.703308,1408
865.820679,1395
865.938171,1380
866.055542,1385
866.173035,1366
866.290466,1365
866.407837,1360
866.52533,1412
866.6427,1414
866.760071,1395
866.877563,1386
866.994934,1382
867.112305,1379
867.229736,1415
867.347107,1361
867.464539,1410
867.58197,1416
867.699341,1390
867.81665,1383
867.934082,1397
868.051453,1338
868.168823,1434
868.286194,1366
868.403564,1410
868.520935,1387
868.638306,1374
868.755676,1403
868.872986,1401
868.990295,1394
869.107727,1442
869.225037,1405
869.342346,1400
869.459717,1395
869.577026,1362
869.694336,1396
869.811707,1373
869.929016,1392
870.046326,1426
870.163635,1452
870.280945,1426
870.398254,1372
870.515564,1404
870.632812,1416
870.750183,1392
870.867432,1419
870.984741,1412
871.102051,1398
871.219299,1436
871.336609,1414
871.453918,1404
871.571106,1399
871.688416,1408
871.805664,1372
871.922852,1401
872.040222,1443
872.157471,1429
872.274719,1399
872.391968,1378
872.509155,1426
872.626465,1380
872.743652,1422
872.860962,1386
872.978149,1405
873.095337,1404
873.212646,1399
873.329834,1385
873.44696,1387
873.564209,1432
873.681396,1392
873.798645,1419
873.915894,1410
874.03302,1394
874.150208,1398
874.267456,1415
874.384583,1427
874.501831,1344
874.618958,1406
874.736145,1419
874.853333,1390
874.970459,1417
875.087646,1431
875.204834,1380
875.32196,1393
875.439148,1413
875.556274,1378
875.673401,1405
875.790527,1375
875.907715,1382
876.024841,1420
876.141968,1417
876.259094,1410
876.376282,1375
876.493347,1428
876.610474,1411
876.7276,1352
876.844727,1430
876.961853,1408
877.078918,1402
877.195984,1402
877.313171,1384
877.430237,1420
877.547302,1389
877.664368,1426
877.781433,1416
877.898499,1402
878.015625,1428
878.13269,1395
878.249695,1415
878.366821,1427
878.483887,1408
878.600952,1411
878.717957,1408
878.834961,1395
878.952087,1404
879.069092,1414
879.186157,1416
879.303162,1397
879.420227,1415
879.537231,1380
879.654236,1393
879.77124,1455
879.888306,1360
880.005249,1380
880.122314,1430
880.239319,1418
880.356323,1395
880.473328,1392
880.590271,1392
880.707275,1405
880.824341,1444
880.941284,1414
881.058228,1420
881.175232,1394
881.292236,1423
881.40918,1395
881.526123,1413
881.643066,1419
881.760071,1436
881.877014,1406
881.993958,1390
882.11084,1420
882.227783,1395
882.344727,1382
882.46167,1435
882.578613,1392
882.695618,1404
882.812439,1417
882.929382,1432
883.046326,1402
883.163208,1398
883.280151,1419
883.397034,1433
883.513916,1454
883.630798,1414
883.747742,1415
883.864563,1409
883.981506,1467
884.098389,1409
884.21521,1439
884.332153,1460
884.448975,1343
884.565796,1444
884.682678,1420
884.7995,1441
884.916443,1438
885.033264,1455
885.150085,1497
885.266968,1461
885.383789,1461
885.500671,1489
885.617493,1488
885.734314,1419
885.851196,1460
885.967896,1418
886.084717,1444
886.201599,1487
886.318359,1505
886.435181,1464
886.552002,1483
886.668762,1478
886.785645,1463
886.902344,1445
887.019165,1443
887.135925,1447
887.252747,1449
887.369446,1444
887.486267,1407
887.603027,1407
887.719788,1457
887.836548,1419
887.953247,1426
888.070068,1408
888.186829,1459
888.303528,1453
888.420288,1431
888.536987,1427
888.653687,1414
888.770447,1480
888.887146,1455
889.003967,1405
889.120667,1442
889.237305,1412
889.354065,1403
889.470703,1506
889.587463,1422
889.704163,1435
889.820862,1452
889.937561,1448
890.054199,1428
890.170837,1414
890.287598,1459
890.404236,1418
890.520874,1450
890.637634,1487
890.754211,1474
890.87085,1460
890.987549,1458
891.104187,1454
891.220886,1480
891.337463,1433
891.454102,1437
891.57074,1455
891.687378,1413
891.804077,1442
891.920654,1452
892.037231,1488
892.15387,1430
892.270447,1432
892.387085,1436
892.503723,1479
892.6203,1500
892.736877,1502
892.853516,1470
892.970032,1443
893.08667,1458
893.203186,1441
893.319763,1475
893.43634,1460
893.552917,1448
893.669556,1446
893.786011,1487
893.902588,1512
894.019165,1442
894.135681,1415
894.252197,1482
894.368835,1465
894.485291,1507
894.601868,1471
894.718384,1487
894.8349,1490
894.951355,1461
895.067932,1467
895.184448,1506
895.300964,1444
895.417419,1466
895.533936,1496
895.650452,1479
895.766907,1431
895.883423,1462
895.999878,1499
896.116333,1461
896.232849,1483
896.349304,1472
896.465759,1489
896.582214,1489
896.698669,1470
896.815125,1471
896.931641,1458
897.048035,1472
897.164551,1446
897.280884,1479
897.397339,1469
897.513794,1467
897.630249,1458
897.746582,1482
897.863098,1451
897.979431,1520
898.095886,1464
898.212341,1469
898.328674,1441
898.445129,1476
898.561462,1456
898.677795,1481
898.794312,1508
898.910645,1489
899.026978,1485
899.143433,1476
899.259766,1465
899.37616,1513
899.492493,1474
899.608765,1499
899.725159,1542
899.841553,1501
899.957947,1477
900.07428,1473
900.190552,1514
900.306946,1504
900.423157,1455
900.53949,1470
900.655884,1498
900.772156,1443
900.888489,1516
901.004822,1491
901.121033,1481
901.237366,1436
901.353699,1522
901.46991,1488
901.586304,1510
901.702515,1464
901.818787,1475
901.93512,1444
902.051331,1486
902.167603,1536
902.283875,1437
902.400085,1517
902.516418,1538
902.632629,1536
902.74884,1483
902.865112,1482
902.981384,1511
903.097595,1532
903.213867,1517
903.330017,1521
903.446289,1536
903.5625,1526
903.67865,1471
903.794922,1512
903.911072,1510
904.027344,1505
904.143494,1541
904.259705,1492
904.375916,1516
904.492065,1515
904.608215,1503
904.724426,1478
904.840576,1502
904.956726,1485
905.072876,1546
905.189087,1456
905.305176,1554
905.421387,1479
905.537537,1480
905.653687,1514
905.769775,1523
905.885925,1488
906.002014,1460
906.118164,1496
906.234314,1526
906.350403,1534
906.466492,1531
906.582642,1516
906.69873,1506
906.814758,1495
906.930908,1502
907.046936,1512
907.163086,1475
907.279175,1530
907.395264,1538
907.511353,1559
907.62738,1581
907.743408,1489
907.859497,1507
907.975525,1493
908.091553,1530
908.207703,1475
908.32373,1526
908.439758,1520
908.555786,1561
908.671814,1517
908.787842,1506
908.90387,1520
909.019775,1516
909.135864,1484
909.251892,1530
909.367859,1497
909.483826,1562
909.599854,1547
909.715881,1482
909.831848,1557
909.947815,1514
910.063782,1548
910.179749,1501
910.295776,1509
910.411743,1508
910.527649,1544
910.643616,1534
910.759583,1503
910.875488,1519
910.991455,1504
911.107361,1490
911.223267,1541
911.339294,1514
911.4552,1485
911.571106,1522
911.687073,1532
911.802979,1541
911.918823,1485
912.034729,1541
912.150635,1583
912.266602,1503
912.382446,1556
912.498352,1529
912.614197,1502
912.730103,1527
912.846008,1543
