792.44574,2164
792.56488,2126
792.68396,2114
792.80304,2059
792.92218,2092
793.041199,2020
793.160339,2063
793.279419,2087
793.398499,2061
793.517578,2021
793.636658,2074
793.755737,2064
793.874817,2019
793.993896,2023
794.112976,1998
794.232056,2023
794.351074,2000
794.470215,1971
794.589233,1915
794.708313,1978
794.827393,1991
794.946411,1928
795.065552,1925
795.18457,1967
795.303589,1988
795.422668,1959
795.541687,1940
795.660767,1918
795.779846,1920
795.898865,1960
796.017883,1904
796.136963,1887
796.255981,1869
796.375061,1921
796.49408,1939
796.613037,1921
796.732117,1893
796.851135,1919
796.970154,1929
797.089233,1870
797.208191,1908
797.327271,1880
797.446228,1872
797.565186,1886
797.684265,1885
797.803223,1885
797.922241,1886
798.04126,1939
798.160278,1886
798.279297,1906
798.398315,1857
798.517273,1918
798.636292,1900
798.75531,1929
798.874268,1871
798.993286,1918
799.112244,1842
799.231323,1874
799.350281,1911
799.469238,1906
799.588257,1908
799.707153,1891
799.826111,1900
799.945129,1881
800.064087,1902
800.183044,1911
800.302063,1876
800.421021,1927
800.539978,1833
800.658936,1869
800.777893,1956
800.896912,1878
801.015747,1879
801.134705,1901
801.253723,1887
801.37262,1932
801.491638,1866
801.610535,1923
801.729492,1903
801.84845,1902
801.967407,1899
802.086243,1975
802.205261,1952
802.324158,1927
802.443115,1964
802.562073,1967
802.680969,1948
802.799927,1943
802.918762,1949
803.037659,1951
803.156677,1978
803.275574,1932
803.39447,1963
803.513428,1988
803.632263,1986
803.751221,2037
803.870117,1955
803.989014,1989
804.107971,1986
804.226746,1973
804.345642,1977
804.4646,1993
804.583496,2046
804.702393,2011
804.821228,1973
804.940125,2007
805.059021,2039
805.177917,2014
805.296814,2044
805.415649,2013
805.534546,2050
805.653442,2087
805.772278,2054
805.891113,2117
806.01001,2002
806.128906,2083
806.247742,2078
806.366577,2063
806.485413,2059
806.604309,2062
806.723145,2029
806.84198,2015
806.960876,2049
807.079712,2070
807.198486,2072
807.317383,2024
807.436218,2040
807.554993,2074
807.673889,2081
807.792725,2100
807.91156,2092
808.030396,2064
808.14917,2115
808.268005,2097
808.386841,2087
808.505676,2102
808.624451,2081
808.743286,2144
808.862122,2059
808.980896,2145
809.099731,2115
809.218506,2147
809.337341,2111
809.456116,2147
809.57489,2104
809.693726,2128
809.8125,2135
809.931274,2185
810.050049,2125
810.168884,2148
810.287659,2124
810.406372,2134
810.525269,2116
810.643982,2194
810.762756,2117
810.881531,2147
811.000305,2129
811.11908,2060
811.237854,2132
811.356567,2196
811.475403,2106
811.594116,2141
811.71283,2115
811.831604,2135
811.950378,2186
812.069153,2160
812.187927,2132
812.30658,2143
812.425415,2198
812.544128,2137
812.662781,2146
812.781616,2116
812.900269,2129
813.019043,2175
813.137756,2123
813.256531,2128
813.375244,2177
813.493896,2118
813.612671,2148
813.731384,2144
813.850037,2139
813.96875,2119
814.087524,2196
814.206238,2137
814.324951,2133
814.443604,2162
814.562256,2091
814.68103,2126
814.799683,2160
814.918335,2134
815.037109,2048
815.155762,2111
815.274475,2084
815.393188,2049
815.511841,2077
815.630554,2040
815.749146,2072
815.867859,2011
815.986572,2060
816.105164,1999
816.223877,2023
816.342529,2058
816.461182,2074
816.579895,2065
816.698486,2031
816.817139,2089
816.935791,2086
817.054504,2052
817.173096,2055
817.291748,2002
817.4104,2063
817.529053,1993
817.647644,1980
817.766235,1934
817.884949,1899
818.00354,1845
818.122192,1841
818.240845,1827
818.359436,1779
818.478088,1807
818.59668,1761
818.715271,1655
818.833923,1667
818.952515,1614
819.071106,1611
819.189758,1585
819.30835,1556
819.426941,1587
819.545532,1560
819.664124,1545
819.782715,1524
819.901306,1559
820.019897,1508
820.138489,1523
820.25708,1497
820.375671,1517
820.494202,1551
820.612732,1497
820.731384,1499
820.849915,1483
820.968506,1487
821.087097,1515
821.205627,1433
821.324158,1469
821.442749,1500
821.561279,1518
821.679871,1488
821.798401,1489
821.916931,1468
822.035461,1450
822.154053,1453
822.272583,1479
822.391174,1462
822.509583,1445
822.628174,1446
822.746704,1437
822.865234,1467
822.983765,1431
823.102295,1431
823.220825,1460
823.339294,1421
823.457825,1437
823.576355,1408
823.694824,1479
823.813354,1458
823.931885,1458
824.050354,1476
824.168884,1438
824.287354,1458
824.405823,1483
824.524353,1487
824.642822,1484
824.761353,1469
824.879822,1457
824.998291,1424
825.116699,1428
825.235291,1436
825.353699,1452
825.472168,1421
825.590637,1470
825.709106,2887
825.827576,2358
825.946045,1421
826.064453,1417
826.182983,1408
826.301392,1340
826.4198,1380
826.53833,1336
826.656738,1385
826.775208,1388
826.893677,1367
827.012024,1333
827.130493,1367
827.248962,1374
827.36731,1377
827.485779,1348
827.604248,1406
827.722595,1357
827.841064,1359
827.959412,1361
828.077942,1368
828.196289,1385
828.314636,1371
828.433105,1359
828.551514,1346
828.669861,1356
828.78833,1335
828.906677,1340
829.025085,1356
829.143433,1392
829.261841,1314
829.38031,1332
829.498657,1342
829.617004,1356
829.735413,1375
829.85376,1333
829.972107,1350
830.090515,1296
830.208862,1332
830.327209,1307
830.445557,1317
830.563904,1358
830.682312,1365
830.800659,1324
830.919006,1320
831.037354,1323
831.155701,1313
831.274048,1328
831.392395,1295
831.51062,1337
831.629028,1344
831.747314,1327
831.865662,1325
831.984009,1347
832.102356,1340
832.220642,1306
832.338928,1347
832.457275,1329
832.575623,1320
832.693909,1301
832.812134,1268
832.930481,1336
833.048828,1290
833.167114,1320
833.2854,1339
833.403687,1325
833.521973,1331
833.640259,1324
833.758545,1392
833.876831,1318
833.995056,1315
834.113281,1359
834.231628,1343
834.349915,1336
834.468201,1301
834.586426,1318
834.704651,1323
834.822998,1380
834.941162,1327
835.059448,1384
835.177673,1342
835.295959,1381
835.414246,1338
835.53241,1334
835.650635,1344
835.768921,1345
835.887146,1364
836.005371,1380
836.123596,1369
836.241821,1391
836.360046,1389
836.478271,1380
836.596497,1397
836.714722,1416
836.832886,1421
836.95105,1439
837.069336,1379
837.1875,1408
837.305725,1413
837.423889,1453
837.542053,1380
837.660339,1430
837.778503,1432
837.896667,1406
838.014832,1431
838.132996,1419
838.25116,1403
838.369385,1421
838.487488,1410
838.605713,1413
838.723877,1416
838.84198,1391
838.960205,1404
839.078308,1394
839.196472,1416
839.314636,1403
839.4328,1355
839.550964,1430
839.669067,1375
839.787231,1349
839.905396,1389
840.023499,1410
840.141602,1383
840.259766,1343
840.377869,1407
840.495972,1354
840.614136,1408
840.732239,1354
840.850342,1403
840.968445,1353
841.086548,1358
841.204651,1389
841.322754,1367
841.440918,1329
841.55896,1354
841.677002,1325
841.795166,1346
841.913208,1358
842.031311,1331
842.149353,1371
842.267456,1297
842.385498,1319
842.503601,1330
842.621643,1328
842.739746,1307
842.857788,1291
842.97583,1332
843.093933,1304
843.211975,1294
843.330017,1299
843.44812,1310
843.566101,1310
843.684204,1297
843.802246,1297
843.920227,1352
844.038269,1292
844.156311,1282
844.274292,1290
844.392395,1346
844.510376,1318
844.628357,1251
844.74646,1306
844.864441,1326
844.982422,1292
845.100403,1313
845.218384,1300
845.336426,1300
845.454468,1307
845.572449,1293
845.69043,1305
845.808411,1283
845.926453,1289
846.044373,1328
846.162354,1300
846.280396,1333
846.398315,1236
846.516296,1301
846.634216,1288
846.752197,1275
846.870178,1324
846.988098,1280
847.106079,1334
847.22406,1321
847.34198,1308
847.4599,1297
847.577881,1280
847.695801,1290
847.813782,1329
847.931641,1336
848.049561,1331
848.167603,1303
848.285461,1339
848.403381,1333
848.521362,1307
848.639221,1285
848.75708,1303
848.875,1275
848.99292,1339
849.110901,1326
849.22876,1320
849.34668,1287
849.464539,1284
849.582458,1322
849.700317,1317
849.818176,1294
849.936096,1359
850.053955,1333
850.171875,1332
850.289673,1335
850.407593,1326
850.525452,1330
850.643311,1333
850.761169,1270
850.878967,1318
850.996887,1334
851.114746,1315
851.232544,1321
851.350403,1312
851.468262,1332
851.58606,1338
851.703979,1339
851.821777,1329
851.939636,1296
852.057434,1301
852.175232,1315
852.293091,1349
852.410889,1329
852.528687,1321
852.646545,1302
852.764343,1319
852.88208,1303
852.999939,1311
853.117676,1348
853.235535,1335
853.353271,1332
853.471069,1307
853.588928,1318
853.706604,1302
853.824402,1316
853.9422,1327
854.059998,1315
854.177734,1343
854.295532,1332
854.413269,1310
854.531006,1333
854.648804,1339
854.766541,1305
854.884277,1357
855.002014,1344
855.119751,1360
855.237549,1319
855.355225,1335
855.473022,1412
855.590698,1352
855.708435,1397
855.826172,1325
855.943848,1352
856.061646,1371
856.179321,1334
856.296997,1313
856.414795,1363
856.53241,1357
856.650085,1380
856.767822,1362
856.885559,1386
857.003174,1373
857.120911,1387
857.238586,1361
857.356201,1341
857.473938,1345
857.591614,1403
857.709351,1322
857.826965,1373
857.944641,1332
858.062317,1335
858.179993,1382
858.297668,1358
858.415283,1388
858.532959,1371
858.650574,1331
858.768188,1392
858.885803,1409
859.003479,1377
859.121094,1334
859.23877,1379
859.356384,1369
859.473999,1321
859.591675,1352
859.709229,1370
859.826843,1364
859.944458,1321
860.062012,1326
860.179626,1322
860.297302,1334
860.414856,1337
860.532471,1314
860.650024,1370
860.767639,1340
860.885193,1317
861.002808,1319
861.120361,1347
861.237976,1344
861.35553,1324
861.473022,1323
861.590698,1313
861.708191,1344
861.825745,1345
861.943298,1369
862.060852,1317
862.178406,1364
862.295959,1304
862.413513,1344
862.531006,1338
862.64856,1353
862.766113,1406
862.883667,1352
863.00116,1353
863.118713,1384
863.236206,1336
863.353699,1328
863.471252,1344
863.588745,1373
863.706177,1349
863.82373,1334
863.941162,1327
864.058716,1365
864.176208,1364
864.29364,1354
864.411194,1351
864.528687,1386
864.646118,1361
864.763611,1375
864.881042,1363
864.998535,1369
865.116028,1381
865.233459,1342
865.350891,1337
865.468384,1360
865.585754,1319
865.703308,1384
865.820679,1325
865.938171,1357
866.055542,1350
866.173035,1357
866.290466,1361
866.407837,1367
866.52533,1382
866.6427,1366
866.760071,1353
866.877563,1394
866.994934,1404
867.112305,1361
867.229736,1365
867.347107,1323
867.464539,1360
867.58197,1374
867.699341,1374
867.81665,1381
867.934082,1335
868.051453,1389
868.168823,1392
868.286194,1399
868.403564,1387
868.520935,1380
868.638306,1373
868.755676,1380
868.872986,1410
868.990295,1359
869.107727,1398
869.225037,1368
869.342346,1405
869.459717,1367
869.577026,1375
869.694336,1370
869.811707,1351
869.929016,1360
870.046326,1351
870.163635,1370
870.280945,1328
870.398254,1386
870.515564,1387
870.632812,1382
870.750183,1365
870.867432,1332
870.984741,1401
871.102051,1385
871.219299,1386
871.336609,1349
871.453918,1375
871.571106,1335
871.688416,1395
871.805664,1356
871.922852,1433
872.040222,1348
872.157471,1405
872.274719,1349
872.391968,1385
872.509155,1406
872.626465,1378
872.743652,1380
872.860962,1371
872.978149,1366
873.095337,1334
873.212646,1391
873.329834,1401
873.44696,1367
873.564209,1331
873.681396,1361
873.798645,1394
873.915894,1386
874.03302,1381
874.150208,1406
874.267456,1325
874.384583,1358
874.501831,1417
874.618958,1338
874.736145,1386
874.853333,1382
874.970459,1392
875.087646,1355
875.204834,1374
875.32196,1385
875.439148,1380
875.556274,1393
875.673401,1374
875.790527,1409
875.907715,1353
876.024841,1366
876.141968,1363
876.259094,1347
876.376282,1411
876.493347,1364
876.610474,1403
876.7276,1417
876.844727,1390
876.961853,1380
877.078918,1377
877.195984,1388
877.313171,1384
877.430237,1406
877.547302,1392
877.664368,1368
877.781433,1389
877.898499,1392
878.015625,1386
878.13269,1372
878.249695,1380
878.366821,1367
878.483887,1398
878.600952,1352
878.717957,1387
878.834961,1387
878.952087,1377
879.069092,1380
879.186157,1427
879.303162,1371
879.420227,1410
879.537231,1425
879.654236,1416
879.77124,1378
879.888306,1404
880.005249,1443
880.122314,1412
880.239319,1386
880.356323,1361
880.473328,1341
880.590271,1371
880.707275,1373
880.824341,1379
880.941284,1400
881.058228,1366
881.175232,1412
881.292236,1430
881.40918,1394
881.526123,1404
881.643066,1394
881.760071,1416
881.877014,1424
881.993958,1412
882.11084,1409
882.227783,1385
882.344727,1390
882.46167,1377
882.578613,1385
882.695618,1387
882.812439,1339
882.929382,1412
883.046326,1391
883.163208,1425
883.280151,1431
883.397034,1357
883.513916,1403
883.630798,1424
883.747742,1366
883.864563,1378
883.981506,1402
884.098389,1425
884.21521,1394
884.332153,1403
884.448975,1418
884.565796,1417
884.682678,1454
884.7995,1423
884.916443,1412
885.033264,1389
885.150085,1456
885.266968,1387
885.383789,1406
885.500671,1438
885.617493,1453
885.734314,1423
885.851196,1449
885.967896,1406
886.084717,1400
886.201599,1427
886.318359,1429
886.435181,1447
886.552002,1423
886.668762,1395
886.785645,1458
886.902344,1408
887.019165,1416
887.135925,1423
887.252747,1385
887.369446,1430
887.486267,1423
887.603027,1410
887.719788,1392
887.836548,1423
887.953247,1443
888.070068,1418
888.186829,1376
888.303528,1443
888.420288,1436
888.536987,1445
888.653687,1406
888.770447,1424
888.887146,1436
889.003967,1420
889.120667,1418
889.237305,1413
889.354065,1447
889.470703,1439
889.587463,1454
889.704163,1426
889.820862,1412
889.937561,1443
890.054199,1458
890.170837,1425
890.287598,1413
890.404236,1441
890.520874,1476
890.637634,1433
890.754211,1464
890.87085,1403
890.987549,1465
891.104187,1440
891.220886,1457
891.337463,1431
891.454102,1494
891.57074,1420
891.687378,1465
891.804077,1410
891.920654,1475
892.037231,1469
892.15387,1437
892.270447,1443
892.387085,1490
892.503723,1457
892.6203,1449
892.736877,1449
892.853516,1428
892.970032,1456
893.08667,1458
893.203186,1444
893.319763,1475
893.43634,1451
893.552917,1461
893.669556,1488
893.786011,1444
893.902588,1444
894.019165,1496
894.135681,1468
894.252197,1469
894.368835,1499
894.485291,1440
894.601868,1438
894.718384,1478
894.8349,1477
894.951355,1464
895.067932,1470
895.184448,1470
895.300964,1505
895.417419,1433
895.533936,1448
895.650452,1478
895.766907,1484
895.883423,1460
895.999878,1431
896.116333,1441
896.232849,1458
896.349304,1481
896.465759,1442
896.582214,1469
896.698669,1424
896.815125,1479
896.931641,1456
897.048035,1449
897.164551,1488
897.280884,1467
897.397339,1481
897.513794,1444
897.630249,1482
897.746582,1477
897.863098,1461
897.979431,1494
898.095886,1456
898.212341,1468
898.328674,1483
898.445129,1533
898.561462,1476
898.677795,1475
898.794312,1447
898.910645,1510
899.026978,1451
899.143433,1468
899.259766,1489
899.37616,1498
899.492493,1508
899.608765,1508
899.725159,1492
899.841553,1506
899.957947,1456
900.07428,1449
900.190552,1499
900.306946,1494
900.423157,1483
900.53949,1479
900.655884,1467
900.772156,1465
900.888489,1479
901.004822,1495
901.121033,1507
901.237366,1446
901.353699,1455
901.46991,1503
901.586304,1515
901.702515,1485
901.818787,1481
901.93512,1484
902.051331,1492
902.167603,1545
902.283875,1500
902.400085,1457
902.516418,1507
902.632629,1516
902.74884,1476
902.865112,1508
902.981384,1476
903.097595,1445
903.213867,1512
903.330017,1478
903.446289,1477
903.5625,1500
903.67865,1512
903.794922,1504
903.911072,1502
904.027344,1459
904.143494,1555
904.259705,1553
904.375916,1521
904.492065,1455
904.608215,1511
904.724426,1499
904.840576,1504
904.956726,1493
905.072876,1514
905.189087,1511
905.305176,1551
905.421387,1505
905.537537,1533
905.653687,1504
905.769775,1495
905.885925,1504
906.002014,1507
906.118164,1488
906.234314,1538
906.350403,1512
906.466492,1517
906.582642,1508
906.69873,1521
906.814758,1556
906.930908,1502
907.046936,1510
907.163086,1526
907.279175,1505
907.395264,1483
907.511353,1479
907.62738,1528
907.743408,1479
907.859497,1525
907.975525,1523
908.091553,1485
908.207703,1563
908.32373,1527
908.439758,1530
908.555786,1551
908.671814,1523
908.787842,1507
908.90387,1518
909.019775,1522
909.135864,1553
909.251892,1503
909.367859,1530
909.483826,1534
909.599854,1493
909.715881,1514
909.831848,1526
909.947815,1507
910.063782,1477
910.179749,1512
910.295776,1522
910.411743,1503
910.527649,1504
910.643616,1536
910.759583,1541
910.875488,1519
910.991455,1499
911.107361,1515
911.223267,1558
911.339294,1541
911.4552,1505
911.571106,1545
911.687073,1524
911.802979,1510
911.918823,1481
912.034729,1528
912.150635,1528
912.266602,1497
912.382446,1544
912.498352,1561
912.614197,1513
912.730103,1501
912.846008,1496
792.44574,2189
792.56488,2155
792.68396,2155
792.80304,2193
792.92218,2068
793.041199,2087
793.160339,2049
793.279419,2089
793.398499,2066
793.517578,2119
793.636658,2090
793.755737,2056
793.874817,2112
793.993896,2074
794.112976,2061
794.232056,2038
794.351074,1999
794.470215,2012
794.589233,2051
794.708313,2032
794.827393,1977
794.946411,1988
795.065552,1972
795.18457,1939
795.303589,1979
795.422668,1974
795.541687,1974
795.660767,1981
795.779846,1975
795.898865,1898
796.017883,1946
796.136963,1971
796.255981,1987
796.375061,1934
796.49408,2002
796.613037,1938
796.732117,1967
796.851135,1926
796.970154,1975
797.089233,1879
797.208191,1921
797.327271,1981
797.446228,1990
797.565186,1905
797.684265,1940
797.803223,1910
797.922241,1886
798.04126,1962
798.160278,1818
798.279297,1936
798.398315,1892
798.517273,1907
798.636292,1921
798.75531,1914
798.874268,1954
798.993286,1913
799.112244,1904
799.231323,1940
799.350281,1897
799.469238,1950
799.588257,1933
799.707153,1937
799.826111,1916
799.945129,1934
800.064087,1937
800.183044,1941
800.302063,1935
800.421021,1955
800.539978,1914
800.658936,1920
800.777893,1907
800.896912,1888
801.015747,1946
801.134705,1960
801.253723,1858
801.37262,1907
801.491638,1941
801.610535,1923
801.729492,1914
801.84845,1910
801.967407,1907
802.086243,1941
802.205261,2011
802.324158,1961
802.443115,2017
802.562073,1977
802.680969,2011
802.799927,1998
802.918762,2028
803.037659,2049
803.156677,2033
803.275574,1957
803.39447,2056
803.513428,2025
803.632263,2007
803.751221,1985
803.870117,2036
803.989014,1988
804.107971,2024
804.226746,2028
804.345642,2056
804.4646,2044
804.583496,2088
804.702393,2038
804.821228,2045
804.940125,2059
805.059021,2028
805.177917,2029
805.296814,2014
805.415649,2090
805.534546,2069
805.653442,2035
805.772278,2059
805.891113,2114
806.01001,2068
806.128906,2102
806.247742,2051
806.366577,2120
806.485413,2106
806.604309,2147
806.723145,2113
806.84198,2079
806.960876,2071
807.079712,2069
807.198486,2081
807.317383,2111
807.436218,2128
807.554993,2125
807.673889,2137
807.792725,2110
807.91156,2108
808.030396,2142
808.14917,2106
808.268005,2125
808.386841,2142
808.505676,2111
808.624451,2170
808.743286,2122
808.862122,2149
808.980896,2157
809.099731,2138
809.218506,2147
809.337341,2138
809.456116,2159
809.57489,2109
809.693726,2184
809.8125,2176
809.931274,2170
810.050049,2157
810.168884,2177
810.287659,2182
810.406372,2193
810.525269,2162
810.643982,2216
810.762756,2227
810.881531,2162
811.000305,2159
811.11908,2179
811.237854,2161
811.356567,2193
811.475403,2130
811.594116,2197
811.71283,2163
811.831604,2185
811.950378,2180
812.069153,2190
812.187927,2234
812.30658,2208
812.425415,2202
812.544128,2197
812.662781,2176
812.781616,2171
812.900269,2200
813.019043,2198
813.137756,2188
813.256531,2199
813.375244,2190
813.493896,2200
813.612671,2228
813.731384,2176
813.850037,2177
813.96875,2171
814.087524,2163
814.206238,2156
814.324951,2189
814.443604,2117
814.562256,2187
814.68103,2188
814.799683,2164
814.918335,2147
815.037109,2140
815.155762,2149
815.274475,2119
815.393188,2093
815.511841,2151
815.630554,2076
815.749146,2065
815.867859,2085
815.986572,2069
816.105164,2095
816.223877,2084
816.342529,2116
816.461182,2131
816.579895,2079
816.698486,2120
816.817139,2121
816.935791,2143
817.054504,2169
817.173096,2150
817.291748,2104
817.4104,2080
817.529053,2026
817.647644,2004
817.766235,1958
817.884949,1955
818.00354,1904
818.122192,1883
818.240845,1827
818.359436,1786
818.478088,1774
818.59668,1777
818.715271,1758
818.833923,1713
818.952515,1595
819.071106,1647
819.189758,1652
819.30835,1645
819.426941,1607
819.545532,1610
819.664124,1585
819.782715,1569
819.901306,1613
820.019897,1562
820.138489,1538
820.25708,1579
820.375671,1545
820.494202,1523
820.612732,1527
820.731384,1537
820.849915,1509
820.968506,1509
821.087097,1470
821.205627,1528
821.324158,1488
821.442749,1512
821.561279,1554
821.679871,1480
821.798401,1484
821.916931,1490
822.035461,1523
822.154053,1440
822.272583,1490
822.391174,1481
822.509583,1482
822.628174,1488
822.746704,1492
822.865234,1444
822.983765,1482
823.102295,1461
823.220825,1486
823.339294,1456
823.457825,1460
823.576355,1462
823.694824,1475
823.813354,1482
823.931885,1507
824.050354,1459
824.168884,1504
824.287354,1491
824.405823,1494
824.524353,1514
824.642822,1494
824.761353,1477
824.879822,1489
824.998291,1501
825.116699,1514
825.235291,1489
825.353699,1483
825.472168,1463
825.590637,1481
825.709106,1456
825.827576,1459
825.946045,1453
826.064453,1448
826.182983,1439
826.301392,1417
826.4198,1418
826.53833,1466
826.656738,1408
826.775208,1433
826.893677,1445
827.012024,1385
827.130493,1352
827.248962,1379
827.36731,1388
827.485779,1393
827.604248,1376
827.722595,1364
827.841064,1367
827.959412,1377
828.077942,1337
828.196289,1382
828.314636,1375
828.433105,1354
828.551514,1379
828.669861,1358
828.78833,1346
828.906677,1371
829.025085,1341
829.143433,1436
829.261841,1396
829.38031,1369
829.498657,1346
829.617004,1325
829.735413,1406
829.85376,1375
829.972107,1323
830.090515,1329
830.208862,1382
830.327209,1360
830.445557,1374
830.563904,1397
830.682312,1404
830.800659,1324
830.919006,1372
831.037354,1369
831.155701,1406
831.274048,1389
831.392395,1370
831.51062,1360
831.629028,1324
831.747314,1350
831.865662,1343
831.984009,1350
832.102356,1345
832.220642,1339
832.338928,1352
832.457275,1363
832.575623,1351
832.693909,1376
832.812134,1385
832.930481,1338
833.048828,1359
833.167114,1356
833.2854,1359
833.403687,1356
833.521973,1391
833.640259,1357
833.758545,1359
833.876831,1367
833.995056,1355
834.113281,1373
834.231628,1342
834.349915,1335
834.468201,1401
834.586426,1393
834.704651,1364
834.822998,1328
834.941162,1371
835.059448,1334
835.177673,1359
835.295959,1330
835.414246,1420
835.53241,1339
835.650635,1382
835.768921,1393
835.887146,1383
836.005371,1331
836.123596,1399
836.241821,1383
836.360046,1412
836.478271,1414
836.596497,1430
836.714722,1411
836.832886,1433
836.95105,1429
837.069336,1466
837.1875,1442
837.305725,1411
837.423889,1475
837.542053,1443
837.660339,1438
837.778503,1423
837.896667,1437
838.014832,1470
838.132996,1439
838.25116,1460
838.369385,1439
838.487488,1432
838.605713,1405
838.723877,1451
838.84198,1453
838.960205,1422
839.078308,1438
839.196472,1433
839.314636,1408
839.4328,1429
839.550964,1435
839.669067,1401
839.787231,1437
839.905396,1393
840.023499,1416
840.141602,1410
840.259766,1396
840.377869,1434
840.495972,1416
840.614136,1400
840.732239,1406
840.850342,1396
840.968445,1372
841.086548,1390
841.204651,1377
841.322754,1364
841.440918,1376
841.55896,1397
841.677002,1387
841.795166,1357
841.913208,1373
842.031311,1376
842.149353,1337
842.267456,1345
842.385498,1340
842.503601,1366
842.621643,1307
842.739746,1354
842.857788,1338
842.97583,1361
843.093933,1328
843.211975,1318
843.330017,1295
843.44812,1298
843.566101,1336
843.684204,1354
843.802246,1303
843.920227,1366
844.038269,1317
844.156311,1346
844.274292,1327
844.392395,1349
844.510376,1340
844.628357,1321
844.74646,1336
844.864441,1332
844.982422,1335
845.100403,1357
845.218384,1341
845.336426,1347
845.454468,1344
845.572449,1318
845.69043,1321
845.808411,1303
845.926453,1342
846.044373,1345
846.162354,1343
846.280396,1320
846.398315,1329
846.516296,1356
846.634216,1338
846.752197,1324
846.870178,1360
846.988098,1327
847.106079,1372
847.22406,1344
847.34198,1312
847.4599,1309
847.577881,1316
847.695801,1351
847.813782,1336
847.931641,1344
848.049561,1307
848.167603,1363
848.285461,1357
848.403381,1319
848.521362,1348
848.639221,1274
848.75708,1325
848.875,1333
848.99292,1325
849.110901,1327
849.22876,1319
849.34668,1324
849.464539,1378
849.582458,1342
849.700317,1351
849.818176,1375
849.936096,1319
850.053955,1363
850.171875,1373
850.289673,1315
850.407593,1335
850.525452,1345
850.643311,1360
850.761169,1287
850.878967,1343
850.996887,1329
851.114746,1338
851.232544,1334
851.350403,1331
851.468262,1345
851.58606,1374
851.703979,1346
851.821777,1353
851.939636,1344
852.057434,1357
852.175232,1363
852.293091,1341
852.410889,1310
852.528687,1320
852.646545,1339
852.764343,1325
852.88208,1387
852.999939,1353
853.117676,1341
853.235535,1321
853.353271,1366
853.471069,1339
853.588928,1361
853.706604,1366
853.824402,1352
853.9422,1347
854.059998,1337
854.177734,1349
854.295532,1384
854.413269,1382
854.531006,1392
854.648804,1376
854.766541,1377
854.884277,1345
855.002014,1374
855.119751,1412
855.237549,1382
855.355225,1375
855.473022,1365
855.590698,1373
855.708435,1380
855.826172,1346
855.943848,1382
856.061646,1440
856.179321,1367
856.296997,1402
856.414795,1399
856.53241,1389
856.650085,1371
856.767822,1381
856.885559,1377
857.003174,1390
857.120911,1391
857.238586,1374
857.356201,1381
857.473938,1383
857.591614,1388
857.709351,1417
857.826965,1371
857.944641,1401
858.062317,1351
858.179993,1374
858.297668,1380
858.415283,1342
858.532959,1369
858.650574,1372
858.768188,1363
858.885803,1333
859.003479,1414
859.121094,1385
859.23877,1416
859.356384,1393
859.473999,1353
859.591675,1355
859.709229,1382
859.826843,1377
859.944458,1382
860.062012,1383
860.179626,1352
860.297302,1353
860.414856,1368
860.532471,1383
860.650024,1349
860.767639,1406
860.885193,1347
861.002808,1363
861.120361,1353
861.237976,1375
861.35553,1359
861.473022,1371
861.590698,1356
861.708191,1360
861.825745,1310
861.943298,1373
862.060852,1356
862.178406,1374
862.295959,1354
862.413513,1377
862.531006,1363
862.64856,1390
862.766113,1378
862.883667,1351
863.00116,1425
863.118713,1367
863.236206,1377
863.353699,1326
863.471252,1396
863.588745,1371
863.706177,1388
863.82373,1350
863.941162,1363
864.058716,1398
864.176208,1386
864.29364,1387
864.411194,1382
864.528687,1449
864.646118,1387
864.763611,1384
864.881042,1384
864.998535,1388
865.116028,1386
865.233459,1379
865.350891,1385
865.468384,1370
865.585754,1367
865.703308,1408
865.820679,1347
865.938171,1375
866.055542,1374
866.173035,1401
866.290466,1403
866.407837,1374
866.52533,1369
866.6427,1381
866.760071,1418
866.877563,1399
866.994934,1394
867.112305,1370
867.229736,1388
867.347107,1386
867.464539,1407
867.58197,1409
867.699341,1395
867.81665,1383
867.934082,1433
868.051453,1389
868.168823,1417
868.286194,1353
868.403564,1424
868.520935,1399
868.638306,1426
868.755676,1368
868.872986,1417
868.990295,1383
869.107727,1400
869.225037,1412
869.342346,1414
869.459717,1405
869.577026,1411
869.694336,1399
869.811707,1425
869.929016,1395
870.046326,1420
870.163635,1428
870.280945,1357
870.398254,1383
870.515564,1405
870.632812,1370
870.750183,1467
870.867432,1416
870.984741,1369
871.102051,1377
871.219299,1399
871.336609,1408
871.453918,1423
871.571106,1378
871.688416,1397
871.805664,1418
871.922852,1376
872.040222,1370
872.157471,1365
872.274719,1375
872.391968,1398
872.509155,1385
872.626465,1363
872.743652,1412
872.860962,1349
872.978149,1385
873.095337,1392
873.212646,1417
873.329834,1390
873.44696,1399
873.564209,1397
873.681396,1368
873.798645,1406
873.915894,1453
874.03302,1391
874.150208,1367
874.267456,1410
874.384583,1380
874.501831,1384
874.618958,1403
874.736145,1392
874.853333,1411
874.970459,1441
875.087646,1353
875.204834,1373
875.32196,1405
875.439148,1395
875.556274,1386
875.673401,1414
875.790527,1361
875.907715,1402
876.024841,1427
876.141968,1422
876.259094,1380
876.376282,1420
876.493347,1409
876.610474,1435
876.7276,1443
876.844727,1398
876.961853,1408
877.078918,1399
877.195984,1447
877.313171,1368
877.430237,1463
877.547302,1417
877.664368,1406
877.781433,1396
877.898499,1441
878.015625,1416
878.13269,1388
878.249695,1437
878.366821,1350
878.483887,1394
878.600952,1417
878.717957,1399
878.834961,1420
878.952087,1402
879.069092,1425
879.186157,1458
879.303162,1432
879.420227,1426
879.537231,1419
879.654236,1429
879.77124,1429
879.888306,1407
880.005249,1450
880.122314,1429
880.239319,1428
880.356323,1400
880.473328,1459
880.590271,1419
880.707275,1447
880.824341,1384
880.941284,1417
881.058228,1415
881.175232,1444
881.292236,1406
881.40918,1427
881.526123,1397
881.643066,1398
881.760071,1439
881.877014,1442
881.993958,1376
882.11084,1416
882.227783,1404
882.344727,1397
882.46167,1431
882.578613,1459
882.695618,1429
882.812439,1433
882.929382,1472
883.046326,1438
883.163208,1455
883.280151,1447
883.397034,1402
883.513916,1447
883.630798,1495
883.747742,1416
883.864563,1449
883.981506,1431
884.098389,1445
884.21521,1410
884.332153,1454
884.448975,1425
884.565796,1420
884.682678,1415
884.7995,1461
884.916443,1401
885.033264,1442
885.150085,1451
885.266968,1449
885.383789,1453
885.500671,1452
885.617493,1414
885.734314,1426
885.851196,1444
885.967896,1436
886.084717,1457
886.201599,1463
886.318359,1480
886.435181,1431
886.552002,1398
886.668762,1466
886.785645,1398
886.902344,1425
887.019165,1442
887.135925,1458
887.252747,1453
887.369446,1426
887.486267,1460
887.603027,1464
887.719788,1468
887.836548,1450
887.953247,1437
888.070068,1474
888.186829,1454
888.303528,1465
888.420288,1466
888.536987,1499
888.653687,1422
888.770447,1463
888.887146,1459
889.003967,1454
889.120667,1453
889.237305,1431
889.354065,1500
889.470703,1475
889.587463,1456
889.704163,1480
889.820862,1462
889.937561,1468
890.054199,1466
890.170837,1491
890.287598,1480
890.404236,1482
890.520874,1452
890.637634,1457
890.754211,1492
890.87085,1465
890.987549,1457
891.104187,1455
891.220886,1431
891.337463,1492
891.454102,1491
891.57074,1494
891.687378,1479
891.804077,1541
891.920654,1496
892.037231,1488
892.15387,1479
892.270447,1487
892.387085,1485
892.503723,1506
892.6203,1568
892.736877,1484
892.853516,1458
892.970032,1520
893.08667,1500
893.203186,1509
893.319763,1518
893.43634,1508
893.552917,1490
893.669556,1507
893.786011,1477
893.902588,1474
894.019165,1438
894.135681,1502
894.252197,1463
894.368835,1486
894.485291,1491
894.601868,1502
894.718384,1514
894.8349,1497
894.951355,1507
895.067932,1491
895.184448,1488
895.300964,1512
895.417419,1500
895.533936,1501
895.650452,1459
895.766907,1512
895.883423,1546
895.999878,1503
896.116333,1517
896.232849,1482
896.349304,1481
896.465759,1504
896.582214,1484
896.698669,1549
896.815125,1453
896.931641,1483
897.048035,1501
897.164551,1556
897.280884,1512
897.397339,1486
897.513794,1505
897.630249,1491
897.746582,1492
897.863098,1478
897.979431,1490
898.095886,1558
898.212341,1459
898.328674,1512
898.445129,1511
898.561462,1513
898.677795,1453
898.794312,1537
898.910645,1480
899.026978,1481
899.143433,1533
899.259766,1506
899.37616,1486
899.492493,1469
899.608765,1519
899.725159,1526
899.841553,1489
899.957947,1537
900.07428,1493
900.190552,1534
900.306946,1523
900.423157,1544
900.53949,1519
900.655884,1485
900.772156,1541
900.888489,1546
901.004822,1556
901.121033,1498
901.237366,1501
901.353699,1530
901.46991,1539
901.586304,1513
901.702515,1508
901.818787,1494
901.93512,1512
902.051331,1534
902.167603,1500
902.283875,1545
902.400085,1517
902.516418,1492
902.632629,1539
902.74884,1556
902.865112,1518
902.981384,1516
903.097595,1511
903.213867,1504
903.330017,1499
903.446289,1524
903.5625,1490
903.67865,1527
903.794922,1520
903.911072,1534
904.027344,1523
904.143494,1517
904.259705,1551
904.375916,1542
904.492065,1515
904.608215,1580
904.724426,1581
904.840576,1540
904.956726,1537
905.072876,1548
905.189087,1528
905.305176,1523
905.421387,1543
905.537537,1546
905.653687,1552
905.769775,1534
905.885925,1543
906.002014,1574
906.118164,1473
906.234314,1540
906.350403,1549
906.466492,1547
906.582642,1563
906.69873,1537
906.814758,1555
906.930908,1523
907.046936,1557
907.163086,1563
907.279175,1507
907.395264,1536
907.511353,1559
907.62738,1528
907.743408,1533
907.859497,1571
907.975525,1531
908.091553,1575
908.207703,1551
908.32373,1537
908.439758,1555
908.555786,1568
908.671814,1537
908.787842,1540
908.90387,1562
909.019775,1532
909.135864,1576
909.251892,1565
909.367859,1554
909.483826,1581
909.599854,1574
909.715881,1539
909.831848,1595
909.947815,1570
910.063782,1526
910.179749,1555
910.295776,1583
910.411743,1543
910.527649,1584
910.643616,1560
910.759583,1579
910.875488,1553
910.991455,1548
911.107361,1552
911.223267,1526
911.339294,1578
911.4552,1575
911.571106,1571
911.687073,1562
911.802979,1564
911.918823,1572
912.034729,1566
912.150635,1563
912.266602,1547
912.382446,1550
912.498352,1546
912.614197,1557
912.730103,1560
912.846008,1543
792.44574,2176
792.56488,2156
792.68396,2181
792.80304,2136
792.92218,2106
793.041199,2122
793.160339,2137
793.279419,2087
793.398499,2101
793.517578,2135
793.636658,4260
793.755737,2065
793.874817,2116
793.993896,2159
794.112976,2039
794.232056,1986
794.351074,2057
794.470215,2042
794.589233,1986
794.708313,2019
794.827393,2009
794.946411,1977
795.065552,1988
795.18457,1928
795.303589,1994
795.422668,1991
795.541687,1995
795.660767,1984
795.779846,1998
795.898865,2000
796.017883,1991
796.136963,1981
796.255981,1976
796.375061,1958
796.49408,1950
796.613037,1896
796.732117,1946
796.851135,1940
796.970154,1952
797.089233,1937
797.208191,1897
797.327271,1957
797.446228,1934
797.565186,1962
797.684265,1942
797.803223,1933
797.922241,1975
798.04126,1942
798.160278,1955
798.279297,1960
798.398315,1930
798.517273,1971
798.636292,1901
798.75531,1948
798.874268,1946
798.993286,1915
799.112244,1928
799.231323,1909
799.350281,1928
799.469238,1945
799.588257,1930
799.707153,1948
799.826111,1906
799.945129,1936
800.064087,1971
800.183044,5647
800.302063,1802
800.421021,1972
800.539978,1942
800.658936,1920
800.777893,3907
800.896912,1900
801.015747,1907
801.134705,1979
801.253723,1966
801.37262,1944
801.491638,1924
801.610535,1989
801.729492,1945
801.84845,1969
801.967407,1953
802.086243,2070
802.205261,1931
802.324158,1961
802.443115,1993
802.562073,1996
802.680969,2000
802.799927,2025
802.918762,2003
803.037659,2022
803.156677,2015
803.275574,1979
803.39447,2000
803.513428,1991
803.632263,2021
803.751221,2025
803.870117,1979
803.989014,2063
804.107971,2067
804.226746,2074
804.345642,2036
804.4646,2012
804.583496,2064
804.702393,2057
804.821228,2070
804.940125,2055
805.059021,2085
805.177917,2080
805.296814,2094
805.415649,2008
805.534546,2041
805.653442,2066
805.772278,2085
805.891113,2096
806.01001,2066
806.128906,2112
806.247742,2109
806.366577,2062
806.485413,2090
806.604309,2111
806.723145,2128
806.84198,2152
806.960876,2078
807.079712,2135
807.198486,2110
807.317383,2096
807.436218,2074
807.554993,2106
807.673889,2100
807.792725,2117
807.91156,2124
808.030396,2138
808.14917,2118
808.268005,2161
808.386841,2182
808.505676,2132
808.624451,2148
808.743286,2186
808.862122,2158
808.980896,2177
809.099731,2145
809.218506,2190
809.337341,2161
809.456116,2175
809.57489,2167
809.693726,2194
809.8125,2174
809.931274,2165
810.050049,2181
810.168884,2165
810.287659,2194
810.406372,2224
810.525269,2190
810.643982,2160
810.762756,2224
810.881531,2201
811.000305,2180
811.11908,2204
811.237854,2190
811.356567,2178
811.475403,2152
811.594116,2172
811.71283,2219
811.831604,2167
811.950378,2242
812.069153,2205
812.187927,2243
812.30658,2148
812.425415,2196
812.544128,2181
812.662781,2196
812.781616,2205
812.900269,2225
813.019043,2147
813.137756,2190
813.256531,2164
813.375244,2200
813.493896,2231
813.612671,2198
813.731384,2176
813.850037,2236
813.96875,2210
814.087524,2160
814.206238,2230
814.324951,2134
814.443604,2164
814.562256,2153
814.68103,2165
814.799683,2205
814.918335,2148
815.037109,2151
815.155762,2156
815.274475,2161
815.393188,2146
815.511841,2158
815.630554,2116
815.749146,2104
815.867859,2091
815.986572,2097
816.105164,2078
816.223877,2041
816.342529,2061
816.461182,2131
816.579895,2099
816.698486,2103
816.817139,2164
816.935791,2117
817.054504,2093
817.173096,2076
817.291748,2108
817.4104,2117
817.529053,2084
817.647644,1986
817.766235,1953
817.884949,1936
818.00354,1914
818.122192,1829
818.240845,1859
818.359436,1785
818.478088,1805
818.59668,1729
818.715271,1722
818.833923,1678
818.952515,1667
819.071106,1667
819.189758,1683
819.30835,1646
819.426941,1602
819.545532,1638
819.664124,1607
819.782715,1626
819.901306,1590
820.019897,1588
820.138489,1558
820.25708,1530
820.375671,1579
820.494202,1529
820.612732,1536
820.731384,1545
820.849915,1499
820.968506,1508
821.087097,1541
821.205627,1504
821.324158,1538
821.442749,1506
821.561279,1484
821.679871,1503
821.798401,1502
821.916931,1485
822.035461,1527
822.154053,1511
822.272583,1462
822.391174,1500
822.509583,1521
822.628174,1467
822.746704,1480
822.865234,1481
822.983765,1480
823.102295,1484
823.220825,1445
823.339294,1465
823.457825,1505
823.576355,1483
823.694824,1475
823.813354,1460
823.931885,1479
824.050354,1473
824.168884,1500
824.287354,1495
824.405823,1506
824.524353,1500
824.642822,1515
824.761353,1524
824.879822,1489
824.998291,1459
825.116699,1464
825.235291,1445
825.353699,1451
825.472168,1534
825.590637,1428
825.709106,1482
825.827576,1476
825.946045,1437
826.064453,1418
826.182983,1466
826.301392,1415
826.4198,1409
826.53833,1439
826.656738,1415
826.775208,1428
826.893677,1437
827.012024,1411
827.130493,1427
827.248962,1405
827.36731,1395
827.485779,1399
827.604248,1432
827.722595,1405
827.841064,1343
827.959412,1407
828.077942,1426
828.196289,1380
828.314636,1390
828.433105,1366
828.551514,1400
828.669861,1348
828.78833,1333
828.906677,1412
829.025085,1387
829.143433,1403
829.261841,1364
829.38031,1374
829.498657,1379
829.617004,1375
829.735413,1395
829.85376,1433
829.972107,1347
830.090515,1391
830.208862,1385
830.327209,1380
830.445557,1392
830.563904,1347
830.682312,1385
830.800659,1365
830.919006,1341
831.037354,1371
831.155701,1366
831.274048,1432
831.392395,1352
831.51062,1354
831.629028,1347
831.747314,1366
831.865662,1375
831.984009,1358
832.102356,1376
832.220642,1377
832.338928,1367
832.457275,1379
832.575623,1343
832.693909,1394
832.812134,1368
832.930481,1386
833.048828,1398
833.167114,1362
833.2854,1360
833.403687,1363
833.521973,1370
833.640259,1404
833.758545,1378
833.876831,1342
833.995056,1321
834.113281,1392
834.231628,1380
834.349915,1351
834.468201,1341
834.586426,1382
834.704651,1381
834.822998,1374
834.941162,1404
835.059448,1399
835.177673,1377
835.295959,1353
835.414246,1419
835.53241,1382
835.650635,1404
835.768921,1423
835.887146,1385
836.005371,1425
836.123596,1436
836.241821,1387
836.360046,1384
836.478271,1434
836.596497,1469
836.714722,1478
836.832886,1457
836.95105,1472
837.069336,1447
837.1875,1471
837.305725,1449
837.423889,1446
837.542053,1496
837.660339,1455
837.778503,1467
837.896667,1423
838.014832,1447
838.132996,1447
838.25116,1464
838.369385,1457
838.487488,1490
838.605713,1466
838.723877,1424
838.84198,1463
838.960205,1433
839.078308,1412
839.196472,1453
839.314636,1462
839.4328,1442
839.550964,1467
839.669067,1447
839.787231,1427
839.905396,1403
840.023499,1438
840.141602,1419
840.259766,1443
840.377869,1393
840.495972,1441
840.614136,1389
840.732239,1383
840.850342,1387
840.968445,1419
841.086548,1419
841.204651,1375
841.322754,1433
841.440918,1379
841.55896,1363
841.677002,1396
841.795166,1409
841.913208,1385
842.031311,1396
842.149353,1341
842.267456,1389
842.385498,1370
842.503601,1376
842.621643,1343
842.739746,1372
842.857788,1364
842.97583,1355
843.093933,1369
843.211975,1343
843.330017,1327
843.44812,1339
843.566101,1328
843.684204,1335
843.802246,1360
843.920227,1395
844.038269,1351
844.156311,1371
844.274292,1375
844.392395,1334
844.510376,1339
844.628357,1381
844.74646,1342
844.864441,1349
844.982422,1340
845.100403,1336
845.218384,1335
845.336426,1345
845.454468,1357
845.572449,1358
845.69043,1337
845.808411,1296
845.926453,1369
846.044373,1379
846.162354,1321
846.280396,1339
846.398315,1324
846.516296,1370
846.634216,1354
846.752197,1359
846.870178,1325
846.988098,1351
847.106079,1355
847.22406,1307
847.34198,1329
847.4599,1327
847.577881,1328
847.695801,1351
847.813782,1344
847.931641,1335
848.049561,1387
848.167603,1338
848.285461,1348
848.403381,1356
848.521362,1334
848.639221,1331
848.75708,1308
848.875,1359
848.99292,1327
849.110901,1339
849.22876,1322
849.34668,1335
849.464539,1374
849.582458,1314
849.700317,1375
849.818176,1344
849.936096,1336
850.053955,1390
850.171875,1342
850.289673,1331
850.407593,1307
850.525452,1347
850.643311,1305
850.761169,1369
850.878967,1338
850.996887,1368
851.114746,1364
851.232544,1364
851.350403,1315
851.468262,1348
851.58606,1394
851.703979,1377
851.821777,1363
851.939636,1379
852.057434,1314
852.175232,1354
852.293091,1332
852.410889,1357
852.528687,1315
852.646545,1373
852.764343,1389
852.88208,1384
852.999939,1364
853.117676,1365
853.235535,1353
853.353271,1353
853.471069,1368
853.588928,1347
853.706604,1360
853.824402,1381
853.9422,1401
854.059998,1356
854.177734,1364
854.295532,1355
854.413269,1360
854.531006,1352
854.648804,1366
854.766541,1369
854.884277,1422
855.002014,1359
855.119751,1371
855.237549,1356
855.355225,1356
855.473022,1377
855.590698,1342
855.708435,1398
855.826172,1359
855.943848,1381
856.061646,1370
856.179321,1382
856.296997,1380
856.414795,1377
856.53241,1415
856.650085,1390
856.767822,1343
856.885559,1415
857.003174,1367
857.120911,1384
857.238586,1383
857.356201,1438
857.473938,1357
857.591614,1428
857.709351,1388
857.826965,1441
857.944641,1386
858.062317,1376
858.179993,1379
858.297668,1423
858.415283,1359
858.532959,1389
858.650574,1338
858.768188,1383
858.885803,1333
859.003479,1389
859.121094,1377
859.23877,1375
859.356384,1385
859.473999,1363
859.591675,1376
859.709229,1398
859.826843,1391
859.944458,1337
860.062012,1394
860.179626,1369
860.297302,1374
860.414856,1396
860.532471,1356
860.650024,1369
860.767639,1378
860.885193,1383
861.002808,1368
861.120361,1397
861.237976,1377
861.35553,1383
861.473022,1406
861.590698,1410
861.708191,1374
861.825745,1376
861.943298,1366
862.060852,1396
862.178406,1394
862.295959,1401
862.413513,1393
862.531006,1400
862.64856,1416
862.766113,1398
862.883667,1351
863.00116,1378
863.118713,1392
863.236206,1376
863.353699,1389
863.471252,1392
863.588745,1390
863.706177,1384
863.82373,1358
863.941162,1371
864.058716,1370
864.176208,1344
864.29364,1390
864.411194,1361
864.528687,1392
864.646118,1433
864.763611,1393
864.881042,1357
864.998535,1445
865.116028,1407
865.233459,1400
865.350891,1364
865.468384,1424
865.585754,1412
865.703308,1407
865.820679,1449
865.938171,1446
866.055542,1372
866.173035,1386
866.290466,1408
866.407837,1390
866.52533,1410
866.6427,1410
866.760071,1400
866.877563,1398
866.994934,1427
867.112305,1412
867.229736,1422
867.347107,1421
867.464539,1440
867.58197,1381
867.699341,1370
867.81665,1420
867.934082,1372
868.051453,1393
868.168823,1439
868.286194,1386
868.403564,1424
868.520935,1407
868.638306,1400
868.755676,1415
868.872986,1379
868.990295,1397
869.107727,1425
869.225037,1386
869.342346,1417
869.459717,1381
869.577026,1399
869.694336,1452
869.811707,1374
869.929016,1401
870.046326,1427
870.163635,1441
870.280945,1439
870.398254,1425
870.515564,1416
870.632812,1387
870.750183,1451
870.867432,1410
870.984741,1397
871.102051,1404
871.219299,1383
871.336609,1437
871.453918,1397
871.571106,1405
871.688416,1420
871.805664,1406
871.922852,1439
872.040222,1397
872.157471,1400
872.274719,1405
872.391968,1416
872.509155,1402
872.626465,1385
872.743652,1443
872.860962,1408
872.978149,1409
873.095337,1400
873.212646,1425
873.329834,1356
873.44696,1451
873.564209,1413
873.681396,1428
873.798645,1424
873.915894,1425
874.03302,1353
874.150208,1404
874.267456,1426
874.384583,1375
874.501831,1409
874.618958,1388
874.736145,1394
874.853333,1447
874.970459,1436
875.087646,1417
875.204834,1387
875.32196,1404
875.439148,1444
875.556274,1417
875.673401,1457
875.790527,1405
875.907715,1405
876.024841,1378
876.141968,1445
876.259094,1400
876.376282,1448
876.493347,1446
876.610474,1404
876.7276,1444
876.844727,1413
876.961853,1459
877.078918,1405
877.195984,1407
877.313171,1450
877.430237,1396
877.547302,1444
877.664368,1437
877.781433,1412
877.898499,1475
878.015625,1435
878.13269,1395
878.249695,1420
878.366821,1468
878.483887,1443
878.600952,1423
878.717957,1434
878.834961,1439
878.952087,1450
879.069092,1396
879.186157,1427
879.303162,1416
879.420227,1393
879.537231,1453
879.654236,1448
879.77124,1418
879.888306,1447
880.005249,1434
880.122314,1434
880.239319,1415
880.356323,1419
880.473328,1434
880.590271,1413
880.707275,1413
880.824341,1442
880.941284,1397
881.058228,1398
881.175232,1399
881.292236,1409
881.40918,1416
881.526123,1404
881.643066,1432
881.760071,1436
881.877014,1459
881.993958,1449
882.11084,1415
882.227783,1417
882.344727,1415
882.46167,1431
882.578613,1439
882.695618,1434
882.812439,1469
882.929382,1452
883.046326,1444
883.163208,1455
883.280151,1466
883.397034,1456
883.513916,1451
883.630798,1492
883.747742,1451
883.864563,1469
883.981506,1408
884.098389,1432
884.21521,1491
884.332153,1456
884.448975,1515
884.565796,1471
884.682678,1447
884.7995,1428
884.916443,1456
885.033264,1447
885.150085,1474
885.266968,1436
885.383789,1442
885.500671,1476
885.617493,1436
885.734314,1495
885.851196,1455
885.967896,1466
886.084717,1456
886.201599,1484
886.318359,1524
886.435181,1489
886.552002,1461
886.668762,1474
886.785645,1464
886.902344,1473
887.019165,1414
887.135925,1455
887.252747,1512
887.369446,1471
887.486267,1479
887.603027,1468
887.719788,1452
887.836548,1474
887.953247,1444
888.070068,1476
888.186829,1429
888.303528,1473
888.420288,1474
888.536987,1422
888.653687,1486
888.770447,1447
888.887146,1436
889.003967,1524
889.120667,1503
889.237305,1483
889.354065,1483
889.470703,1455
889.587463,1471
889.704163,1483
889.820862,1473
889.937561,1511
890.054199,1509
890.170837,1487
890.287598,1505
890.404236,1450
890.520874,1519
890.637634,1447
890.754211,1468
890.87085,1439
890.987549,1491
891.104187,1505
891.220886,1510
891.337463,1484
891.454102,1512
891.57074,1487
891.687378,1525
891.804077,1436
891.920654,1513
892.037231,1472
892.15387,1505
892.270447,1451
892.387085,1493
892.503723,1476
892.6203,1478
892.736877,1551
892.853516,1514
892.970032,1530
893.08667,1439
893.203186,1487
893.319763,1488
893.43634,1454
893.552917,1492
893.669556,1522
893.786011,1549
893.902588,1487
894.019165,1479
894.135681,1480
894.252197,1503
894.368835,1518
894.485291,1493
894.601868,1509
894.718384,1540
894.8349,1491
894.951355,1516
895.067932,1495
895.184448,1528
895.300964,1549
895.417419,1523
895.533936,1527
895.650452,1517
895.766907,1545
895.883423,1491
895.999878,1501
896.116333,1511
896.232849,1515
896.349304,1501
896.465759,1491
896.582214,1501
896.698669,1521
896.815125,1521
896.931641,1484
897.048035,1561
897.164551,1542
897.280884,1557
897.397339,1548
897.513794,1506
897.630249,1524
897.746582,1514
897.863098,1559
897.979431,1524
898.095886,1517
898.212341,1541
898.328674,1495
898.445129,1495
898.561462,1534
898.677795,1533
898.794312,1527
898.910645,1535
899.026978,1538
899.143433,1498
899.259766,1506
899.37616,1486
899.492493,1543
899.608765,1554
899.725159,1538
899.841553,1553
899.957947,1531
900.07428,1541
900.190552,1546
900.306946,1547
900.423157,1532
900.53949,1586
900.655884,1524
900.772156,1558
900.888489,1482
901.004822,1494
901.121033,1551
901.237366,1536
901.353699,1526
901.46991,1514
901.586304,1505
901.702515,1492
901.818787,1536
901.93512,1515
902.051331,1553
902.167603,1510
902.283875,1516
902.400085,1490
902.516418,1532
902.632629,1564
902.74884,1539
902.865112,1532
902.981384,1570
903.097595,1562
903.213867,1512
903.330017,1561
903.446289,1525
903.5625,1531
903.67865,1551
903.794922,1517
903.911072,1544
904.027344,1538
904.143494,1561
904.259705,1563
904.375916,1569
904.492065,1525
904.608215,1544
904.724426,1548
904.840576,1541
904.956726,1539
905.072876,1589
905.189087,1523
905.305176,1575
905.421387,1569
905.537537,1554
905.653687,1545
905.769775,1566
905.885925,1567
906.002014,1564
906.118164,1538
906.234314,1593
906.350403,1521
906.466492,1587
906.582642,1508
906.69873,1547
906.814758,1564
906.930908,1573
907.046936,1587
907.163086,1605
907.279175,1565
907.395264,1589
907.511353,1575
907.62738,1531
907.743408,1527
907.859497,1543
907.975525,1573
908.091553,1543
908.207703,1556
908.32373,1534
908.439758,1573
908.555786,1573
908.671814,1585
908.787842,1583
908.90387,1602
909.019775,1582
909.135864,1553
909.251892,1566
909.367859,1528
909.483826,1533
909.599854,1555
909.715881,1560
909.831848,1533
909.947815,1551
910.063782,1543
910.179749,1576
910.295776,1591
910.411743,1577
910.527649,1543
910.643616,1555
910.759583,1535
910.875488,1608
910.991455,1596
911.107361,1583
911.223267,1581
911.339294,1572
911.4552,1589
911.571106,1592
911.687073,1544
911.802979,1572
911.918823,1538
912.034729,1531
912.150635,1573
912.266602,1538
912.382446,1597
912.498352,1546
912.614197,1609
912.730103,1563
912.846008,1586
