792.44574,1622
792.56488,1631
792.68396,1639
792.80304,1599
792.92218,1559
793.041199,1620
793.160339,1563
793.279419,1612
793.398499,1585
793.517578,1525
793.636658,1543
793.755737,1522
793.874817,1564
793.993896,1508
794.112976,1517
794.232056,1510
794.351074,1543
794.470215,1537
794.589233,1489
794.708313,1514
794.827393,1462
794.946411,1512
795.065552,1520
795.18457,1492
795.303589,1492
795.422668,1543
795.541687,1512
795.660767,1510
795.779846,1476
795.898865,1528
796.017883,1443
796.136963,1451
796.255981,1496
796.375061,1493
796.49408,1467
796.613037,1441
796.732117,1483
796.851135,1452
796.970154,1459
797.089233,1454
797.208191,1495
797.327271,1486
797.446228,1425
797.565186,1458
797.684265,1492
797.803223,1445
797.922241,1449
798.04126,1444
798.160278,1451
798.279297,1430
798.398315,1432
798.517273,1456
798.636292,1431
798.75531,1467
798.874268,1488
798.993286,1462
799.112244,1480
799.231323,1456
799.350281,1429
799.469238,1479
799.588257,1445
799.707153,1443
799.826111,1472
799.945129,1445
800.064087,1439
800.183044,1424
800.302063,1436
800.421021,1453
800.539978,1437
800.658936,1471
800.777893,1445
800.896912,1459
801.015747,1489
801.134705,1401
801.253723,1444
801.37262,1392
801.491638,1433
801.610535,1400
801.729492,1472
801.84845,1454
801.967407,1440
802.086243,1425
802.205261,1404
802.324158,1439
802.443115,1499
802.562073,1428
802.680969,1442
802.799927,1457
802.918762,1427
803.037659,1410
803.156677,1428
803.275574,1406
803.39447,1446
803.513428,1414
803.632263,1382
803.751221,1406
803.870117,1445
803.989014,1438
804.107971,1419
804.226746,1433
804.345642,1444
804.4646,1416
804.583496,1432
804.702393,1453
804.821228,1432
804.940125,1440
805.059021,1414
805.177917,1466
805.296814,1425
805.415649,1435
805.534546,1414
805.653442,1414
805.772278,1417
805.891113,1461
806.01001,1429
806.128906,1441
806.247742,1441
806.366577,1396
806.485413,1458
806.604309,1441
806.723145,1463
806.84198,1410
806.960876,1405
807.079712,1376
807.198486,1474
807.317383,1435
807.436218,1434
807.554993,1443
807.673889,1411
807.792725,1410
807.91156,1401
808.030396,1408
808.14917,1430
808.268005,1420
808.386841,1414
808.505676,1402
808.624451,1388
808.743286,1418
808.862122,1427
808.980896,1404
809.099731,1418
809.218506,1416
809.337341,1417
809.456116,1446
809.57489,1457
809.693726,1455
809.8125,1422
809.931274,1470
810.050049,1478
810.168884,1392
810.287659,1403
810.406372,1435
810.525269,1457
810.643982,1410
810.762756,1449
810.881531,1366
811.000305,1428
811.11908,1388
811.237854,1425
811.356567,1433
811.475403,1453
811.594116,1417
811.71283,1441
811.831604,1421
811.950378,1393
812.069153,1428
812.187927,1384
812.30658,1428
812.425415,1411
812.544128,1404
812.662781,1427
812.781616,1435
812.900269,1415
813.019043,1420
813.137756,1390
813.256531,1436
813.375244,1375
813.493896,1386
813.612671,1377
813.731384,1390
813.850037,1377
813.96875,1415
814.087524,1434
814.206238,1381
814.324951,1404
814.443604,1388
814.562256,1402
814.68103,1371
814.799683,1413
814.918335,1394
815.037109,1402
815.155762,1408
815.274475,1367
815.393188,1389
815.511841,1334
815.630554,1393
815.749146,1363
815.867859,1380
815.986572,1384
816.105164,1357
816.223877,1370
816.342529,1373
816.461182,1358
816.579895,1410
816.698486,1374
816.817139,1368
816.935791,1389
817.054504,1379
817.173096,1352
817.291748,1358
817.4104,1347
817.529053,1381
817.647644,1372
817.766235,1359
817.884949,1396
818.00354,1352
818.122192,1387
818.240845,1370
818.359436,1340
818.478088,1361
818.59668,1350
818.715271,1330
818.833923,1364
818.952515,1309
819.071106,1344
819.189758,1310
819.30835,1340
819.426941,1351
819.545532,1353
819.664124,1373
819.782715,1381
819.901306,1344
820.019897,1331
820.138489,1333
820.25708,1350
820.375671,1320
820.494202,1342
820.612732,1340
820.731384,1327
820.849915,1344
820.968506,1333
821.087097,1348
821.205627,1346
821.324158,1319
821.442749,1310
821.561279,1312
821.679871,1299
821.798401,1356
821.916931,1363
822.035461,1323
822.154053,1324
822.272583,1370
822.391174,1368
822.509583,1332
822.628174,1296
822.746704,1312
822.865234,1301
822.983765,1285
823.102295,1285
823.220825,1319
823.339294,1297
823.457825,1274
823.576355,1311
823.694824,1314
823.813354,1344
823.931885,1320
824.050354,1301
824.168884,1319
824.287354,1277
824.405823,1290
824.524353,1349
824.642822,1305
824.761353,1290
824.879822,1280
824.998291,1299
825.116699,1323
825.235291,1324
825.353699,1323
825.472168,1273
825.590637,1313
825.709106,1310
825.827576,1326
825.946045,1320
826.064453,1283
826.182983,1309
826.301392,1306
826.4198,1291
826.53833,1304
826.656738,1305
826.775208,1283
826.893677,1278
827.012024,1298
827.130493,1291
827.248962,1294
827.36731,1331
827.485779,1298
827.604248,1247
827.722595,1291
827.841064,1248
827.959412,1306
828.077942,1309
828.196289,1271
828.314636,1260
828.433105,1335
828.551514,1245
828.669861,1303
828.78833,1279
828.906677,1272
829.025085,1284
829.143433,1249
829.261841,1285
829.38031,1286
829.498657,1208
829.617004,1299
829.735413,1245
829.85376,1266
829.972107,1247
830.090515,1317
830.208862,1260
830.327209,1278
830.445557,1289
830.563904,1297
830.682312,1294
830.800659,1265
830.919006,1248
831.037354,1285
831.155701,1268
831.274048,1280
831.392395,1268
831.51062,1268
831.629028,1288
831.747314,1257
831.865662,1266
831.984009,1266
832.102356,1253
832.220642,1245
832.338928,1245
832.457275,1248
832.575623,1259
832.693909,1228
832.812134,1273
832.930481,1285
833.048828,1257
833.167114,1264
833.2854,1286
833.403687,1303
833.521973,1292
833.640259,1279
833.758545,1260
833.876831,1286
833.995056,1283
834.113281,1285
834.231628,1241
834.349915,1297
834.468201,1283
834.586426,1271
834.704651,1276
834.822998,1259
834.941162,1274
835.059448,1275
835.177673,1245
835.295959,1296
835.414246,1303
835.53241,1242
835.650635,1302
835.768921,1248
835.887146,1254
836.005371,1276
836.123596,1288
836.241821,1232
836.360046,1275
836.478271,1261
836.596497,1260
836.714722,1274
836.832886,1264
836.95105,1248
837.069336,1256
837.1875,1271
837.305725,1284
837.423889,1256
837.542053,1259
837.660339,1237
837.778503,1257
837.896667,1231
838.014832,1285
838.132996,1265
838.25116,1286
838.369385,1221
838.487488,1298
838.605713,1280
838.723877,1323
838.84198,1246
838.960205,1303
839.078308,1269
839.196472,1244
839.314636,1269
839.4328,1274
839.550964,1258
839.669067,1232
839.787231,1260
839.905396,1232
840.023499,1248
840.141602,1211
840.259766,1251
840.377869,1277
840.495972,1258
840.614136,1250
840.732239,1252
840.850342,1274
840.968445,1261
841.086548,1262
841.204651,1266
841.322754,1287
841.440918,1276
841.55896,1261
841.677002,1249
841.795166,1229
841.913208,1242
842.031311,1234
842.149353,1266
842.267456,1282
842.385498,1256
842.503601,1259
842.621643,1239
842.739746,1263
842.857788,1239
842.97583,1281
843.093933,1261
843.211975,1221
843.330017,1249
843.44812,1296
843.566101,1267
843.684204,1268
843.802246,1258
843.920227,1240
844.038269,1278
844.156311,1250
844.274292,1278
844.392395,1269
844.510376,1262
844.628357,1241
844.74646,1229
844.864441,1266
844.982422,1294
845.100403,1271
845.218384,1276
845.336426,1235
845.454468,1261
845.572449,1276
845.69043,1262
845.808411,1265
845.926453,1280
846.044373,1258
846.162354,1216
846.280396,1251
846.398315,1268
846.516296,1269
846.634216,1260
846.752197,1255
846.870178,1250
846.988098,1245
847.106079,1259
847.22406,1228
847.34198,1220
847.4599,1279
847.577881,1271
847.695801,1247
847.813782,1269
847.931641,1287
848.049561,1293
848.167603,1238
848.285461,1223
848.403381,1228
848.521362,1263
848.639221,1292
848.75708,1237
848.875,1248
848.99292,1275
849.110901,1254
849.22876,1263
849.34668,1240
849.464539,1261
849.582458,1260
849.700317,1260
849.818176,1233
849.936096,1249
850.053955,1239
850.171875,1261
850.289673,1291
850.407593,1273
850.525452,1253
850.643311,1264
850.761169,1241
850.878967,1267
850.996887,1302
851.114746,1253
851.232544,1278
851.350403,1250
851.468262,1273
851.58606,1278
851.703979,1215
851.821777,1282
851.939636,1225
852.057434,1244
852.175232,1262
852.293091,1235
852.410889,1276
852.528687,1266
852.646545,1297
852.764343,1212
852.88208,1255
852.999939,1305
853.117676,1269
853.235535,1295
853.353271,1268
853.471069,1267
853.588928,1241
853.706604,1254
853.824402,1272
853.9422,1289
854.059998,1273
854.177734,1238
854.295532,1273
854.413269,1275
854.531006,1275
854.648804,1303
854.766541,1236
854.884277,1267
855.002014,1274
855.119751,1230
855.237549,1269
855.355225,1230
855.473022,1233
855.590698,1234
855.708435,1225
855.826172,1265
855.943848,1272
856.061646,1257
856.179321,1303
856.296997,1298
856.414795,1262
856.53241,1297
856.650085,1284
856.767822,1265
856.885559,1288
857.003174,1244
857.120911,1235
857.238586,1283
857.356201,1332
857.473938,1250
857.591614,1256
857.709351,1256
857.826965,1275
857.944641,1252
858.062317,1300
858.179993,1236
858.297668,1273
858.415283,1291
858.532959,1245
858.650574,1260
858.768188,1256
858.885803,1287
859.003479,1274
859.121094,1269
859.23877,1266
859.356384,1259
859.473999,1221
859.591675,1307
859.709229,1258
859.826843,1296
859.944458,1233
860.062012,1274
860.179626,1290
860.297302,1255
860.414856,1264
860.532471,1283
860.650024,1244
860.767639,1292
860.885193,1295
861.002808,1229
861.120361,1289
861.237976,1269
861.35553,1286
861.473022,1262
861.590698,1225
861.708191,1274
861.825745,1264
861.943298,1292
862.060852,1302
862.178406,1247
862.295959,1293
862.413513,1261
862.531006,1294
862.64856,1254
862.766113,1268
862.883667,1262
863.00116,1303
863.118713,1271
863.236206,1272
863.353699,1266
863.471252,1235
863.588745,1249
863.706177,1250
863.82373,1239
863.941162,1283
864.058716,1249
864.176208,1236
864.29364,1281
864.411194,1286
864.528687,1292
864.646118,1263
864.763611,1252
864.881042,1246
864.998535,1278
865.116028,1289
865.233459,1271
865.350891,1239
865.468384,1310
865.585754,1301
865.703308,1251
865.820679,1283
865.938171,1259
866.055542,1254
866.173035,1291
866.290466,1248
866.407837,1283
866.52533,1294
866.6427,1282
866.760071,1280
866.877563,1258
866.994934,1256
867.112305,1270
867.229736,1271
867.347107,1248
867.464539,1279
867.58197,1264
867.699341,1311
867.81665,1302
867.934082,1293
868.051453,1263
868.168823,1277
868.286194,1267
868.403564,1280
868.520935,1297
868.638306,1245
868.755676,1292
868.872986,1289
868.990295,1247
869.107727,1267
869.225037,1300
869.342346,1297
869.459717,1267
869.577026,1300
869.694336,1308
869.811707,1290
869.929016,1288
870.046326,1290
870.163635,1295
870.280945,1293
870.398254,1266
870.515564,1259
870.632812,1326
870.750183,1311
870.867432,1292
870.984741,1300
871.102051,1273
871.219299,1289
871.336609,1296
871.453918,1280
871.571106,1249
871.688416,1276
871.805664,1318
871.922852,1285
872.040222,1256
872.157471,1287
872.274719,1306
872.391968,1271
872.509155,1272
872.626465,1269
872.743652,1291
872.860962,1280
872.978149,1271
873.095337,1332
873.212646,1296
873.329834,1277
873.44696,1330
873.564209,1281
873.681396,1300
873.798645,1265
873.915894,1315
874.03302,1282
874.150208,1309
874.267456,1309
874.384583,1253
874.501831,1311
874.618958,1277
874.736145,1286
874.853333,1281
874.970459,1321
875.087646,1313
875.204834,1291
875.32196,1282
875.439148,1319
875.556274,1281
875.673401,1295
875.790527,1310
875.907715,1296
876.024841,1286
876.141968,1300
876.259094,1276
876.376282,1285
876.493347,1308
876.610474,1297
876.7276,1317
876.844727,1281
876.961853,1294
877.078918,1298
877.195984,1274
877.313171,1317
877.430237,1284
877.547302,1298
877.664368,1276
877.781433,1294
877.898499,1287
878.015625,1300
878.13269,1260
878.249695,1301
878.366821,1323
878.483887,1296
878.600952,1286
878.717957,1286
878.834961,1306
878.952087,1285
879.069092,1281
879.186157,1326
879.303162,1242
879.420227,1274
879.537231,1327
879.654236,1282
879.77124,1254
879.888306,1280
880.005249,1312
880.122314,1276
880.239319,1307
880.356323,1285
880.473328,1257
880.590271,1272
880.707275,1329
880.824341,1280
880.941284,1312
881.058228,1294
881.175232,1271
881.292236,1259
881.40918,1305
881.526123,1287
881.643066,1328
881.760071,1296
881.877014,1272
881.993958,1304
882.11084,1291
882.227783,1299
882.344727,1320
882.46167,1281
882.578613,1285
882.695618,1294
882.812439,1309
882.929382,1295
883.046326,1334
883.163208,1295
883.280151,1298
883.397034,1280
883.513916,1334
883.630798,1316
883.747742,1304
883.864563,1310
883.981506,1320
884.098389,1337
884.21521,1303
884.332153,1317
884.448975,1288
884.565796,1297
884.682678,1325
884.7995,1299
884.916443,1310
885.033264,1327
885.150085,1273
885.266968,1335
885.383789,1332
885.500671,1342
885.617493,1344
885.734314,1318
885.851196,1336
885.967896,1301
886.084717,1356
886.201599,1336
886.318359,1357
886.435181,1315
886.552002,1319
886.668762,1336
886.785645,1337
886.902344,1325
887.019165,1277
887.135925,1343
887.252747,1371
887.369446,1303
887.486267,1302
887.603027,1350
887.719788,1312
887.836548,1350
887.953247,1305
888.070068,1313
888.186829,1309
888.303528,1328
888.420288,1335
888.536987,1354
888.653687,1321
888.770447,1333
888.887146,1291
889.003967,1360
889.120667,1339
889.237305,1333
889.354065,1306
889.470703,1308
889.587463,1307
889.704163,1333
889.820862,1317
889.937561,1353
890.054199,1301
890.170837,1330
890.287598,1336
890.404236,1343
890.520874,1296
890.637634,1345
890.754211,1317
890.87085,1302
890.987549,1299
891.104187,1369
891.220886,1334
891.337463,1293
891.454102,1308
891.57074,1337
891.687378,1350
891.804077,1322
891.920654,1319
892.037231,1345
892.15387,1347
892.270447,1315
892.387085,1343
892.503723,1329
892.6203,1313
892.736877,1330
892.853516,1334
892.970032,1325
893.08667,1339
893.203186,1332
893.319763,1324
893.43634,1328
893.552917,1330
893.669556,1323
893.786011,1328
893.902588,1349
894.019165,1344
894.135681,1358
894.252197,1320
894.368835,1357
894.485291,1364
894.601868,1351
894.718384,1389
894.8349,1337
894.951355,1359
895.067932,1328
895.184448,1336
895.300964,1307
895.417419,1334
895.533936,1330
895.650452,1367
895.766907,1351
895.883423,1365
895.999878,1330
896.116333,1352
896.232849,1400
896.349304,1339
896.465759,1330
896.582214,1340
896.698669,1376
896.815125,1323
896.931641,1368
897.048035,1353
897.164551,1350
897.280884,1371
897.397339,1333
897.513794,1371
897.630249,1368
897.746582,1320
897.863098,1359
897.979431,1344
898.095886,1362
898.212341,1325
898.328674,1374
898.445129,1322
898.561462,1367
898.677795,1359
898.794312,1357
898.910645,1318
899.026978,1310
899.143433,1352
899.259766,1369
899.37616,1321
899.492493,1306
899.608765,1314
899.725159,1402
899.841553,1307
899.957947,1347
900.07428,1324
900.190552,1414
900.306946,1377
900.423157,1354
900.53949,1376
900.655884,1339
900.772156,1352
900.888489,1366
901.004822,1315
901.121033,1358
901.237366,1325
901.353699,1364
901.46991,1312
901.586304,1395
901.702515,1364
901.818787,1430
901.93512,1363
902.051331,1344
902.167603,1342
902.283875,1344
902.400085,1356
902.516418,1347
902.632629,1348
902.74884,1357
902.865112,1367
902.981384,1363
903.097595,1384
903.213867,1360
903.330017,1346
903.446289,1351
903.5625,1379
903.67865,1322
903.794922,1333
903.911072,1355
904.027344,1363
904.143494,1358
904.259705,1397
904.375916,1324
904.492065,1343
904.608215,1344
904.724426,1374
904.840576,1351
904.956726,1379
905.072876,1329
905.189087,1340
905.305176,1363
905.421387,1364
905.537537,1359
905.653687,1366
905.769775,1351
905.885925,1364
906.002014,1376
906.118164,1377
906.234314,1393
906.350403,1380
906.466492,1347
906.582642,1399
906.69873,1387
906.814758,1376
906.930908,1378
907.046936,1346
907.163086,1354
907.279175,1380
907.395264,1380
907.511353,1356
907.62738,1388
907.743408,1357
907.859497,1371
907.975525,1360
908.091553,1387
908.207703,1349
908.32373,1390
908.439758,1367
908.555786,1377
908.671814,1358
908.787842,1358
908.90387,1389
909.019775,1361
909.135864,1376
909.251892,1412
909.367859,1411
909.483826,1398
909.599854,1386
909.715881,1374
909.831848,1363
909.947815,1401
910.063782,1428
910.179749,1409
910.295776,1393
910.411743,1366
910.527649,1393
910.643616,1406
910.759583,1376
910.875488,1398
910.991455,1395
911.107361,1394
911.223267,1372
911.339294,1404
911.4552,1387
911.571106,1411
911.687073,1378
911.802979,1391
911.918823,1358
912.034729,1398
912.150635,1389
912.266602,1406
912.382446,1377
912.498352,1376
912.614197,1396
912.730103,1417
912.846008,1376
792.44574,1621
792.56488,1709
792.68396,1660
792.80304,1642
792.92218,1594
793.041199,1585
793.160339,1550
793.279419,1609
793.398499,1578
793.517578,1567
793.636658,1577
793.755737,1620
793.874817,1595
793.993896,1596
794.112976,1614
794.232056,1548
794.351074,1574
794.470215,1591
794.589233,1573
794.708313,1498
794.827393,1517
794.946411,1547
795.065552,1554
795.18457,1533
795.303589,1532
795.422668,1554
795.541687,1499
795.660767,1563
795.779846,1522
795.898865,1524
796.017883,1514
796.136963,1502
796.255981,1517
796.375061,1529
796.49408,1543
796.613037,1562
796.732117,1488
796.851135,1497
796.970154,1486
797.089233,1521
797.208191,1502
797.327271,1535
797.446228,1509
797.565186,1516
797.684265,1488
797.803223,1466
797.922241,1472
798.04126,1469
798.160278,1483
798.279297,1494
798.398315,1510
798.517273,1450
798.636292,1500
798.75531,1521
798.874268,1459
798.993286,1496
799.112244,1499
799.231323,1523
799.350281,1497
799.469238,1533
799.588257,1498
799.707153,1493
799.826111,1507
799.945129,1496
800.064087,1461
800.183044,1489
800.302063,1466
800.421021,1456
800.539978,1466
800.658936,1458
800.777893,1485
800.896912,1466
801.015747,1475
801.134705,1431
801.253723,1484
801.37262,1477
801.491638,1503
801.610535,1439
801.729492,1463
801.84845,1442
801.967407,1413
802.086243,1488
802.205261,1493
802.324158,1460
802.443115,1495
802.562073,1466
802.680969,1460
802.799927,1473
802.918762,1504
803.037659,1433
803.156677,1443
803.275574,1458
803.39447,1484
803.513428,1463
803.632263,1461
803.751221,1453
803.870117,1438
803.989014,1481
804.107971,1467
804.226746,1445
804.345642,1425
804.4646,1484
804.583496,1445
804.702393,1493
804.821228,1484
804.940125,1501
805.059021,1491
805.177917,1431
805.296814,1479
805.415649,1473
805.534546,1449
805.653442,1474
805.772278,1446
805.891113,1455
806.01001,1458
806.128906,1417
806.247742,1449
806.366577,1495
806.485413,1473
806.604309,1427
806.723145,1440
806.84198,1443
806.960876,1460
807.079712,1406
807.198486,1455
807.317383,1445
807.436218,1471
807.554993,1413
807.673889,1446
807.792725,1472
807.91156,1444
808.030396,1438
808.14917,1471
808.268005,1467
808.386841,1438
808.505676,1422
808.624451,1470
808.743286,1445
808.862122,1449
808.980896,1454
809.099731,1446
809.218506,1462
809.337341,1467
809.456116,1443
809.57489,1458
809.693726,1428
809.8125,1443
809.931274,1459
810.050049,1426
810.168884,1434
810.287659,1471
810.406372,1451
810.525269,1444
810.643982,1450
810.762756,1463
810.881531,1454
811.000305,1456
811.11908,1507
811.237854,1438
811.356567,1401
811.475403,1475
811.594116,1399
811.71283,1420
811.831604,1467
811.950378,1473
812.069153,1475
812.187927,1472
812.30658,1426
812.425415,1449
812.544128,1419
812.662781,1448
812.781616,1424
812.900269,1466
813.019043,1440
813.137756,1418
813.256531,1425
813.375244,1456
813.493896,1431
813.612671,1472
813.731384,1451
813.850037,1455
813.96875,1430
814.087524,1451
814.206238,1471
814.324951,1431
814.443604,1458
814.562256,1407
814.68103,1430
814.799683,1424
814.918335,1432
815.037109,1414
815.155762,1464
815.274475,1418
815.393188,1431
815.511841,1397
815.630554,1409
815.749146,1405
815.867859,1439
815.986572,1413
816.105164,1426
816.223877,1441
816.342529,1392
816.461182,1393
816.579895,1386
816.698486,1384
816.817139,1444
816.935791,1401
817.054504,1448
817.173096,1462
817.291748,1418
817.4104,1377
817.529053,1409
817.647644,1384
817.766235,1397
817.884949,1380
818.00354,1395
818.122192,1347
818.240845,1364
818.359436,1415
818.478088,1365
818.59668,1414
818.715271,1373
818.833923,1396
818.952515,1382
819.071106,1350
819.189758,1366
819.30835,1428
819.426941,1363
819.545532,1352
819.664124,1341
819.782715,1392
819.901306,1344
820.019897,1364
820.138489,1372
820.25708,1381
820.375671,1366
820.494202,1350
820.612732,1349
820.731384,1366
820.849915,1381
820.968506,1346
821.087097,1340
821.205627,1404
821.324158,1379
821.442749,1368
821.561279,1318
821.679871,1404
821.798401,1326
821.916931,1318
822.035461,1325
822.154053,1339
822.272583,1329
822.391174,1351
822.509583,1344
822.628174,1378
822.746704,1332
822.865234,1324
822.983765,1364
823.102295,1356
823.220825,1312
823.339294,1308
823.457825,1346
823.576355,1368
823.694824,1354
823.813354,1355
823.931885,1345
824.050354,1329
824.168884,1346
824.287354,1344
824.405823,1375
824.524353,1341
824.642822,1351
824.761353,1328
824.879822,1346
824.998291,1309
825.116699,1363
825.235291,1336
825.353699,1336
825.472168,1322
825.590637,1323
825.709106,1337
825.827576,1367
825.946045,1328
826.064453,1340
826.182983,1316
826.301392,1329
826.4198,1317
826.53833,1315
826.656738,1363
826.775208,1353
826.893677,1313
827.012024,1315
827.130493,1303
827.248962,1296
827.36731,1310
827.485779,1312
827.604248,1331
827.722595,1308
827.841064,1333
827.959412,1313
828.077942,1328
828.196289,1320
828.314636,1339
828.433105,1280
828.551514,1293
828.669861,1321
828.78833,1311
828.906677,1315
829.025085,1325
829.143433,1334
829.261841,1321
829.38031,1279
829.498657,1338
829.617004,1317
829.735413,1322
829.85376,1262
829.972107,1281
830.090515,1331
830.208862,1280
830.327209,1300
830.445557,1306
830.563904,1304
830.682312,1344
830.800659,1284
830.919006,1308
831.037354,1305
831.155701,1330
831.274048,1275
831.392395,1289
831.51062,1330
831.629028,1265
831.747314,1301
831.865662,1305
831.984009,1298
832.102356,1312
832.220642,1296
832.338928,1298
832.457275,1291
832.575623,1300
832.693909,1271
832.812134,1323
832.930481,1316
833.048828,1314
833.167114,1333
833.2854,1315
833.403687,1306
833.521973,1302
833.640259,1303
833.758545,1327
833.876831,1259
833.995056,1327
834.113281,1298
834.231628,1281
834.349915,1283
834.468201,1300
834.586426,1318
834.704651,1297
834.822998,1298
834.941162,1306
835.059448,1279
835.177673,1300
835.295959,1293
835.414246,1289
835.53241,1296
835.650635,1288
835.768921,1295
835.887146,1266
836.005371,1305
836.123596,1309
836.241821,1288
836.360046,1307
836.478271,1282
836.596497,1296
836.714722,1276
836.832886,1298
836.95105,1284
837.069336,1309
837.1875,1299
837.305725,1285
837.423889,1298
837.542053,1300
837.660339,1317
837.778503,1299
837.896667,1270
838.014832,1281
838.132996,1312
838.25116,1270
838.369385,1300
838.487488,1340
838.605713,1313
838.723877,1336
838.84198,1312
838.960205,1279
839.078308,1319
839.196472,1283
839.314636,1307
839.4328,1309
839.550964,1290
839.669067,1303
839.787231,1275
839.905396,1296
840.023499,1294
840.141602,1276
840.259766,1282
840.377869,1270
840.495972,1310
840.614136,1253
840.732239,1264
840.850342,1314
840.968445,1304
841.086548,1291
841.204651,1303
841.322754,1317
841.440918,1288
841.55896,1258
841.677002,1321
841.795166,1280
841.913208,1296
842.031311,1294
842.149353,1289
842.267456,1288
842.385498,1294
842.503601,1314
842.621643,1269
842.739746,1294
842.857788,1262
842.97583,1281
843.093933,1284
843.211975,1313
843.330017,1294
843.44812,1288
843.566101,1297
843.684204,1291
843.802246,1302
843.920227,1236
844.038269,1304
844.156311,1254
844.274292,1353
844.392395,1309
844.510376,1301
844.628357,1280
844.74646,1311
844.864441,1277
844.982422,1262
845.100403,1273
845.218384,1253
845.336426,1307
845.454468,1275
845.572449,1263
845.69043,1306
845.808411,1272
845.926453,1295
846.044373,1279
846.162354,1300
846.280396,1295
846.398315,1301
846.516296,1291
846.634216,1268
846.752197,1280
846.870178,1293
846.988098,1262
847.106079,1284
847.22406,1294
847.34198,1291
847.4599,1297
847.577881,1263
847.695801,1313
847.813782,1279
847.931641,1269
848.049561,1310
848.167603,1283
848.285461,1282
848.403381,1292
848.521362,1321
848.639221,1302
848.75708,1295
848.875,1282
848.99292,1258
849.110901,1284
849.22876,1296
849.34668,1261
849.464539,1325
849.582458,1285
849.700317,1308
849.818176,1262
849.936096,1275
850.053955,1268
850.171875,1309
850.289673,1290
850.407593,1272
850.525452,1283
850.643311,1335
850.761169,1277
850.878967,1282
850.996887,1309
851.114746,1265
851.232544,1301
851.350403,1300
851.468262,1286
851.58606,1284
851.703979,1274
851.821777,1292
851.939636,1310
852.057434,1295
852.175232,1273
852.293091,1339
852.410889,1281
852.528687,1295
852.646545,1321
852.764343,1294
852.88208,1292
852.999939,1273
853.117676,1304
853.235535,1306
853.353271,1297
853.471069,1288
853.588928,1284
853.706604,1320
853.824402,1252
853.9422,1294
854.059998,1297
854.177734,1308
854.295532,1285
854.413269,1296
854.531006,1292
854.648804,1266
854.766541,1288
854.884277,1307
855.002014,1289
855.119751,1285
855.237549,1312
855.355225,1316
855.473022,1290
855.590698,1288
855.708435,1263
855.826172,1289
855.943848,1300
856.061646,1276
856.179321,1273
856.296997,1301
856.414795,1287
856.53241,1314
856.650085,1306
856.767822,1305
856.885559,1311
857.003174,1295
857.120911,1319
857.238586,1259
857.356201,1304
857.473938,1312
857.591614,1278
857.709351,1295
857.826965,1305
857.944641,1250
858.062317,1328
858.179993,1320
858.297668,1266
858.415283,1311
858.532959,1299
858.650574,1315
858.768188,1283
858.885803,1283
859.003479,1257
859.121094,1271
859.23877,1283
859.356384,1306
859.473999,1262
859.591675,1304
859.709229,1304
859.826843,1345
859.944458,1259
860.062012,1283
860.179626,1357
860.297302,1313
860.414856,1291
860.532471,1284
860.650024,1281
860.767639,1307
860.885193,1281
861.002808,1308
861.120361,1275
861.237976,1306
861.35553,1310
861.473022,1254
861.590698,1272
861.708191,1284
861.825745,1297
861.943298,1321
862.060852,1297
862.178406,1273
862.295959,1276
862.413513,1282
862.531006,1280
862.64856,1306
862.766113,1298
862.883667,1282
863.00116,1303
863.118713,1305
863.236206,1281
863.353699,1313
863.471252,1273
863.588745,1282
863.706177,1299
863.82373,1290
863.941162,1315
864.058716,1303
864.176208,1284
864.29364,1308
864.411194,1315
864.528687,1277
864.646118,1320
864.763611,1276
864.881042,1311
864.998535,1343
865.116028,1318
865.233459,1292
865.350891,1288
865.468384,1297
865.585754,1305
865.703308,1275
865.820679,1297
865.938171,1275
866.055542,1297
866.173035,1261
866.290466,1298
866.407837,1336
866.52533,1260
866.6427,1311
866.760071,1301
866.877563,1300
866.994934,1314
867.112305,1298
867.229736,1331
867.347107,1342
867.464539,1306
867.58197,1340
867.699341,1300
867.81665,1297
867.934082,1317
868.051453,1301
868.168823,1291
868.286194,1298
868.403564,1274
868.520935,1325
868.638306,1316
868.755676,1284
868.872986,1322
868.990295,1302
869.107727,1347
869.225037,1265
869.342346,1295
869.459717,1316
869.577026,1299
869.694336,1328
869.811707,1293
869.929016,1300
870.046326,1299
870.163635,1323
870.280945,1304
870.398254,1307
870.515564,1324
870.632812,1322
870.750183,1345
870.867432,1328
870.984741,1331
871.102051,1312
871.219299,1300
871.336609,1343
871.453918,1298
871.571106,1304
871.688416,1317
871.805664,1319
871.922852,1323
872.040222,1311
872.157471,1306
872.274719,1300
872.391968,1316
872.509155,1327
872.626465,1322
872.743652,1337
872.860962,1323
872.978149,1319
873.095337,1320
873.212646,1346
873.329834,1288
873.44696,1315
873.564209,1268
873.681396,1332
873.798645,1290
873.915894,1335
874.03302,1325
874.150208,1292
874.267456,1361
874.384583,1308
874.501831,1313
874.618958,1341
874.736145,1298
874.853333,1331
874.970459,1336
875.087646,1329
875.204834,1325
875.32196,1327
875.439148,1318
875.556274,1320
875.673401,1293
875.790527,1304
875.907715,1313
876.024841,1336
876.141968,1329
876.259094,1314
876.376282,1321
876.493347,1309
876.610474,1324
876.7276,1342
876.844727,1306
876.961853,1320
877.078918,1303
877.195984,1327
877.313171,1359
877.430237,1308
877.547302,1372
877.664368,1333
877.781433,1332
877.898499,1321
878.015625,1292
878.13269,1329
878.249695,1312
878.366821,1297
878.483887,1295
878.600952,1339
878.717957,1329
878.834961,1345
878.952087,1323
879.069092,1351
879.186157,1308
879.303162,1308
879.420227,1364
879.537231,1306
879.654236,1331
879.77124,1315
879.888306,1325
880.005249,1343
880.122314,1336
880.239319,1316
880.356323,1317
880.473328,1317
880.590271,1342
880.707275,1347
880.824341,1317
880.941284,1315
881.058228,1310
881.175232,1306
881.292236,1336
881.40918,1300
881.526123,1348
881.643066,1320
881.760071,1340
881.877014,1367
881.993958,1352
882.11084,1337
882.227783,1278
882.344727,1327
882.46167,1348
882.578613,1347
882.695618,1370
882.812439,1354
882.929382,1363
883.046326,1351
883.163208,1337
883.280151,1314
883.397034,1332
883.513916,1333
883.630798,1335
883.747742,1353
883.864563,1318
883.981506,1311
884.098389,1338
884.21521,1322
884.332153,1296
884.448975,1312
884.565796,1324
884.682678,1347
884.7995,1356
884.916443,1335
885.033264,1350
885.150085,1357
885.266968,1362
885.383789,1374
885.500671,1353
885.617493,1328
885.734314,1395
885.851196,1330
885.967896,1335
886.084717,1358
886.201599,1365
886.318359,1390
886.435181,1343
886.552002,1385
886.668762,1348
886.785645,1358
886.902344,1340
887.019165,1388
887.135925,1329
887.252747,1404
887.369446,1338
887.486267,1341
887.603027,1312
887.719788,1336
887.836548,1331
887.953247,1370
888.070068,1414
888.186829,1337
888.303528,1356
888.420288,1332
888.536987,1322
888.653687,1367
888.770447,1338
888.887146,1334
889.003967,1392
889.120667,1326
889.237305,1375
889.354065,1393
889.470703,1337
889.587463,1344
889.704163,1340
889.820862,1352
889.937561,1366
890.054199,1341
890.170837,1333
890.287598,1341
890.404236,1391
890.520874,1323
890.637634,1327
890.754211,1376
890.87085,1406
890.987549,1366
891.104187,1361
891.220886,1385
891.337463,1377
891.454102,1366
891.57074,1354
891.687378,1380
891.804077,1410
891.920654,1355
892.037231,1374
892.15387,1371
892.270447,1374
892.387085,1371
892.503723,1406
892.6203,1354
892.736877,1348
892.853516,1368
892.970032,1357
893.08667,1363
893.203186,1367
893.319763,1369
893.43634,1352
893.552917,1379
893.669556,1383
893.786011,1372
893.902588,1357
894.019165,1417
894.135681,1383
894.252197,1343
894.368835,1390
894.485291,1382
894.601868,1390
894.718384,1399
894.8349,1335
894.951355,1399
895.067932,1371
895.184448,1360
895.300964,1403
895.417419,1376
895.533936,1360
895.650452,1359
895.766907,1330
895.883423,1375
895.999878,1397
896.116333,1381
896.232849,1356
896.349304,1363
896.465759,1396
896.582214,1350
896.698669,1388
896.815125,1363
896.931641,1380
897.048035,1385
897.164551,1429
897.280884,1396
897.397339,1345
897.513794,1393
897.630249,1392
897.746582,1356
897.863098,1374
897.979431,1331
898.095886,1382
898.212341,1373
898.328674,1421
898.445129,1405
898.561462,1412
898.677795,1389
898.794312,1397
898.910645,1335
899.026978,1366
899.143433,1363
899.259766,1351
899.37616,1398
899.492493,1357
899.608765,1404
899.725159,1379
899.841553,1388
899.957947,1417
900.07428,1412
900.190552,1400
900.306946,1411
900.423157,1409
900.53949,1318
900.655884,1396
900.772156,1384
900.888489,1396
901.004822,1388
901.121033,1375
901.237366,1422
901.353699,1361
901.46991,1380
901.586304,1385
901.702515,1364
901.818787,1356
901.93512,1421
902.051331,1359
902.167603,1463
902.283875,1421
902.400085,1376
902.516418,1388
902.632629,1364
902.74884,1397
902.865112,1434
902.981384,1402
903.097595,1416
903.213867,1409
903.330017,1403
903.446289,1386
903.5625,1393
903.67865,1384
903.794922,1369
903.911072,1480
904.027344,1385
904.143494,1407
904.259705,1433
904.375916,1374
904.492065,1351
904.608215,1425
904.724426,1376
904.840576,1383
904.956726,1379
905.072876,1375
905.189087,1388
905.305176,1391
905.421387,1397
905.537537,1421
905.653687,1380
905.769775,1421
905.885925,1416
906.002014,1421
906.118164,1407
906.234314,1423
906.350403,1399
906.466492,1401
906.582642,1409
906.69873,1417
906.814758,1457
906.930908,1431
907.046936,1414
907.163086,1410
907.279175,1437
907.395264,1359
907.511353,1439
907.62738,1383
907.743408,1437
907.859497,1392
907.975525,1417
908.091553,1428
908.207703,1400
908.32373,1396
908.439758,1439
908.555786,1409
908.671814,1400
908.787842,1406
908.90387,1415
909.019775,1409
909.135864,1431
909.251892,1434
909.367859,1418
909.483826,1377
909.599854,1388
909.715881,1356
909.831848,1431
909.947815,1400
910.063782,1432
910.179749,1406
910.295776,1391
910.411743,1357
910.527649,1455
910.643616,1411
910.759583,1422
910.875488,1426
910.991455,1424
911.107361,1442
911.223267,1411
911.339294,1429
911.4552,1413
911.571106,1398
911.687073,1396
911.802979,1420
911.918823,1404
912.034729,1405
912.150635,1416
912.266602,1429
912.382446,1406
912.498352,1434
912.614197,1396
912.730103,1441
912.846008,1457
792.44574,1745
792.56488,1738
792.68396,1764
792.80304,1743
792.92218,1659
793.041199,1610
793.160339,1655
793.279419,1676
793.398499,1654
793.517578,1655
793.636658,1656
793.755737,1603
793.874817,1628
793.993896,1612
794.112976,1646
794.232056,1560
794.351074,1598
794.470215,1606
794.589233,1609
794.708313,1587
794.827393,1597
794.946411,1587
795.065552,1613
795.18457,1567
795.303589,1620
795.422668,1563
795.541687,1575
795.660767,1561
795.779846,1565
795.898865,1580
796.017883,1562
796.136963,1576
796.255981,1593
796.375061,1531
796.49408,1549
796.613037,1586
796.732117,1533
796.851135,1606
796.970154,1536
797.089233,1541
797.208191,1511
797.327271,1528
797.446228,1575
797.565186,1551
797.684265,1530
797.803223,1559
797.922241,1498
798.04126,1562
798.160278,1559
798.279297,1522
798.398315,1556
798.517273,1529
798.636292,1544
798.75531,1509
798.874268,1527
798.993286,1514
799.112244,1550
799.231323,1500
799.350281,1499
799.469238,1593
799.588257,1545
799.707153,1450
799.826111,1523
799.945129,1513
800.064087,1549
800.183044,1493
800.302063,1514
800.421021,1552
800.539978,1504
800.658936,1524
800.777893,1529
800.896912,1475
801.015747,1507
801.134705,1492
801.253723,1512
801.37262,1489
801.491638,1526
801.610535,1475
801.729492,1499
801.84845,1530
801.967407,1534
802.086243,1531
802.205261,1478
802.324158,1481
802.443115,1553
802.562073,1525
802.680969,1535
802.799927,1508
802.918762,1509
803.037659,1510
803.156677,1492
803.275574,1515
803.39447,1509
803.513428,1481
803.632263,1462
803.751221,1438
803.870117,1534
803.989014,1499
804.107971,1503
804.226746,1476
804.345642,1473
804.4646,1514
804.583496,1498
804.702393,1450
804.821228,1492
804.940125,1499
805.059021,1515
805.177917,1465
805.296814,1491
805.415649,1514
805.534546,1510
805.653442,1500
805.772278,1514
805.891113,1560
806.01001,1486
806.128906,1522
806.247742,1536
806.366577,1461
806.485413,1524
806.604309,1467
806.723145,1512
806.84198,1491
806.960876,1481
807.079712,1434
807.198486,1499
807.317383,1448
807.436218,1508
807.554993,1492
807.673889,1457
807.792725,1518
807.91156,1480
808.030396,1447
808.14917,1481
808.268005,1483
808.386841,1541
808.505676,1464
808.624451,1540
808.743286,1469
808.862122,1478
808.980896,1519
809.099731,1514
809.218506,1462
809.337341,1460
809.456116,1457
809.57489,1525
809.693726,1453
809.8125,1495
809.931274,1533
810.050049,1469
810.168884,1506
810.287659,1490
810.406372,1460
810.525269,1480
810.643982,1465
810.762756,1540
810.881531,1473
811.000305,1490
811.11908,1475
811.237854,1462
811.356567,1488
811.475403,1472
811.594116,1462
811.71283,1494
811.831604,1451
811.950378,1466
812.069153,1480
812.187927,1457
812.30658,1482
812.425415,1470
812.544128,1473
812.662781,1452
812.781616,1475
812.900269,1498
813.019043,1460
813.137756,1439
813.256531,1462
813.375244,1487
813.493896,1473
813.612671,1449
813.731384,1463
813.850037,1430
813.96875,1443
814.087524,1483
814.206238,1460
814.324951,1462
814.443604,1479
814.562256,1478
814.68103,1430
814.799683,1453
814.918335,1426
815.037109,1428
815.155762,1439
815.274475,1454
815.393188,1454
815.511841,1431
815.630554,1415
815.749146,1450
815.867859,1425
815.986572,1452
816.105164,1433
816.223877,1424
816.342529,1417
816.461182,1460
816.579895,1439
816.698486,1447
816.817139,1453
816.935791,1426
817.054504,1461
817.173096,1462
817.291748,1413
817.4104,1467
817.529053,1445
817.647644,1434
817.766235,1403
817.884949,1430
818.00354,1419
818.122192,1417
818.240845,1416
818.359436,1390
818.478088,1425
818.59668,1396
818.715271,1406
818.833923,1397
818.952515,1394
819.071106,1408
819.189758,1423
819.30835,1389
819.426941,1398
819.545532,1354
819.664124,1405
819.782715,1403
819.901306,1434
820.019897,1406
820.138489,1383
820.25708,1359
820.375671,1367
820.494202,1408
820.612732,1373
820.731384,1398
820.849915,1342
820.968506,1366
821.087097,1380
821.205627,1378
821.324158,1378
821.442749,1372
821.561279,1358
821.679871,1346
821.798401,1386
821.916931,1376
822.035461,1335
822.154053,1359
822.272583,1362
822.391174,1361
822.509583,1368
822.628174,1396
822.746704,1341
822.865234,1405
822.983765,1363
823.102295,1376
823.220825,1349
823.339294,1388
823.457825,1369
823.576355,1393
823.694824,1384
823.813354,1369
823.931885,1345
824.050354,1357
824.168884,1346
824.287354,1342
824.405823,1375
824.524353,1359
824.642822,1327
824.761353,1358
824.879822,1357
824.998291,1350
825.116699,1346
825.235291,1327
825.353699,1303
825.472168,1345
825.590637,1314
825.709106,1365
825.827576,1331
825.946045,1353
826.064453,1352
826.182983,1335
826.301392,1306
826.4198,1375
826.53833,1327
826.656738,1341
826.775208,1349
826.893677,1313
827.012024,1334
827.130493,1343
827.248962,1338
827.36731,1377
827.485779,1313
827.604248,1343
827.722595,1306
827.841064,1317
827.959412,1327
828.077942,1362
828.196289,1318
828.314636,1297
828.433105,1349
828.551514,1270
828.669861,1327
828.78833,1335
828.906677,1308
829.025085,1314
829.143433,1320
829.261841,1308
829.38031,1332
829.498657,1328
829.617004,1292
829.735413,1305
829.85376,1308
829.972107,1295
830.090515,1319
830.208862,1272
830.327209,1370
830.445557,1312
830.563904,1362
830.682312,1288
830.800659,1369
830.919006,1332
831.037354,1308
831.155701,1365
831.274048,1310
831.392395,1303
831.51062,1317
831.629028,1318
831.747314,1300
831.865662,1342
831.984009,1306
832.102356,1335
832.220642,1293
832.338928,1346
832.457275,1329
832.575623,1313
832.693909,1314
832.812134,1303
832.930481,1274
833.048828,1264
833.167114,1316
833.2854,1331
833.403687,1340
833.521973,1326
833.640259,1320
833.758545,1294
833.876831,1279
833.995056,1333
834.113281,1274
834.231628,1315
834.349915,1297
834.468201,1323
834.586426,1325
834.704651,1368
834.822998,1271
834.941162,1324
835.059448,1271
835.177673,1323
835.295959,1285
835.414246,1352
835.53241,1262
835.650635,1312
835.768921,1328
835.887146,1366
836.005371,1327
836.123596,1300
836.241821,1323
836.360046,1318
836.478271,1313
836.596497,1297
836.714722,1308
836.832886,1300
836.95105,1309
837.069336,1303
837.1875,1298
837.305725,1312
837.423889,1345
837.542053,1352
837.660339,1334
837.778503,1363
837.896667,1285
838.014832,1328
838.132996,1305
838.25116,1323
838.369385,1314
838.487488,1266
838.605713,1316
838.723877,1329
838.84198,1310
838.960205,1342
839.078308,1313
839.196472,1291
839.314636,1315
839.4328,1305
839.550964,1302
839.669067,1332
839.787231,1329
839.905396,1352
840.023499,1349
840.141602,1337
840.259766,1345
840.377869,1294
840.495972,1315
840.614136,1326
840.732239,1318
840.850342,1307
840.968445,1337
841.086548,1306
841.204651,1319
841.322754,1371
841.440918,1283
841.55896,1364
841.677002,1269
841.795166,1342
841.913208,1298
842.031311,1320
842.149353,1286
842.267456,1335
842.385498,1296
842.503601,1285
842.621643,1285
842.739746,1322
842.857788,1286
842.97583,1321
843.093933,1319
843.211975,1303
843.330017,1283
843.44812,1300
843.566101,1295
843.684204,1349
843.802246,1277
843.920227,1327
844.038269,1362
844.156311,1294
844.274292,1316
844.392395,1294
844.510376,1341
844.628357,1290
844.74646,1306
844.864441,1322
844.982422,1265
845.100403,1314
845.218384,1307
845.336426,1297
845.454468,1281
845.572449,1282
845.69043,1298
845.808411,1292
845.926453,1286
846.044373,1258
846.162354,1310
846.280396,1293
846.398315,1279
846.516296,1315
846.634216,1305
846.752197,1325
846.870178,1287
846.988098,1296
847.106079,1282
847.22406,1334
847.34198,1320
847.4599,1285
847.577881,1305
847.695801,1285
847.813782,1311
847.931641,1326
848.049561,1298
848.167603,1282
848.285461,1292
848.403381,1313
848.521362,1295
848.639221,1312
848.75708,1290
848.875,1310
848.99292,1343
849.110901,1314
849.22876,1301
849.34668,1324
849.464539,1315
849.582458,1314
849.700317,1267
849.818176,1308
849.936096,1328
850.053955,1287
850.171875,1311
850.289673,1303
850.407593,1339
850.525452,1358
850.643311,1371
850.761169,1338
850.878967,1282
850.996887,1318
851.114746,1311
851.232544,1313
851.350403,1318
851.468262,1318
851.58606,1290
851.703979,1292
851.821777,1337
851.939636,1333
852.057434,1314
852.175232,1336
852.293091,1314
852.410889,1378
852.528687,1316
852.646545,1329
852.764343,1332
852.88208,1321
852.999939,1343
853.117676,1366
853.235535,1310
853.353271,1300
853.471069,1283
853.588928,1299
853.706604,1359
853.824402,1354
853.9422,1289
854.059998,1328
854.177734,1316
854.295532,1316
854.413269,1338
854.531006,1311
854.648804,1305
854.766541,1317
854.884277,1269
855.002014,1332
855.119751,1323
855.237549,1335
855.355225,1315
855.473022,1319
855.590698,1304
855.708435,1319
855.826172,1313
855.943848,1306
856.061646,1320
856.179321,1295
856.296997,1339
856.414795,1278
856.53241,1372
856.650085,1314
856.767822,1298
856.885559,1340
857.003174,1270
857.120911,1334
857.238586,1310
857.356201,1334
857.473938,1299
857.591614,1330
857.709351,1322
857.826965,1341
857.944641,1307
858.062317,1300
858.179993,1293
858.297668,1330
858.415283,1329
858.532959,1314
858.650574,1315
858.768188,1329
858.885803,1348
859.003479,1292
859.121094,1295
859.23877,1335
859.356384,1291
859.473999,1348
859.591675,1293
859.709229,1280
859.826843,1292
859.944458,1297
860.062012,1310
860.179626,1289
860.297302,1307
860.414856,1346
860.532471,1311
860.650024,1327
860.767639,1327
860.885193,1286
861.002808,1309
861.120361,1351
861.237976,1301
861.35553,1307
861.473022,1317
861.590698,1318
861.708191,1288
861.825745,1303
861.943298,1308
862.060852,1297
862.178406,1376
862.295959,1309
862.413513,1294
862.531006,1285
862.64856,1307
862.766113,1313
862.883667,1304
863.00116,1306
863.118713,1344
863.236206,1327
863.353699,1331
863.471252,1262
863.588745,1304
863.706177,1310
863.82373,1331
863.941162,1326
864.058716,1344
864.176208,1305
864.29364,1330
864.411194,1299
864.528687,1317
864.646118,1319
864.763611,1318
864.881042,1335
864.998535,1306
865.116028,1324
865.233459,1345
865.350891,1338
865.468384,1311
865.585754,1342
865.703308,1317
865.820679,1299
865.938171,1321
866.055542,1318
866.173035,1301
866.290466,1318
866.407837,1325
866.52533,1288
866.6427,1304
866.760071,1348
866.877563,1276
866.994934,1327
867.112305,1332
867.229736,1295
867.347107,1309
867.464539,1315
867.58197,1309
867.699341,1344
867.81665,1297
867.934082,1315
868.051453,1299
868.168823,1317
868.286194,1358
868.403564,1354
868.520935,1351
868.638306,1348
868.755676,1294
868.872986,1322
868.990295,1350
869.107727,1335
869.225037,1318
869.342346,1326
869.459717,1344
869.577026,1329
869.694336,1287
869.811707,1324
869.929016,1299
870.046326,1334
870.163635,1366
870.280945,1388
870.398254,1328
870.515564,1356
870.632812,1300
870.750183,1347
870.867432,1342
870.984741,1355
871.102051,1319
871.219299,1343
871.336609,1325
871.453918,1375
871.571106,1337
871.688416,1368
871.805664,1299
871.922852,1318
872.040222,1353
872.157471,1379
872.274719,1332
872.391968,1339
872.509155,1319
872.626465,1298
872.743652,1373
872.860962,1367
872.978149,1350
873.095337,1380
873.212646,1343
873.329834,1332
873.44696,1311
873.564209,1319
873.681396,1328
873.798645,1341
873.915894,1335
874.03302,1324
874.150208,1348
874.267456,1387
874.384583,1343
874.501831,1306
874.618958,1329
874.736145,1346
874.853333,1344
874.970459,1337
875.087646,1333
875.204834,1371
875.32196,1350
875.439148,1359
875.556274,1342
875.673401,1360
875.790527,1339
875.907715,1346
876.024841,1366
876.141968,1335
876.259094,1340
876.376282,1355
876.493347,1355
876.610474,1348
876.7276,1360
876.844727,1330
876.961853,1403
877.078918,1392
877.195984,1331
877.313171,1379
877.430237,1351
877.547302,1384
877.664368,1355
877.781433,1360
877.898499,1370
878.015625,1309
878.13269,1329
878.249695,1371
878.366821,1353
878.483887,1345
878.600952,1319
878.717957,1329
878.834961,1353
878.952087,1351
879.069092,1340
879.186157,1340
879.303162,1301
879.420227,1324
879.537231,1302
879.654236,1329
879.77124,1329
879.888306,1293
880.005249,1358
880.122314,1363
880.239319,1311
880.356323,1327
880.473328,1352
880.590271,1350
880.707275,1339
880.824341,1376
880.941284,1331
881.058228,1368
881.175232,1333
881.292236,1317
881.40918,1365
881.526123,1324
881.643066,1308
881.760071,1375
881.877014,1336
881.993958,1361
882.11084,1384
882.227783,1362
882.344727,1373
882.46167,1389
882.578613,1352
882.695618,1346
882.812439,1309
882.929382,1331
883.046326,1364
883.163208,1343
883.280151,1321
883.397034,1363
883.513916,1386
883.630798,1347
883.747742,1336
883.864563,1364
883.981506,1372
884.098389,1334
884.21521,1362
884.332153,1359
884.448975,1321
884.565796,1375
884.682678,1373
884.7995,1433
884.916443,1341
885.033264,1397
885.150085,1353
885.266968,1419
885.383789,1387
885.500671,1422
885.617493,1370
885.734314,1396
885.851196,1379
885.967896,1319
886.084717,1343
886.201599,1403
886.318359,1361
886.435181,1394
886.552002,1388
886.668762,1367
886.785645,1369
886.902344,1393
887.019165,1378
887.135925,1359
887.252747,1375
887.369446,1377
887.486267,1371
887.603027,1356
887.719788,1358
887.836548,1412
887.953247,1371
888.070068,1374
888.186829,1360
888.303528,1365
888.420288,1383
888.536987,1399
888.653687,1361
888.770447,1404
888.887146,1354
889.003967,1362
889.120667,1354
889.237305,1371
889.354065,1383
889.470703,1399
889.587463,1378
889.704163,1379
889.820862,1347
889.937561,1397
890.054199,1350
890.170837,1352
890.287598,1386
890.404236,1357
890.520874,1395
890.637634,1356
890.754211,1363
890.87085,1395
890.987549,1395
891.104187,1402
891.220886,1392
891.337463,1358
891.454102,1388
891.57074,1347
891.687378,1431
891.804077,1381
891.920654,1397
892.037231,1382
892.15387,1393
892.270447,1352
892.387085,1425
892.503723,1354
892.6203,1392
892.736877,1356
892.853516,1359
892.970032,1414
893.08667,1345
893.203186,1416
893.319763,1401
893.43634,1381
893.552917,1420
893.669556,1395
893.786011,1422
893.902588,1373
894.019165,1402
894.135681,1384
894.252197,1367
894.368835,1439
894.485291,1408
894.601868,1465
894.718384,1408
894.8349,1403
894.951355,1399
895.067932,1411
895.184448,1369
895.300964,1404
895.417419,1413
895.533936,1366
895.650452,1432
895.766907,1399
895.883423,1362
895.999878,1444
896.116333,1369
896.232849,1371
896.349304,1386
896.465759,1391
896.582214,1406
896.698669,1396
896.815125,1396
896.931641,1432
897.048035,1407
897.164551,1383
897.280884,1416
897.397339,1440
897.513794,1381
897.630249,1434
897.746582,1403
897.863098,1383
897.979431,1429
898.095886,1380
898.212341,1417
898.328674,1415
898.445129,1422
898.561462,1407
898.677795,1437
898.794312,1424
898.910645,1435
899.026978,1359
899.143433,1380
899.259766,1423
899.37616,1403
899.492493,1379
899.608765,1396
899.725159,1399
899.841553,1402
899.957947,1395
900.07428,1411
900.190552,1418
900.306946,1390
900.423157,1393
900.53949,1369
900.655884,1420
900.772156,1392
900.888489,1394
901.004822,1435
901.121033,1388
901.237366,1436
901.353699,1388
901.46991,1430
901.586304,1404
901.702515,1407
901.818787,1378
901.93512,1423
902.051331,1422
902.167603,1408
902.283875,1421
902.400085,1402
902.516418,1423
902.632629,1419
902.74884,1414
902.865112,1409
902.981384,1442
903.097595,1387
903.213867,1444
903.330017,1391
903.446289,1402
903.5625,1415
903.67865,1417
903.794922,1410
903.911072,1424
904.027344,1428
904.143494,1451
904.259705,1415
904.375916,1383
904.492065,1443
904.608215,1422
904.724426,1419
904.840576,1396
904.956726,1443
905.072876,1385
905.189087,1408
905.305176,1425
905.421387,1426
905.537537,1406
905.653687,1445
905.769775,1403
905.885925,1416
906.002014,1426
906.118164,1442
906.234314,1449
906.350403,1415
906.466492,1455
906.582642,1411
906.69873,1402
906.814758,1456
906.930908,1416
907.046936,1406
907.163086,1432
907.279175,1442
907.395264,1454
907.511353,1478
907.62738,1454
907.743408,1403
907.859497,1433
907.975525,1446
908.091553,1427
908.207703,1441
908.32373,1411
908.439758,1404
908.555786,1469
908.671814,1427
908.787842,1420
908.90387,1391
909.019775,1469
909.135864,1456
909.251892,1430
909.367859,1464
909.483826,1452
909.599854,1464
909.715881,1436
909.831848,1459
909.947815,1445
910.063782,1424
910.179749,1419
910.295776,1435
910.411743,1401
910.527649,1427
910.643616,1462
910.759583,1450
910.875488,1397
910.991455,1465
911.107361,1421
911.223267,1452
911.339294,1444
911.4552,1414
911.571106,1430
911.687073,1407
911.802979,1475
911.918823,1411
912.034729,1442
912.150635,1439
912.266602,1473
912.382446,1447
912.498352,1436
912.614197,1502
912.730103,1381
912.846008,1436
