792.44574,2631
792.56488,2681
792.68396,2616
792.80304,2575
792.92218,2509
793.041199,2509
793.160339,2480
793.279419,2451
793.398499,2407
793.517578,2398
793.636658,2394
793.755737,2395
793.874817,2290
793.993896,2288
794.112976,2267
794.232056,2245
794.351074,2269
794.470215,2237
794.589233,2186
794.708313,2160
794.827393,2155
794.946411,2154
795.065552,2132
795.18457,2126
795.303589,2188
795.422668,2082
795.541687,2045
795.660767,2098
795.779846,2078
795.898865,2071
796.017883,2088
796.136963,2006
796.255981,2021
796.375061,1985
796.49408,1993
796.613037,2012
796.732117,1982
796.851135,2005
796.970154,1938
797.089233,2012
797.208191,1935
797.327271,1938
797.446228,1905
797.565186,1970
797.684265,1958
797.803223,1908
797.922241,1935
798.04126,1903
798.160278,1949
798.279297,1919
798.398315,1909
798.517273,1877
798.636292,1891
798.75531,1901
798.874268,1915
798.993286,1891
799.112244,1858
799.231323,1911
799.350281,1892
799.469238,1900
799.588257,1840
799.707153,1883
799.826111,1835
799.945129,1899
800.064087,1857
800.183044,1849
800.302063,1901
800.421021,1897
800.539978,1873
800.658936,1848
800.777893,1915
800.896912,1816
801.015747,1865
801.134705,1904
801.253723,1880
801.37262,1880
801.491638,1846
801.610535,1879
801.729492,1885
801.84845,1863
801.967407,1897
802.086243,1904
802.205261,1840
802.324158,1888
802.443115,1850
802.562073,1882
802.680969,1818
802.799927,1878
802.918762,1863
803.037659,1833
803.156677,1874
803.275574,1889
803.39447,1912
803.513428,1943
803.632263,1866
803.751221,1883
803.870117,1873
803.989014,1907
804.107971,1878
804.226746,1932
804.345642,1932
804.4646,1872
804.583496,1851
804.702393,1895
804.821228,1880
804.940125,1907
805.059021,1898
805.177917,1918
805.296814,1903
805.415649,1915
805.534546,1880
805.653442,1891
805.772278,1897
805.891113,1890
806.01001,1896
806.128906,1892
806.247742,1889
806.366577,1939
806.485413,1900
806.604309,1908
806.723145,1880
806.84198,1910
806.960876,1906
807.079712,1871
807.198486,1951
807.317383,1936
807.436218,1934
807.554993,1959
807.673889,1926
807.792725,1884
807.91156,1912
808.030396,1932
808.14917,1906
808.268005,1931
808.386841,1954
808.505676,1938
808.624451,1910
808.743286,1895
808.862122,1907
808.980896,1971
809.099731,1945
809.218506,1956
809.337341,1918
809.456116,1969
809.57489,1954
809.693726,1956
809.8125,1956
809.931274,1957
810.050049,1858
810.168884,1961
810.287659,1941
810.406372,1952
810.525269,1938
810.643982,1892
810.762756,1990
810.881531,1938
811.000305,2008
811.11908,1955
811.237854,1979
811.356567,1902
811.475403,1922
811.594116,1967
811.71283,1937
811.831604,1997
811.950378,1967
812.069153,1997
812.187927,1939
812.30658,1965
812.425415,1973
812.544128,1997
812.662781,1948
812.781616,1981
812.900269,1931
813.019043,1955
813.137756,1995
813.256531,1957
813.375244,1946
813.493896,1933
813.612671,1938
813.731384,1990
813.850037,1965
813.96875,1915
814.087524,1914
814.206238,1961
814.324951,1931
814.443604,1903
814.562256,1972
814.68103,1978
814.799683,1927
814.918335,1900
815.037109,1881
815.155762,1954
815.274475,1861
815.393188,1925
815.511841,1883
815.630554,1945
815.749146,1905
815.867859,1873
815.986572,1834
816.105164,1810
816.223877,1862
816.342529,1853
816.461182,1864
816.579895,1914
816.698486,1915
816.817139,1867
816.935791,1899
817.054504,1889
817.173096,1925
817.291748,1853
817.4104,1852
817.529053,1853
817.647644,1808
817.766235,1774
817.884949,1797
818.00354,1724
818.122192,1787
818.240845,1686
818.359436,1681
818.478088,1687
818.59668,1630
818.715271,1639
818.833923,1628
818.952515,1610
819.071106,1555
819.189758,1551
819.30835,1549
819.426941,1531
819.545532,1492
819.664124,1573
819.782715,1522
819.901306,1511
820.019897,1482
820.138489,1457
820.25708,1525
820.375671,1477
820.494202,1501
820.612732,1501
820.731384,1482
820.849915,1490
820.968506,1478
821.087097,1451
821.205627,1456
821.324158,1474
821.442749,1464
821.561279,1453
821.679871,1426
821.798401,1446
821.916931,1478
822.035461,1418
822.154053,1421
822.272583,1412
822.391174,1386
822.509583,1441
822.628174,1435
822.746704,1417
822.865234,1425
822.983765,1418
823.102295,1434
823.220825,1419
823.339294,1414
823.457825,1430
823.576355,1442
823.694824,1471
823.813354,1421
823.931885,1418
824.050354,1408
824.168884,1428
824.287354,1415
824.405823,1444
824.524353,1399
824.642822,1468
824.761353,1468
824.879822,1478
824.998291,1478
825.116699,1441
825.235291,1449
825.353699,1415
825.472168,1391
825.590637,1421
825.709106,1394
825.827576,1426
825.946045,1428
826.064453,1369
826.182983,1385
826.301392,1395
826.4198,1385
826.53833,1322
826.656738,1379
826.775208,1337
826.893677,1379
827.012024,1343
827.130493,1419
827.248962,1347
827.36731,1371
827.485779,1380
827.604248,1407
827.722595,1370
827.841064,1345
827.959412,1370
828.077942,1305
828.196289,1353
828.314636,1346
828.433105,1371
828.551514,1354
828.669861,1372
828.78833,1339
828.906677,1361
829.025085,1374
829.143433,1330
829.261841,1341
829.38031,1326
829.498657,1335
829.617004,1345
829.735413,1354
829.85376,1349
829.972107,1378
830.090515,1304
830.208862,1371
830.327209,1312
830.445557,1310
830.563904,1355
830.682312,1371
830.800659,1333
830.919006,1341
831.037354,1334
831.155701,1387
831.274048,1390
831.392395,1355
831.51062,1331
831.629028,1311
831.747314,1350
831.865662,1330
831.984009,1354
832.102356,1340
832.220642,1329
832.338928,1354
832.457275,1350
832.575623,1333
832.693909,1315
832.812134,1370
832.930481,1337
833.048828,1385
833.167114,1351
833.2854,1362
833.403687,1374
833.521973,1373
833.640259,1334
833.758545,1352
833.876831,1310
833.995056,1384
834.113281,1347
834.231628,1348
834.349915,1352
834.468201,1356
834.586426,1390
834.704651,1346
834.822998,1385
834.941162,1340
835.059448,1352
835.177673,1366
835.295959,1414
835.414246,1394
835.53241,1348
835.650635,1330
835.768921,1348
835.887146,1350
836.005371,1367
836.123596,1334
836.241821,1359
836.360046,1390
836.478271,1360
836.596497,1376
836.714722,1377
836.832886,1397
836.95105,1396
837.069336,1369
837.1875,1378
837.305725,1405
837.423889,1424
837.542053,1386
837.660339,1401
837.778503,1344
837.896667,1403
838.014832,1394
838.132996,1415
838.25116,1398
838.369385,1407
838.487488,1415
838.605713,1366
838.723877,1369
838.84198,1403
838.960205,1408
839.078308,1389
839.196472,1365
839.314636,1419
839.4328,1418
839.550964,1381
839.669067,1365
839.787231,1364
839.905396,1410
840.023499,1378
840.141602,1415
840.259766,1380
840.377869,1417
840.495972,1411
840.614136,1367
840.732239,1396
840.850342,1358
840.968445,1387
841.086548,1413
841.204651,1395
841.322754,1387
841.440918,1393
841.55896,1408
841.677002,1387
841.795166,1379
841.913208,1419
842.031311,1348
842.149353,1388
842.267456,1392
842.385498,1326
842.503601,1373
842.621643,1319
842.739746,1395
842.857788,1386
842.97583,1388
843.093933,1355
843.211975,1353
843.330017,1380
843.44812,1404
843.566101,1350
843.684204,1375
843.802246,1371
843.920227,1374
844.038269,1399
844.156311,1393
844.274292,1385
844.392395,1403
844.510376,1379
844.628357,1325
844.74646,1359
844.864441,1379
844.982422,1326
845.100403,1335
845.218384,1340
845.336426,1354
845.454468,1361
845.572449,1364
845.69043,1371
845.808411,1332
845.926453,1311
846.044373,1382
846.162354,1344
846.280396,1369
846.398315,1390
846.516296,1337
846.634216,1344
846.752197,1318
846.870178,1329
846.988098,1355
847.106079,1346
847.22406,1315
847.34198,1354
847.4599,1358
847.577881,1338
847.695801,1327
847.813782,1307
847.931641,1352
848.049561,1338
848.167603,1366
848.285461,1306
848.403381,1333
848.521362,1342
848.639221,1372
848.75708,1366
848.875,1366
848.99292,1377
849.110901,1355
849.22876,1357
849.34668,1314
849.464539,1344
849.582458,1364
849.700317,1345
849.818176,1334
849.936096,1373
850.053955,1371
850.171875,1343
850.289673,1358
850.407593,1322
850.525452,1364
850.643311,1378
850.761169,1355
850.878967,1312
850.996887,1351
851.114746,1363
851.232544,1321
851.350403,1361
851.468262,1341
851.58606,1343
851.703979,1357
851.821777,1362
851.939636,1315
852.057434,1363
852.175232,1337
852.293091,1371
852.410889,1342
852.528687,1392
852.646545,1396
852.764343,1397
852.88208,1386
852.999939,1374
853.117676,1336
853.235535,1385
853.353271,1358
853.471069,1353
853.588928,1338
853.706604,1382
853.824402,1328
853.9422,1400
854.059998,1335
854.177734,1373
854.295532,1377
854.413269,1367
854.531006,1382
854.648804,1356
854.766541,1388
854.884277,1360
855.002014,1364
855.119751,1359
855.237549,1369
855.355225,1380
855.473022,1386
855.590698,1353
855.708435,1398
855.826172,1392
855.943848,1362
856.061646,1371
856.179321,1403
856.296997,1348
856.414795,1446
856.53241,1396
856.650085,1385
856.767822,1395
856.885559,1443
857.003174,1346
857.120911,1423
857.238586,1406
857.356201,1414
857.473938,1399
857.591614,1390
857.709351,1371
857.826965,1373
857.944641,1396
858.062317,1357
858.179993,1383
858.297668,1367
858.415283,1416
858.532959,1449
858.650574,1421
858.768188,1386
858.885803,1438
859.003479,1390
859.121094,1448
859.23877,1397
859.356384,1389
859.473999,1367
859.591675,1380
859.709229,1369
859.826843,1393
859.944458,1369
860.062012,1333
860.179626,1376
860.297302,1364
860.414856,1403
860.532471,1354
860.650024,1363
860.767639,1311
860.885193,1399
861.002808,1363
861.120361,1315
861.237976,1353
861.35553,1370
861.473022,1368
861.590698,1387
861.708191,1363
861.825745,1402
861.943298,1334
862.060852,1344
862.178406,1340
862.295959,1358
862.413513,1355
862.531006,1368
862.64856,1404
862.766113,1351
862.883667,1378
863.00116,1288
863.118713,1366
863.236206,1320
863.353699,1327
863.471252,1349
863.588745,1384
863.706177,1330
863.82373,1357
863.941162,1373
864.058716,1360
864.176208,1352
864.29364,1378
864.411194,1342
864.528687,1336
864.646118,1363
864.763611,1399
864.881042,1355
864.998535,1333
865.116028,1400
865.233459,1326
865.350891,1332
865.468384,1335
865.585754,1407
865.703308,1410
865.820679,1377
865.938171,1362
866.055542,1340
866.173035,1361
866.290466,1359
866.407837,1337
866.52533,1334
866.6427,1348
866.760071,1362
866.877563,1376
866.994934,1353
867.112305,1335
867.229736,1431
867.347107,1335
867.464539,1392
867.58197,1350
867.699341,1385
867.81665,1386
867.934082,1378
868.051453,1366
868.168823,1396
868.286194,1366
868.403564,1368
868.520935,1332
868.638306,1387
868.755676,1384
868.872986,1356
868.990295,1386
869.107727,1331
869.225037,1405
869.342346,1416
869.459717,1451
869.577026,1327
869.694336,1360
869.811707,1389
869.929016,1424
870.046326,1347
870.163635,1384
870.280945,1451
870.398254,1401
870.515564,1425
870.632812,1398
870.750183,1380
870.867432,1456
870.984741,1376
871.102051,1375
871.219299,1456
871.336609,1439
871.453918,1412
871.571106,1406
871.688416,1411
871.805664,1364
871.922852,1428
872.040222,1410
872.157471,1399
872.274719,1402
872.391968,1422
872.509155,1410
872.626465,1395
872.743652,1375
872.860962,1440
872.978149,1402
873.095337,1370
873.212646,1430
873.329834,1371
873.44696,1429
873.564209,1405
873.681396,1403
873.798645,1385
873.915894,1385
874.03302,1378
874.150208,1404
874.267456,1424
874.384583,1363
874.501831,1436
874.618958,1363
874.736145,1436
874.853333,1442
874.970459,1404
875.087646,1352
875.204834,1409
875.32196,1406
875.439148,1392
875.556274,1376
875.673401,1384
875.790527,1383
875.907715,1437
876.024841,1409
876.141968,1384
876.259094,1431
876.376282,1365
876.493347,1392
876.610474,1421
876.7276,1438
876.844727,1378
876.961853,1373
877.078918,1439
877.195984,1411
877.313171,1387
877.430237,1387
877.547302,1369
877.664368,1364
877.781433,1391
877.898499,1388
878.015625,1348
878.13269,1395
878.249695,1379
878.366821,1334
878.483887,1406
878.600952,1400
878.717957,1427
878.834961,1390
878.952087,1390
879.069092,1395
879.186157,1356
879.303162,1373
879.420227,1360
879.537231,1374
879.654236,1389
879.77124,1379
879.888306,1373
880.005249,1391
880.122314,1345
880.239319,1335
880.356323,1391
880.473328,1356
880.590271,1341
880.707275,1394
880.824341,1373
880.941284,1376
881.058228,1379
881.175232,1364
881.292236,1378
881.40918,1381
881.526123,1373
881.643066,1394
881.760071,1373
881.877014,1377
881.993958,1365
882.11084,1369
882.227783,1340
882.344727,1376
882.46167,1351
882.578613,1370
882.695618,1349
882.812439,1388
882.929382,1338
883.046326,1374
883.163208,1373
883.280151,1389
883.397034,1344
883.513916,1407
883.630798,1384
883.747742,1418
883.864563,1392
883.981506,1427
884.098389,1409
884.21521,1434
884.332153,1347
884.448975,1379
884.565796,1453
884.682678,1398
884.7995,1441
884.916443,1443
885.033264,1451
885.150085,1450
885.266968,1518
885.383789,1523
885.500671,1501
885.617493,1522
885.734314,1549
885.851196,1533
885.967896,1447
886.084717,1502
886.201599,1553
886.318359,1518
886.435181,1476
886.552002,1489
886.668762,1502
886.785645,1469
886.902344,1480
887.019165,1505
887.135925,1446
887.252747,1439
887.369446,1450
887.486267,1463
887.603027,1470
887.719788,1426
887.836548,1424
887.953247,1424
888.070068,1442
888.186829,1412
888.303528,1402
888.420288,1429
888.536987,1339
888.653687,1394
888.770447,1419
888.887146,1409
889.003967,1385
889.120667,1374
889.237305,1368
889.354065,1375
889.470703,1386
889.587463,1347
889.704163,1394
889.820862,1344
889.937561,1389
890.054199,1384
890.170837,1366
890.287598,1378
890.404236,1407
890.520874,1368
890.637634,1404
890.754211,1356
890.87085,1391
890.987549,1415
891.104187,1376
891.220886,1375
891.337463,1390
891.454102,1356
891.57074,1438
891.687378,1441
891.804077,1402
891.920654,1408
892.037231,1396
892.15387,1422
892.270447,1338
892.387085,1412
892.503723,1420
892.6203,1422
892.736877,1356
892.853516,1451
892.970032,1387
893.08667,1402
893.203186,1396
893.319763,1367
893.43634,1375
893.552917,1435
893.669556,1388
893.786011,1410
893.902588,1381
894.019165,1366
894.135681,1389
894.252197,1372
894.368835,1335
894.485291,1380
894.601868,1395
894.718384,1376
894.8349,1395
894.951355,1385
895.067932,1378
895.184448,1398
895.300964,1425
895.417419,1398
895.533936,1393
895.650452,1401
895.766907,1410
895.883423,1437
895.999878,1442
896.116333,1464
896.232849,1407
896.349304,1407
896.465759,1388
896.582214,1405
896.698669,1404
896.815125,1434
896.931641,1397
897.048035,1373
897.164551,1411
897.280884,1392
897.397339,1391
897.513794,1438
897.630249,1383
897.746582,1377
897.863098,1397
897.979431,1434
898.095886,1408
898.212341,1411
898.328674,1421
898.445129,1399
898.561462,1441
898.677795,1417
898.794312,1422
898.910645,1387
899.026978,1408
899.143433,1430
899.259766,1382
899.37616,1428
899.492493,1430
899.608765,1426
899.725159,1426
899.841553,1392
899.957947,1421
900.07428,1400
900.190552,1430
900.306946,1414
900.423157,1423
900.53949,1404
900.655884,1428
900.772156,1481
900.888489,1434
901.004822,1433
901.121033,1389
901.237366,1414
901.353699,1472
901.46991,1466
901.586304,1484
901.702515,1454
901.818787,1454
901.93512,1432
902.051331,1443
902.167603,1443
902.283875,1453
902.400085,1456
902.516418,1493
902.632629,1511
902.74884,1497
902.865112,1528
902.981384,1527
903.097595,1493
903.213867,1435
903.330017,1470
903.446289,1488
903.5625,1484
903.67865,1493
903.794922,1522
903.911072,1463
904.027344,1486
904.143494,1444
904.259705,1456
904.375916,1454
904.492065,1444
904.608215,1460
904.724426,1445
904.840576,1426
904.956726,1442
905.072876,1459
905.189087,1448
905.305176,1441
905.421387,1482
905.537537,1426
905.653687,1452
905.769775,1438
905.885925,1458
906.002014,1406
906.118164,1460
906.234314,1435
906.350403,1451
906.466492,1487
906.582642,1439
906.69873,1412
906.814758,1461
906.930908,1429
907.046936,1461
907.163086,1413
907.279175,1412
907.395264,1453
907.511353,1448
907.62738,1433
907.743408,1422
907.859497,1398
907.975525,1429
908.091553,1428
908.207703,1417
908.32373,1404
908.439758,1439
908.555786,1418
908.671814,1435
908.787842,1403
908.90387,1400
909.019775,1436
909.135864,1445
909.251892,1441
909.367859,1445
909.483826,1413
909.599854,1459
909.715881,1464
909.831848,1457
909.947815,1461
910.063782,1423
910.179749,1476
910.295776,1431
910.411743,1368
910.527649,1416
910.643616,1408
910.759583,1396
910.875488,1465
910.991455,1438
911.107361,1440
911.223267,1425
911.339294,1437
911.4552,1430
911.571106,1417
911.687073,1450
911.802979,1433
911.918823,1450
912.034729,1461
912.150635,1453
912.266602,1438
912.382446,1446
912.498352,1400
912.614197,1450
912.730103,1443
912.846008,1416
792.44574,2707
792.56488,2700
792.68396,2653
792.80304,2622
792.92218,2601
793.041199,2500
793.160339,2490
793.279419,2425
793.398499,2433
793.517578,2419
793.636658,2399
793.755737,2323
793.874817,2378
793.993896,2308
794.112976,2328
794.232056,2331
794.351074,2262
794.470215,2248
794.589233,2260
794.708313,2121
794.827393,2207
794.946411,2190
795.065552,2169
795.18457,2135
795.303589,2116
795.422668,2139
795.541687,2147
795.660767,2104
795.779846,2095
795.898865,2113
796.017883,2089
796.136963,2073
796.255981,2060
796.375061,2056
796.49408,2049
796.613037,2051
796.732117,1933
796.851135,1978
796.970154,2020
797.089233,2007
797.208191,1944
797.327271,1973
797.446228,2000
797.565186,1979
797.684265,1984
797.803223,2013
797.922241,1962
798.04126,1930
798.160278,1949
798.279297,2014
798.398315,1987
798.517273,1930
798.636292,1926
798.75531,1955
798.874268,1931
798.993286,1955
799.112244,1959
799.231323,1901
799.350281,1962
799.469238,1902
799.588257,1927
799.707153,1935
799.826111,1948
799.945129,1912
800.064087,1940
800.183044,1893
800.302063,1960
800.421021,1910
800.539978,1912
800.658936,1890
800.777893,1925
800.896912,1876
801.015747,1938
801.134705,1899
801.253723,1962
801.37262,1916
801.491638,1909
801.610535,1925
801.729492,1915
801.84845,1905
801.967407,1972
802.086243,1900
802.205261,1885
802.324158,1899
802.443115,1904
802.562073,1903
802.680969,1977
802.799927,1920
802.918762,1952
803.037659,1905
803.156677,1943
803.275574,1917
803.39447,1940
803.513428,1860
803.632263,1903
803.751221,1907
803.870117,1960
803.989014,1941
804.107971,1983
804.226746,1930
804.345642,1921
804.4646,1883
804.583496,1915
804.702393,1941
804.821228,1928
804.940125,1931
805.059021,1919
805.177917,1915
805.296814,1896
805.415649,1977
805.534546,1933
805.653442,1889
805.772278,1971
805.891113,1954
806.01001,1933
806.128906,1922
806.247742,1940
806.366577,1982
806.485413,1985
806.604309,1901
806.723145,1889
806.84198,1955
806.960876,1943
807.079712,1948
807.198486,1899
807.317383,1985
807.436218,1914
807.554993,1944
807.673889,1965
807.792725,1934
807.91156,1947
808.030396,1964
808.14917,1950
808.268005,1951
808.386841,1981
808.505676,1960
808.624451,1955
808.743286,1964
808.862122,1978
808.980896,1951
809.099731,1998
809.218506,1943
809.337341,1932
809.456116,1966
809.57489,1982
809.693726,2017
809.8125,1977
809.931274,1970
810.050049,1956
810.168884,1977
810.287659,1955
810.406372,1945
810.525269,1988
810.643982,1941
810.762756,2023
810.881531,1938
811.000305,1944
811.11908,1961
811.237854,1995
811.356567,1969
811.475403,2024
811.594116,1984
811.71283,1983
811.831604,1994
811.950378,1995
812.069153,1947
812.187927,2004
812.30658,2056
812.425415,2030
812.544128,2001
812.662781,2003
812.781616,1979
812.900269,2012
813.019043,2022
813.137756,2000
813.256531,2048
813.375244,1993
813.493896,2004
813.612671,1994
813.731384,1940
813.850037,1975
813.96875,1960
814.087524,1952
814.206238,1977
814.324951,1939
814.443604,1966
814.562256,2003
814.68103,1959
814.799683,1973
814.918335,1998
815.037109,1952
815.155762,1951
815.274475,1943
815.393188,1931
815.511841,1936
815.630554,1886
815.749146,1903
815.867859,1906
815.986572,1883
816.105164,1876
816.223877,1906
816.342529,1913
816.461182,1905
816.579895,1901
816.698486,1914
816.817139,1905
816.935791,1963
817.054504,1932
817.173096,1917
817.291748,1896
817.4104,1874
817.529053,1846
817.647644,1824
817.766235,1738
817.884949,1838
818.00354,1766
818.122192,1753
818.240845,1719
818.359436,1774
818.478088,1665
818.59668,1652
818.715271,1631
818.833923,1621
818.952515,1612
819.071106,1610
819.189758,1589
819.30835,1568
819.426941,1554
819.545532,1566
819.664124,1567
819.782715,1559
819.901306,1542
820.019897,1597
820.138489,1551
820.25708,1541
820.375671,1520
820.494202,1507
820.612732,1498
820.731384,1491
820.849915,1521
820.968506,1490
821.087097,1451
821.205627,1514
821.324158,1455
821.442749,1478
821.561279,1458
821.679871,1528
821.798401,1466
821.916931,1466
822.035461,1490
822.154053,1442
822.272583,1443
822.391174,1484
822.509583,1439
822.628174,1485
822.746704,1454
822.865234,1446
822.983765,1469
823.102295,1437
823.220825,1462
823.339294,1404
823.457825,1448
823.576355,1464
823.694824,1442
823.813354,1501
823.931885,1437
824.050354,1474
824.168884,1494
824.287354,1468
824.405823,1451
824.524353,1478
824.642822,1482
824.761353,1475
824.879822,1454
824.998291,1441
825.116699,1478
825.235291,1433
825.353699,1470
825.472168,1441
825.590637,1466
825.709106,1399
825.827576,1471
825.946045,1409
826.064453,1387
826.182983,1413
826.301392,1390
826.4198,1425
826.53833,1380
826.656738,1448
826.775208,1410
826.893677,1399
827.012024,1424
827.130493,1367
827.248962,1402
827.36731,1382
827.485779,1421
827.604248,1395
827.722595,1391
827.841064,1407
827.959412,1345
828.077942,1374
828.196289,1377
828.314636,1387
828.433105,1370
828.551514,1401
828.669861,1362
828.78833,1365
828.906677,1381
829.025085,1396
829.143433,1337
829.261841,1359
829.38031,1387
829.498657,1344
829.617004,1378
829.735413,1369
829.85376,1375
829.972107,1374
830.090515,1384
830.208862,1380
830.327209,1361
830.445557,1370
830.563904,1343
830.682312,1382
830.800659,1361
830.919006,1381
831.037354,1366
831.155701,1393
831.274048,1361
831.392395,1377
831.51062,1337
831.629028,1366
831.747314,1408
831.865662,1398
831.984009,1371
832.102356,1425
832.220642,1367
832.338928,1408
832.457275,1362
832.575623,1426
832.693909,1357
832.812134,1431
832.930481,1354
833.048828,1395
833.167114,1368
833.2854,1351
833.403687,1390
833.521973,1393
833.640259,1357
833.758545,1401
833.876831,1357
833.995056,1352
834.113281,1406
834.231628,1406
834.349915,1354
834.468201,1383
834.586426,1373
834.704651,1384
834.822998,1389
834.941162,1431
835.059448,1378
835.177673,1359
835.295959,1395
835.414246,1374
835.53241,1349
835.650635,1395
835.768921,1382
835.887146,1380
836.005371,1408
836.123596,1386
836.241821,1387
836.360046,1363
836.478271,1415
836.596497,1395
836.714722,1371
836.832886,1408
836.95105,1388
837.069336,1448
837.1875,1372
837.305725,1420
837.423889,1421
837.542053,1460
837.660339,1382
837.778503,1437
837.896667,1406
838.014832,1469
838.132996,1429
838.25116,1425
838.369385,1419
838.487488,1423
838.605713,1384
838.723877,1481
838.84198,1439
838.960205,1427
839.078308,1400
839.196472,1402
839.314636,1448
839.4328,1451
839.550964,1398
839.669067,1438
839.787231,1438
839.905396,1410
840.023499,1452
840.141602,1450
840.259766,1435
840.377869,1416
840.495972,1429
840.614136,1441
840.732239,1435
840.850342,1384
840.968445,1434
841.086548,1441
841.204651,1444
841.322754,1443
841.440918,1443
841.55896,1397
841.677002,1456
841.795166,1433
841.913208,1378
842.031311,1392
842.149353,1439
842.267456,1378
842.385498,1378
842.503601,1395
842.621643,1402
842.739746,1358
842.857788,1372
842.97583,1367
843.093933,1367
843.211975,1400
843.330017,1383
843.44812,1394
843.566101,1431
843.684204,1388
843.802246,1396
843.920227,1389
844.038269,1370
844.156311,1398
844.274292,1384
844.392395,1366
844.510376,1422
844.628357,1383
844.74646,1355
844.864441,1408
844.982422,1396
845.100403,1367
845.218384,1336
845.336426,1360
845.454468,1377
845.572449,1376
845.69043,1354
845.808411,1399
845.926453,1348
846.044373,1331
846.162354,1342
846.280396,1384
846.398315,1384
846.516296,1359
846.634216,1360
846.752197,1346
846.870178,1356
846.988098,1387
847.106079,1416
847.22406,1352
847.34198,1348
847.4599,1418
847.577881,1386
847.695801,1408
847.813782,1355
847.931641,1366
848.049561,1398
848.167603,1390
848.285461,1385
848.403381,1398
848.521362,1381
848.639221,1352
848.75708,1369
848.875,1354
848.99292,1379
849.110901,1389
849.22876,1431
849.34668,1385
849.464539,1360
849.582458,1364
849.700317,1403
849.818176,1377
849.936096,1365
850.053955,1412
850.171875,1345
850.289673,1410
850.407593,1328
850.525452,1399
850.643311,1367
850.761169,1388
850.878967,1402
850.996887,1388
851.114746,1373
851.232544,1375
851.350403,1348
851.468262,1377
851.58606,1358
851.703979,1355
851.821777,1352
851.939636,1356
852.057434,1375
852.175232,1391
852.293091,1400
852.410889,1406
852.528687,1442
852.646545,1448
852.764343,1397
852.88208,1437
852.999939,1436
853.117676,1419
853.235535,1445
853.353271,1370
853.471069,1420
853.588928,1421
853.706604,1446
853.824402,1380
853.9422,1380
854.059998,1392
854.177734,1383
854.295532,1418
854.413269,1383
854.531006,1422
854.648804,1418
854.766541,1463
854.884277,1408
855.002014,1445
855.119751,1385
855.237549,1410
855.355225,1374
855.473022,1426
855.590698,1376
855.708435,1444
855.826172,1394
855.943848,1386
856.061646,1439
856.179321,1410
856.296997,1421
856.414795,1400
856.53241,1420
856.650085,1428
856.767822,1449
856.885559,1435
857.003174,1427
857.120911,1448
857.238586,1429
857.356201,1426
857.473938,1396
857.591614,1404
857.709351,1414
857.826965,1448
857.944641,1428
858.062317,1451
858.179993,1424
858.297668,1436
858.415283,1407
858.532959,1429
858.650574,1405
858.768188,1389
858.885803,1429
859.003479,1421
859.121094,1418
859.23877,1417
859.356384,1405
859.473999,1379
859.591675,1350
859.709229,1440
859.826843,1355
859.944458,1383
860.062012,1387
860.179626,1397
860.297302,1425
860.414856,1355
860.532471,1392
860.650024,1358
860.767639,1397
860.885193,1398
861.002808,1388
861.120361,1400
861.237976,1423
861.35553,1407
861.473022,1368
861.590698,1377
861.708191,1396
861.825745,1431
861.943298,1365
862.060852,1377
862.178406,1383
862.295959,1359
862.413513,1367
862.531006,1401
862.64856,1375
862.766113,1378
862.883667,1369
863.00116,1355
863.118713,1432
863.236206,1352
863.353699,1391
863.471252,1384
863.588745,1375
863.706177,1394
863.82373,1388
863.941162,1389
864.058716,1382
864.176208,1374
864.29364,1426
864.411194,1368
864.528687,1389
864.646118,1412
864.763611,1363
864.881042,1393
864.998535,1370
865.116028,1391
865.233459,1373
865.350891,1365
865.468384,1381
865.585754,1402
865.703308,1398
865.820679,1344
865.938171,1391
866.055542,1391
866.173035,1401
866.290466,1426
866.407837,1381
866.52533,1397
866.6427,1391
866.760071,1414
866.877563,1392
866.994934,1394
867.112305,1394
867.229736,1394
867.347107,1384
867.464539,1400
867.58197,1382
867.699341,1394
867.81665,1420
867.934082,1368
868.051453,1390
868.168823,1412
868.286194,1383
868.403564,1406
868.520935,1390
868.638306,1457
868.755676,1366
868.872986,1444
868.990295,1359
869.107727,1383
869.225037,1401
869.342346,1426
869.459717,1441
869.577026,1375
869.694336,1407
869.811707,1380
869.929016,1385
870.046326,1408
870.163635,1424
870.280945,1442
870.398254,1409
870.515564,1403
870.632812,1448
870.750183,1431
870.867432,1426
870.984741,1399
871.102051,1426
871.219299,1424
871.336609,1447
871.453918,1449
871.571106,1476
871.688416,1450
871.805664,1435
871.922852,1419
872.040222,1443
872.157471,1411
872.274719,1425
872.391968,1472
872.509155,1425
872.626465,1417
872.743652,1434
872.860962,1463
872.978149,1450
873.095337,1431
873.212646,1439
873.329834,1427
873.44696,1453
873.564209,1450
873.681396,1454
873.798645,1377
873.915894,1412
874.03302,1442
874.150208,1428
874.267456,1411
874.384583,1441
874.501831,1429
874.618958,1477
874.736145,1492
874.853333,1463
874.970459,1418
875.087646,1472
875.204834,1448
875.32196,1415
875.439148,1372
875.556274,1453
875.673401,1483
875.790527,1415
875.907715,1451
876.024841,1428
876.141968,1435
876.259094,1417
876.376282,1385
876.493347,1439
876.610474,1464
876.7276,1441
876.844727,1433
876.961853,1404
877.078918,1423
877.195984,1388
877.313171,1424
877.430237,1386
877.547302,1408
877.664368,1413
877.781433,1425
877.898499,1435
878.015625,1389
878.13269,1428
878.249695,1401
878.366821,1401
878.483887,1426
878.600952,1388
878.717957,1443
878.834961,1443
878.952087,1401
879.069092,1387
879.186157,1445
879.303162,1413
879.420227,1420
879.537231,1430
879.654236,1421
879.77124,1347
879.888306,1419
880.005249,1410
880.122314,1384
880.239319,1408
880.356323,1424
880.473328,1409
880.590271,1369
880.707275,1389
880.824341,1390
880.941284,1387
881.058228,1441
881.175232,1377
881.292236,1433
881.40918,1404
881.526123,1384
881.643066,1414
881.760071,1375
881.877014,1380
881.993958,1430
882.11084,1369
882.227783,1387
882.344727,1390
882.46167,1400
882.578613,1407
882.695618,1400
882.812439,1480
882.929382,1411
883.046326,1408
883.163208,1353
883.280151,1401
883.397034,1398
883.513916,1438
883.630798,1431
883.747742,1399
883.864563,1411
883.981506,1413
884.098389,1396
884.21521,1424
884.332153,1457
884.448975,1424
884.565796,1426
884.682678,1453
884.7995,1453
884.916443,1455
885.033264,1459
885.150085,1538
885.266968,1532
885.383789,1571
885.500671,1521
885.617493,1537
885.734314,1541
885.851196,1543
885.967896,1539
886.084717,1522
886.201599,1519
886.318359,1501
886.435181,1522
886.552002,1503
886.668762,1505
886.785645,1508
886.902344,1518
887.019165,1484
887.135925,1515
887.252747,1515
887.369446,1485
887.486267,1460
887.603027,1487
887.719788,1462
887.836548,1455
887.953247,1450
888.070068,1449
888.186829,1451
888.303528,1444
888.420288,1466
888.536987,1435
888.653687,1369
888.770447,1407
888.887146,1407
889.003967,1449
889.120667,1398
889.237305,1459
889.354065,1389
889.470703,1437
889.587463,1384
889.704163,1433
889.820862,1360
889.937561,1452
890.054199,1405
890.170837,1452
890.287598,1409
890.404236,1411
890.520874,1399
890.637634,1434
890.754211,1404
890.87085,1392
890.987549,1414
891.104187,1483
891.220886,1424
891.337463,1450
891.454102,1387
891.57074,1445
891.687378,1446
891.804077,1461
891.920654,1423
892.037231,1411
892.15387,1445
892.270447,1444
892.387085,1398
892.503723,1404
892.6203,1435
892.736877,1363
892.853516,1413
892.970032,1396
893.08667,1444
893.203186,1380
893.319763,1461
893.43634,1399
893.552917,1460
893.669556,1414
893.786011,1417
893.902588,1414
894.019165,1419
894.135681,1457
894.252197,1456
894.368835,1446
894.485291,1421
894.601868,1436
894.718384,1372
894.8349,1452
894.951355,1424
895.067932,1444
895.184448,1402
895.300964,1458
895.417419,1476
895.533936,1426
895.650452,1396
895.766907,1466
895.883423,1377
895.999878,1459
896.116333,1450
896.232849,1395
896.349304,1437
896.465759,1452
896.582214,1462
896.698669,1428
896.815125,1443
896.931641,1414
897.048035,1419
897.164551,1411
897.280884,1399
897.397339,1418
897.513794,1457
897.630249,1433
897.746582,1404
897.863098,1427
897.979431,1457
898.095886,1446
898.212341,1448
898.328674,1435
898.445129,1466
898.561462,1427
898.677795,1442
898.794312,1470
898.910645,1443
899.026978,1460
899.143433,1423
899.259766,1504
899.37616,1422
899.492493,1457
899.608765,1449
899.725159,1467
899.841553,1446
899.957947,1452
900.07428,1464
900.190552,1444
900.306946,1456
900.423157,1454
900.53949,1449
900.655884,1496
900.772156,1453
900.888489,1379
901.004822,1462
901.121033,1444
901.237366,1417
901.353699,1475
901.46991,1435
901.586304,1510
901.702515,1475
901.818787,1460
901.93512,1504
902.051331,1487
902.167603,1507
902.283875,1546
902.400085,1508
902.516418,1524
902.632629,1527
902.74884,1515
902.865112,1536
902.981384,1495
903.097595,1562
903.213867,1542
903.330017,1495
903.446289,1501
903.5625,1579
903.67865,1549
903.794922,1504
903.911072,1525
904.027344,1498
904.143494,1528
904.259705,1499
904.375916,1520
904.492065,1444
904.608215,1541
904.724426,1443
904.840576,1506
904.956726,1489
905.072876,1457
905.189087,1470
905.305176,1502
905.421387,1448
905.537537,1458
905.653687,1437
905.769775,1444
905.885925,1499
906.002014,1472
906.118164,1440
906.234314,1489
906.350403,1495
906.466492,1480
906.582642,1492
906.69873,1419
906.814758,1486
906.930908,1470
907.046936,1488
907.163086,1484
907.279175,1452
907.395264,1522
907.511353,1487
907.62738,1486
907.743408,1447
907.859497,1471
907.975525,1416
908.091553,1528
908.207703,1470
908.32373,1458
908.439758,1473
908.555786,1488
908.671814,1477
908.787842,1488
908.90387,1426
909.019775,1444
909.135864,1461
909.251892,1462
909.367859,1488
909.483826,1503
909.599854,1411
909.715881,1472
909.831848,1479
909.947815,1500
910.063782,1511
910.179749,1504
910.295776,1470
910.411743,1484
910.527649,1469
910.643616,1457
910.759583,1495
910.875488,1471
910.991455,1478
911.107361,1470
911.223267,1450
911.339294,1512
911.4552,1486
911.571106,1466
911.687073,1497
911.802979,1460
911.918823,1495
912.034729,1493
912.150635,1496
912.266602,1501
912.382446,1442
912.498352,1459
912.614197,1465
912.730103,1460
912.846008,1430
792.44574,2720
792.56488,2718
792.68396,2721
792.80304,2608
792.92218,2563
793.041199,2461
793.160339,2485
793.279419,2488
793.398499,2452
793.517578,2532
793.636658,2401
793.755737,2384
793.874817,2365
793.993896,2341
794.112976,2330
794.232056,2302
794.351074,2285
794.470215,2298
794.589233,2286
794.708313,2257
794.827393,2182
794.946411,2220
795.065552,2201
795.18457,2129
795.303589,2242
795.422668,2132
795.541687,2134
795.660767,2142
795.779846,2081
795.898865,2065
796.017883,2104
796.136963,2099
796.255981,2103
796.375061,2066
796.49408,2066
796.613037,2090
796.732117,2066
796.851135,2071
796.970154,2023
797.089233,1988
797.208191,1980
797.327271,1989
797.446228,1987
797.565186,1995
797.684265,2050
797.803223,1996
797.922241,2006
798.04126,1975
798.160278,2023
798.279297,1959
798.398315,1983
798.517273,1957
798.636292,1976
798.75531,1941
798.874268,1944
798.993286,1950
799.112244,2027
799.231323,1954
799.350281,1931
799.469238,1967
799.588257,1932
799.707153,1961
799.826111,1921
799.945129,1931
800.064087,1960
800.183044,1905
800.302063,1891
800.421021,1911
800.539978,1924
800.658936,1896
800.777893,1917
800.896912,1930
801.015747,1907
801.134705,1904
801.253723,1937
801.37262,1937
801.491638,1915
801.610535,1909
801.729492,1889
801.84845,1929
801.967407,1922
802.086243,1938
802.205261,1912
802.324158,1932
802.443115,1962
802.562073,1884
802.680969,1898
802.799927,1942
802.918762,1908
803.037659,1959
803.156677,1952
803.275574,1869
803.39447,1899
803.513428,1958
803.632263,1948
803.751221,1931
803.870117,1987
803.989014,1913
804.107971,1949
804.226746,1961
804.345642,1926
804.4646,1965
804.583496,1906
804.702393,1966
804.821228,1969
804.940125,1946
805.059021,2031
805.177917,1918
805.296814,1922
805.415649,1936
805.534546,1955
805.653442,1965
805.772278,1981
805.891113,1972
806.01001,1933
806.128906,1993
806.247742,1944
806.366577,1982
806.485413,1956
806.604309,1995
806.723145,1941
806.84198,1962
806.960876,1960
807.079712,2022
807.198486,1956
807.317383,1977
807.436218,1938
807.554993,1968
807.673889,1938
807.792725,1932
807.91156,1946
808.030396,1992
808.14917,1964
808.268005,2009
808.386841,1977
808.505676,1980
808.624451,2007
808.743286,1973
808.862122,2005
808.980896,1968
809.099731,1951
809.218506,1989
809.337341,1992
809.456116,1978
809.57489,2027
809.693726,2017
809.8125,2011
809.931274,1987
810.050049,2000
810.168884,2035
810.287659,2054
810.406372,1964
810.525269,2030
810.643982,1994
810.762756,1999
810.881531,2040
811.000305,2012
811.11908,2012
811.237854,1973
811.356567,1986
811.475403,2034
811.594116,1957
811.71283,1985
811.831604,2032
811.950378,1960
812.069153,2056
812.187927,2007
812.30658,2014
812.425415,2034
812.544128,1988
812.662781,2024
812.781616,1999
812.900269,1961
813.019043,2006
813.137756,2002
813.256531,2004
813.375244,2009
813.493896,1941
813.612671,2004
813.731384,2025
813.850037,1983
813.96875,2003
814.087524,1939
814.206238,2004
814.324951,1986
814.443604,1958
814.562256,1985
814.68103,2015
814.799683,2005
814.918335,2006
815.037109,1933
815.155762,1977
815.274475,1978
815.393188,1970
815.511841,1932
815.630554,1919
815.749146,1965
815.867859,1931
815.986572,1928
816.105164,1882
816.223877,1905
816.342529,1924
816.461182,1937
816.579895,1963
816.698486,1915
816.817139,1955
816.935791,1912
817.054504,1971
817.173096,1948
817.291748,1913
817.4104,1922
817.529053,1877
817.647644,1862
817.766235,1808
817.884949,1812
818.00354,1779
818.122192,1751
818.240845,1729
818.359436,1670
818.478088,1750
818.59668,1658
818.715271,1710
818.833923,1630
818.952515,1623
819.071106,1619
819.189758,1599
819.30835,1607
819.426941,1566
819.545532,1608
819.664124,1585
819.782715,1561
819.901306,1568
820.019897,1536
820.138489,1558
820.25708,1565
820.375671,1535
820.494202,1546
820.612732,1547
820.731384,1496
820.849915,1553
820.968506,1493
821.087097,1525
821.205627,1532
821.324158,1488
821.442749,1480
821.561279,1508
821.679871,1490
821.798401,1492
821.916931,1526
822.035461,1463
822.154053,1477
822.272583,1466
822.391174,1480
822.509583,1486
822.628174,1484
822.746704,1476
822.865234,1442
822.983765,1439
823.102295,1470
823.220825,1436
823.339294,1481
823.457825,1436
823.576355,1490
823.694824,1449
823.813354,1444
823.931885,1522
824.050354,1497
824.168884,1500
824.287354,1483
824.405823,1477
824.524353,1508
824.642822,1487
824.761353,1491
824.879822,1483
824.998291,1462
825.116699,1480
825.235291,1498
825.353699,1441
825.472168,1451
825.590637,1477
825.709106,1458
825.827576,1467
825.946045,1426
826.064453,1448
826.182983,1439
826.301392,1425
826.4198,1441
826.53833,1425
826.656738,1390
826.775208,1420
826.893677,1440
827.012024,1390
827.130493,1433
827.248962,1412
827.36731,1418
827.485779,1424
827.604248,1416
827.722595,1412
827.841064,1419
827.959412,1401
828.077942,1402
828.196289,1413
828.314636,1387
828.433105,1388
828.551514,1412
828.669861,1382
828.78833,1403
828.906677,1383
829.025085,1385
829.143433,1372
829.261841,1430
829.38031,1368
829.498657,1384
829.617004,1355
829.735413,1403
829.85376,1358
829.972107,1379
830.090515,1373
830.208862,1384
830.327209,1359
830.445557,1307
830.563904,1390
830.682312,1390
830.800659,1366
830.919006,1398
831.037354,1425
831.155701,1424
831.274048,1359
831.392395,1370
831.51062,1391
831.629028,1378
831.747314,1370
831.865662,1383
831.984009,1351
832.102356,1390
832.220642,1392
832.338928,1342
832.457275,1419
832.575623,1397
832.693909,1385
832.812134,1433
832.930481,1376
833.048828,1394
833.167114,1414
833.2854,1416
833.403687,1447
833.521973,1367
833.640259,1390
833.758545,1355
833.876831,1404
833.995056,1365
834.113281,1352
834.231628,1408
834.349915,1388
834.468201,1402
834.586426,1408
834.704651,1407
834.822998,1412
834.941162,1396
835.059448,1403
835.177673,1410
835.295959,1418
835.414246,1407
835.53241,1382
835.650635,1384
835.768921,1364
835.887146,1414
836.005371,1405
836.123596,1388
836.241821,1389
836.360046,1399
836.478271,1424
836.596497,1429
836.714722,1401
836.832886,1448
836.95105,1426
837.069336,1433
837.1875,1421
837.305725,1414
837.423889,1413
837.542053,1418
837.660339,1411
837.778503,1460
837.896667,1446
838.014832,1424
838.132996,1428
838.25116,1450
838.369385,1447
838.487488,1424
838.605713,1408
838.723877,1429
838.84198,1400
838.960205,1458
839.078308,1397
839.196472,1432
839.314636,1412
839.4328,1437
839.550964,1430
839.669067,1433
839.787231,1423
839.905396,1426
840.023499,1437
840.141602,1439
840.259766,1438
840.377869,1435
840.495972,1398
840.614136,1466
840.732239,1420
840.850342,1412
840.968445,1448
841.086548,1393
841.204651,1402
841.322754,1467
841.440918,1394
841.55896,1401
841.677002,1442
841.795166,1400
841.913208,1428
842.031311,1418
842.149353,1437
842.267456,1433
842.385498,1431
842.503601,1418
842.621643,1425
842.739746,1377
842.857788,1398
842.97583,1427
843.093933,1384
843.211975,1402
843.330017,1406
843.44812,1426
843.566101,1405
843.684204,1405
843.802246,1382
843.920227,1405
844.038269,1359
844.156311,1418
844.274292,1381
844.392395,1382
844.510376,1392
844.628357,1375
844.74646,1348
844.864441,1380
844.982422,1375
845.100403,1393
845.218384,1380
845.336426,1381
845.454468,1367
845.572449,1389
845.69043,1396
845.808411,1350
845.926453,1420
846.044373,1382
846.162354,1387
846.280396,1371
846.398315,1381
846.516296,1403
846.634216,1375
846.752197,1417
846.870178,1376
846.988098,1415
847.106079,1339
847.22406,1406
847.34198,1380
847.4599,1331
847.577881,1409
847.695801,1445
847.813782,1374
847.931641,1377
848.049561,1393
848.167603,1340
848.285461,1422
848.403381,1334
848.521362,1375
848.639221,1369
848.75708,1362
848.875,1402
848.99292,1370
849.110901,1413
849.22876,1384
849.34668,1420
849.464539,1409
849.582458,1392
849.700317,1393
849.818176,1368
849.936096,1376
850.053955,1374
850.171875,1374
850.289673,1404
850.407593,1407
850.525452,1394
850.643311,1410
850.761169,1326
850.878967,1348
850.996887,1374
851.114746,1377
851.232544,1411
851.350403,1373
851.468262,1372
851.58606,1377
851.703979,1373
851.821777,1390
851.939636,1398
852.057434,1360
852.175232,1385
852.293091,1405
852.410889,1398
852.528687,1397
852.646545,1447
852.764343,1442
852.88208,1438
852.999939,1438
853.117676,1481
853.235535,1399
853.353271,1420
853.471069,1397
853.588928,1411
853.706604,1407
853.824402,1424
853.9422,1369
854.059998,1396
854.177734,1392
854.295532,1402
854.413269,1386
854.531006,1421
854.648804,1400
854.766541,1427
854.884277,1405
855.002014,1443
855.119751,1401
855.237549,1372
855.355225,1429
855.473022,1381
855.590698,1387
855.708435,1429
855.826172,1399
855.943848,1409
856.061646,1418
856.179321,1413
856.296997,1423
856.414795,1435
856.53241,1437
856.650085,1428
856.767822,1456
856.885559,1404
857.003174,1403
857.120911,1445
857.238586,1434
857.356201,1428
857.473938,1454
857.591614,1410
857.709351,1463
857.826965,1419
857.944641,1428
858.062317,1424
858.179993,1424
858.297668,1436
858.415283,1441
858.532959,1386
858.650574,1479
858.768188,1404
858.885803,1437
859.003479,1434
859.121094,1414
859.23877,1396
859.356384,1423
859.473999,1407
859.591675,1417
859.709229,1370
859.826843,1385
859.944458,1431
860.062012,1390
860.179626,1385
860.297302,1387
860.414856,1397
860.532471,1375
860.650024,1376
860.767639,1409
860.885193,1380
861.002808,1365
861.120361,1409
861.237976,1420
861.35553,1426
861.473022,1412
861.590698,1407
861.708191,1408
861.825745,1391
861.943298,1426
862.060852,1357
862.178406,1427
862.295959,1397
862.413513,1368
862.531006,1445
862.64856,1358
862.766113,1414
862.883667,1396
863.00116,1392
863.118713,1411
863.236206,1387
863.353699,1353
863.471252,1412
863.588745,1366
863.706177,1378
863.82373,1425
863.941162,1388
864.058716,1393
864.176208,1373
864.29364,1424
864.411194,1379
864.528687,1393
864.646118,1409
864.763611,1385
864.881042,1367
864.998535,1359
865.116028,1391
865.233459,1388
865.350891,1424
865.468384,1391
865.585754,1436
865.703308,1391
865.820679,1408
865.938171,1419
866.055542,1395
866.173035,1393
866.290466,1400
866.407837,1418
866.52533,1400
866.6427,1417
866.760071,1401
866.877563,1415
866.994934,1385
867.112305,1403
867.229736,1411
867.347107,1410
867.464539,1460
867.58197,1394
867.699341,1404
867.81665,1424
867.934082,1378
868.051453,1422
868.168823,1412
868.286194,1426
868.403564,1379
868.520935,1399
868.638306,1424
868.755676,1403
868.872986,1418
868.990295,1403
869.107727,1455
869.225037,1370
869.342346,1440
869.459717,1420
869.577026,1409
869.694336,1416
869.811707,1427
869.929016,1408
870.046326,1458
870.163635,1415
870.280945,1430
870.398254,1447
870.515564,1423
870.632812,1471
870.750183,1481
870.867432,1451
870.984741,1439
871.102051,1406
871.219299,1430
871.336609,1478
871.453918,1443
871.571106,1456
871.688416,1422
871.805664,1489
871.922852,1469
872.040222,1391
872.157471,1475
872.274719,1463
872.391968,1434
872.509155,1472
872.626465,1421
872.743652,1444
872.860962,1482
872.978149,1463
873.095337,1489
873.212646,1449
873.329834,1445
873.44696,1420
873.564209,1407
873.681396,1472
873.798645,1434
873.915894,1431
874.03302,1457
874.150208,1436
874.267456,1432
874.384583,1464
874.501831,1450
874.618958,1424
874.736145,1478
874.853333,1454
874.970459,1451
875.087646,1474
875.204834,1483
875.32196,1470
875.439148,1435
875.556274,1424
875.673401,1464
875.790527,1467
875.907715,1434
876.024841,1418
876.141968,1478
876.259094,1447
876.376282,1434
876.493347,1438
876.610474,1477
876.7276,1447
876.844727,1431
876.961853,1419
877.078918,1449
877.195984,1443
877.313171,1420
877.430237,1431
877.547302,1395
877.664368,1407
877.781433,1459
877.898499,1440
878.015625,1421
878.13269,1403
878.249695,1435
878.366821,1438
878.483887,1434
878.600952,1418
878.717957,1432
878.834961,1421
878.952087,1410
879.069092,1369
879.186157,1438
879.303162,1418
879.420227,1425
879.537231,1390
879.654236,1417
879.77124,1391
879.888306,1381
880.005249,1380
880.122314,1404
880.239319,1417
880.356323,1384
880.473328,1416
880.590271,1385
880.707275,1425
880.824341,1358
880.941284,1392
881.058228,1388
881.175232,1418
881.292236,1423
881.40918,1427
881.526123,1439
881.643066,1411
881.760071,1431
881.877014,1377
881.993958,1414
882.11084,1396
882.227783,1441
882.344727,1379
882.46167,1410
882.578613,1414
882.695618,1395
882.812439,1457
882.929382,1399
883.046326,1441
883.163208,1378
883.280151,1449
883.397034,1417
883.513916,1423
883.630798,1396
883.747742,1422
883.864563,1445
883.981506,1429
884.098389,1421
884.21521,1464
884.332153,1476
884.448975,1423
884.565796,1504
884.682678,1461
884.7995,1474
884.916443,1462
885.033264,1506
885.150085,1508
885.266968,1579
885.383789,1548
885.500671,1560
885.617493,1553
885.734314,1509
885.851196,1540
885.967896,1539
886.084717,1541
886.201599,1548
886.318359,1528
886.435181,1549
886.552002,1541
886.668762,1514
886.785645,1519
886.902344,1510
887.019165,1560
887.135925,1514
887.252747,1503
887.369446,1482
887.486267,1493
887.603027,1450
887.719788,1443
887.836548,1499
887.953247,1394
888.070068,1473
888.186829,1463
888.303528,1492
888.420288,1443
888.536987,1492
888.653687,1428
888.770447,1450
888.887146,1467
889.003967,1415
889.120667,1421
889.237305,1445
889.354065,1400
889.470703,1395
889.587463,1445
889.704163,1415
889.820862,1420
889.937561,1446
890.054199,1458
890.170837,1423
890.287598,1400
890.404236,1428
890.520874,1448
890.637634,1419
890.754211,1424
890.87085,1454
890.987549,1463
891.104187,1420
891.220886,1456
891.337463,1399
891.454102,1462
891.57074,1446
891.687378,1457
891.804077,1425
891.920654,1424
892.037231,1435
892.15387,1406
892.270447,1403
892.387085,1450
892.503723,1432
892.6203,1457
892.736877,1439
892.853516,1416
892.970032,1449
893.08667,1415
893.203186,1443
893.319763,1424
893.43634,1449
893.552917,1421
893.669556,1436
893.786011,1427
893.902588,1426
894.019165,1443
894.135681,1465
894.252197,1470
894.368835,1452
894.485291,1452
894.601868,1508
894.718384,1466
894.8349,1430
894.951355,1494
895.067932,1418
895.184448,1413
895.300964,1464
895.417419,1439
895.533936,1467
895.650452,1442
895.766907,1449
895.883423,1435
895.999878,1433
896.116333,1425
896.232849,1424
896.349304,1449
896.465759,1445
896.582214,1450
896.698669,1449
896.815125,1438
896.931641,1438
897.048035,1424
897.164551,1460
897.280884,1480
897.397339,1430
897.513794,1451
897.630249,1475
897.746582,1449
897.863098,1495
897.979431,1431
898.095886,1474
898.212341,1401
898.328674,1488
898.445129,1489
898.561462,1458
898.677795,1485
898.794312,1469
898.910645,1473
899.026978,1449
899.143433,1457
899.259766,1451
899.37616,1434
899.492493,1477
899.608765,1441
899.725159,1473
899.841553,1503
899.957947,1469
900.07428,1452
900.190552,1463
900.306946,1460
900.423157,1456
900.53949,1479
900.655884,1507
900.772156,1469
900.888489,1495
901.004822,1494
901.121033,1462
901.237366,1473
901.353699,1472
901.46991,1488
901.586304,1483
901.702515,1481
901.818787,1457
901.93512,1521
902.051331,1452
902.167603,1490
902.283875,1509
902.400085,1523
902.516418,1480
902.632629,1542
902.74884,1560
902.865112,1552
902.981384,1533
903.097595,1525
903.213867,1577
903.330017,1531
903.446289,1517
903.5625,1546
903.67865,1528
903.794922,1546
903.911072,1534
904.027344,1532
904.143494,1526
904.259705,1517
904.375916,1494
904.492065,1472
904.608215,1469
904.724426,1517
904.840576,1500
904.956726,1497
905.072876,1487
905.189087,1511
905.305176,1531
905.421387,1506
905.537537,1478
905.653687,1483
905.769775,1515
905.885925,1516
906.002014,1475
906.118164,1464
906.234314,1438
906.350403,1468
906.466492,1476
906.582642,1459
906.69873,1473
906.814758,1528
906.930908,1509
907.046936,1506
907.163086,1479
907.279175,1453
907.395264,1464
907.511353,1490
907.62738,1462
907.743408,1510
907.859497,1482
907.975525,1460
908.091553,1472
908.207703,1470
908.32373,1476
908.439758,1498
908.555786,1476
908.671814,1468
908.787842,1521
908.90387,1488
909.019775,1499
909.135864,1473
909.251892,1504
909.367859,1517
909.483826,1442
909.599854,1476
909.715881,1519
909.831848,1513
909.947815,1492
910.063782,1491
910.179749,1490
910.295776,1499
910.411743,1541
910.527649,1466
910.643616,1490
910.759583,1563
910.875488,1467
910.991455,1488
911.107361,1534
911.223267,1469
911.339294,1526
911.4552,1477
911.571106,1496
911.687073,1495
911.802979,1462
911.918823,1450
912.034729,1510
912.150635,1473
912.266602,1492
912.382446,1507
912.498352,1483
912.614197,1494
912.730103,1505
912.846008,1458
