792.44574,3014
792.56488,2928
792.68396,2885
792.80304,2847
792.92218,2699
793.041199,2667
793.160339,2677
793.279419,2678
793.398499,2565
793.517578,2491
793.636658,2514
793.755737,2490
793.874817,2400
793.993896,2430
794.112976,2347
794.232056,2356
794.351074,2376
794.470215,2336
794.589233,2286
794.708313,2298
794.827393,2283
794.946411,2249
795.065552,2218
795.18457,2184
795.303589,2159
795.422668,2170
795.541687,2161
795.660767,2109
795.779846,2066
795.898865,2104
796.017883,2079
796.136963,2063
796.255981,2048
796.375061,2024
796.49408,2023
796.613037,2015
796.732117,2014
796.851135,2025
796.970154,1998
797.089233,1951
797.208191,1955
797.327271,1928
797.446228,1974
797.565186,1929
797.684265,1914
797.803223,1913
797.922241,1951
798.04126,1911
798.160278,1895
798.279297,1941
798.398315,1874
798.517273,1846
798.636292,1903
798.75531,1854
798.874268,1872
798.993286,1869
799.112244,1837
799.231323,1833
799.350281,1851
799.469238,1823
799.588257,1812
799.707153,1853
799.826111,1859
799.945129,1789
800.064087,1823
800.183044,1862
800.302063,1810
800.421021,1810
800.539978,1796
800.658936,1833
800.777893,1816
800.896912,1844
801.015747,1787
801.134705,1762
801.253723,1796
801.37262,1765
801.491638,1803
801.610535,1773
801.729492,1744
801.84845,1760
801.967407,1769
802.086243,1789
802.205261,1775
802.324158,1778
802.443115,1761
802.562073,1754
802.680969,1696
802.799927,1741
802.918762,1751
803.037659,1732
803.156677,1727
803.275574,1721
803.39447,1747
803.513428,1784
803.632263,1757
803.751221,1714
803.870117,1716
803.989014,1691
804.107971,1726
804.226746,1705
804.345642,1745
804.4646,1673
804.583496,1706
804.702393,1708
804.821228,1724
804.940125,1717
805.059021,1681
805.177917,1700
805.296814,1717
805.415649,1719
805.534546,1669
805.653442,1661
805.772278,1667
805.891113,1730
806.01001,1704
806.128906,1713
806.247742,1700
806.366577,1739
806.485413,1725
806.604309,1716
806.723145,1710
806.84198,1694
806.960876,1705
807.079712,1693
807.198486,1726
807.317383,1681
807.436218,1626
807.554993,1727
807.673889,1711
807.792725,1718
807.91156,1702
808.030396,1682
808.14917,1665
808.268005,1654
808.386841,1675
808.505676,1708
808.624451,1685
808.743286,1654
808.862122,1703
808.980896,1669
809.099731,1669
809.218506,1676
809.337341,1696
809.456116,1682
809.57489,1689
809.693726,1651
809.8125,1721
809.931274,1685
810.050049,1640
810.168884,1693
810.287659,1666
810.406372,1729
810.525269,1665
810.643982,1676
810.762756,1730
810.881531,1630
811.000305,1728
811.11908,1676
811.237854,1729
811.356567,1722
811.475403,1701
811.594116,1678
811.71283,1689
811.831604,1657
811.950378,1701
812.069153,1713
812.187927,1684
812.30658,1713
812.425415,1719
812.544128,1766
812.662781,1675
812.781616,1718
812.900269,1717
813.019043,1702
813.137756,1719
813.256531,1695
813.375244,1680
813.493896,1692
813.612671,1655
813.731384,1628
813.850037,1677
813.96875,1624
814.087524,1704
814.206238,1661
814.324951,1659
814.443604,1650
814.562256,1664
814.68103,1677
814.799683,1682
814.918335,1687
815.037109,1666
815.155762,1672
815.274475,1625
815.393188,1632
815.511841,1645
815.630554,1611
815.749146,1619
815.867859,1606
815.986572,1638
816.105164,1621
816.223877,1592
816.342529,1566
816.461182,1666
816.579895,1647
816.698486,1621
816.817139,1574
816.935791,1623
817.054504,1650
817.173096,1635
817.291748,1672
817.4104,1633
817.529053,1598
817.647644,1630
817.766235,1602
817.884949,1614
818.00354,1613
818.122192,1603
818.240845,1640
818.359436,1569
818.478088,1562
818.59668,1595
818.715271,1565
818.833923,1568
818.952515,1541
819.071106,1498
819.189758,1483
819.30835,1531
819.426941,1508
819.545532,1530
819.664124,1524
819.782715,1467
819.901306,1506
820.019897,1468
820.138489,1516
820.25708,1520
820.375671,1477
820.494202,1488
820.612732,1442
820.731384,1498
820.849915,1477
820.968506,1501
821.087097,1491
821.205627,1489
821.324158,1465
821.442749,1470
821.561279,1455
821.679871,1485
821.798401,1443
821.916931,1464
822.035461,1468
822.154053,1515
822.272583,1448
822.391174,1482
822.509583,1481
822.628174,1393
822.746704,1432
822.865234,1444
822.983765,1456
823.102295,1451
823.220825,1424
823.339294,1436
823.457825,1455
823.576355,1363
823.694824,1444
823.813354,1443
823.931885,1453
824.050354,1461
824.168884,1468
824.287354,1439
824.405823,1398
824.524353,1408
824.642822,1512
824.761353,1442
824.879822,1430
824.998291,1430
825.116699,1460
825.235291,1457
825.353699,1454
825.472168,1423
825.590637,1425
825.709106,1422
825.827576,1402
825.946045,1409
826.064453,1411
826.182983,1424
826.301392,1411
826.4198,1376
826.53833,1392
826.656738,1364
826.775208,1400
826.893677,1402
827.012024,1396
827.130493,1423
827.248962,1370
827.36731,1395
827.485779,1392
827.604248,1399
827.722595,1428
827.841064,1324
827.959412,1422
828.077942,1360
828.196289,1392
828.314636,1398
828.433105,1373
828.551514,1359
828.669861,1386
828.78833,1368
828.906677,1341
829.025085,1357
829.143433,1375
829.261841,1376
829.38031,1329
829.498657,1322
829.617004,1364
829.735413,1348
829.85376,1339
829.972107,1378
830.090515,1343
830.208862,1388
830.327209,1314
830.445557,1318
830.563904,1370
830.682312,1395
830.800659,1369
830.919006,1387
831.037354,1431
831.155701,1458
831.274048,1469
831.392395,1420
831.51062,1436
831.629028,1411
831.747314,1409
831.865662,1413
831.984009,1404
832.102356,1358
832.220642,1398
832.338928,1429
832.457275,1396
832.575623,1427
832.693909,1437
832.812134,1453
832.930481,1456
833.048828,1396
833.167114,1444
833.2854,1383
833.403687,1398
833.521973,1455
833.640259,1436
833.758545,1382
833.876831,1427
833.995056,1417
834.113281,1412
834.231628,1419
834.349915,1404
834.468201,1405
834.586426,1416
834.704651,1395
834.822998,1428
834.941162,1384
835.059448,1366
835.177673,1382
835.295959,1393
835.414246,1419
835.53241,1396
835.650635,1365
835.768921,1412
835.887146,1424
836.005371,1429
836.123596,1379
836.241821,1375
836.360046,1382
836.478271,1403
836.596497,1374
836.714722,1383
836.832886,1399
836.95105,1359
837.069336,1386
837.1875,1392
837.305725,1415
837.423889,1404
837.542053,1372
837.660339,1383
837.778503,1410
837.896667,1388
838.014832,1353
838.132996,1414
838.25116,1395
838.369385,1394
838.487488,1377
838.605713,1426
838.723877,1395
838.84198,1440
838.960205,1395
839.078308,1367
839.196472,1399
839.314636,1407
839.4328,1436
839.550964,1413
839.669067,1418
839.787231,1443
839.905396,1435
840.023499,1414
840.141602,1432
840.259766,1405
840.377869,1460
840.495972,1457
840.614136,1450
840.732239,1433
840.850342,1483
840.968445,1418
841.086548,1444
841.204651,1466
841.322754,1460
841.440918,1439
841.55896,1444
841.677002,1478
841.795166,1461
841.913208,1454
842.031311,1438
842.149353,1452
842.267456,1472
842.385498,1435
842.503601,1498
842.621643,1396
842.739746,1485
842.857788,1465
842.97583,1425
843.093933,1457
843.211975,1432
843.330017,1445
843.44812,1460
843.566101,1481
843.684204,1503
843.802246,1475
843.920227,1471
844.038269,1506
844.156311,1495
844.274292,1463
844.392395,1484
844.510376,1500
844.628357,1479
844.74646,1445
844.864441,1470
844.982422,1441
845.100403,1479
845.218384,1438
845.336426,1462
845.454468,1466
845.572449,1413
845.69043,1435
845.808411,1417
845.926453,1404
846.044373,1442
846.162354,1444
846.280396,1419
846.398315,1460
846.516296,1438
846.634216,1444
846.752197,1467
846.870178,1482
846.988098,1470
847.106079,1415
847.22406,1424
847.34198,1434
847.4599,1464
847.577881,1434
847.695801,1483
847.813782,1440
847.931641,1428
848.049561,1463
848.167603,1421
848.285461,1408
848.403381,1424
848.521362,1428
848.639221,1500
848.75708,1422
848.875,1465
848.99292,1456
849.110901,1461
849.22876,1488
849.34668,1462
849.464539,1517
849.582458,1476
849.700317,1475
849.818176,1464
849.936096,1469
850.053955,1487
850.171875,1496
850.289673,1454
850.407593,1426
850.525452,1500
850.643311,1426
850.761169,1497
850.878967,1461
850.996887,1458
851.114746,1478
851.232544,1470
851.350403,1472
851.468262,1444
851.58606,1461
851.703979,1446
851.821777,1465
851.939636,1482
852.057434,1456
852.175232,1446
852.293091,1455
852.410889,1470
852.528687,1493
852.646545,1509
852.764343,1504
852.88208,1478
852.999939,1510
853.117676,1523
853.235535,1515
853.353271,1441
853.471069,1498
853.588928,1441
853.706604,1469
853.824402,1430
853.9422,1454
854.059998,1452
854.177734,1480
854.295532,1445
854.413269,1474
854.531006,1424
854.648804,1450
854.766541,1437
854.884277,1475
855.002014,1419
855.119751,1448
855.237549,1404
855.355225,1462
855.473022,1431
855.590698,1477
855.708435,1487
855.826172,1408
855.943848,1439
856.061646,1370
856.179321,1443
856.296997,1439
856.414795,1448
856.53241,1459
856.650085,1480
856.767822,1472
856.885559,1507
857.003174,1497
857.120911,1473
857.238586,1489
857.356201,1468
857.473938,1490
857.591614,1515
857.709351,1482
857.826965,1458
857.944641,1517
858.062317,1478
858.179993,1482
858.297668,1480
858.415283,1489
858.532959,1475
858.650574,1510
858.768188,1439
858.885803,1489
859.003479,1463
859.121094,1475
859.23877,1475
859.356384,1538
859.473999,1476
859.591675,1455
859.709229,1475
859.826843,1493
859.944458,1422
860.062012,1518
860.179626,1442
860.297302,1436
860.414856,1408
860.532471,1444
860.650024,1464
860.767639,1434
860.885193,1454
861.002808,1412
861.120361,1421
861.237976,1452
861.35553,1500
861.473022,1430
861.590698,1456
861.708191,1487
861.825745,1442
861.943298,1468
862.060852,1461
862.178406,1476
862.295959,1418
862.413513,1421
862.531006,1422
862.64856,1412
862.766113,1394
862.883667,1426
863.00116,1399
863.118713,1385
863.236206,1413
863.353699,1403
863.471252,1424
863.588745,1430
863.706177,1453
863.82373,1425
863.941162,1453
864.058716,1439
864.176208,1415
864.29364,1394
864.411194,1426
864.528687,1468
864.646118,1431
864.763611,1403
864.881042,1477
864.998535,1413
865.116028,1444
865.233459,1385
865.350891,1380
865.468384,1460
865.585754,1426
865.703308,1440
865.820679,1442
865.938171,1417
866.055542,1443
866.173035,1404
866.290466,1407
866.407837,1398
866.52533,1429
866.6427,1409
866.760071,1431
866.877563,1425
866.994934,1443
867.112305,1448
867.229736,1400
867.347107,1449
867.464539,1395
867.58197,1426
867.699341,1462
867.81665,1476
867.934082,1434
868.051453,1419
868.168823,1424
868.286194,1449
868.403564,1446
868.520935,1409
868.638306,1407
868.755676,1392
868.872986,1429
868.990295,1425
869.107727,1434
869.225037,1447
869.342346,1443
869.459717,1448
869.577026,1437
869.694336,1477
869.811707,1415
869.929016,1472
870.046326,1457
870.163635,1512
870.280945,1399
870.398254,1472
870.515564,1481
870.632812,1466
870.750183,1475
870.867432,1417
870.984741,1466
871.102051,1500
871.219299,1513
871.336609,1506
871.453918,1489
871.571106,1588
871.688416,1515
871.805664,1548
871.922852,1540
872.040222,1538
872.157471,1520
872.274719,1557
872.391968,1536
872.509155,1516
872.626465,1449
872.743652,1518
872.860962,1526
872.978149,1482
873.095337,1481
873.212646,1503
873.329834,1474
873.44696,1446
873.564209,1479
873.681396,1486
873.798645,1484
873.915894,1537
874.03302,1497
874.150208,1507
874.267456,1540
874.384583,1522
874.501831,1503
874.618958,1578
874.736145,1590
874.853333,1532
874.970459,1560
875.087646,1563
875.204834,1542
875.32196,1507
875.439148,1525
875.556274,1464
875.673401,1489
875.790527,1470
875.907715,1481
876.024841,1466
876.141968,1466
876.259094,1500
876.376282,1444
876.493347,1472
876.610474,1468
876.7276,1481
876.844727,1485
876.961853,1437
877.078918,1497
877.195984,1493
877.313171,1425
877.430237,1471
877.547302,1451
877.664368,1461
877.781433,1469
877.898499,1442
878.015625,1493
878.13269,1448
878.249695,1468
878.366821,1443
878.483887,1453
878.600952,1407
878.717957,1465
878.834961,1465
878.952087,1427
879.069092,1444
879.186157,1468
879.303162,1450
879.420227,1419
879.537231,1451
879.654236,1409
879.77124,1426
879.888306,1405
880.005249,1452
880.122314,1405
880.239319,1431
880.356323,1416
880.473328,1459
880.590271,1395
880.707275,1405
880.824341,1375
880.941284,1405
881.058228,1397
881.175232,1394
881.292236,1440
881.40918,1400
881.526123,1435
881.643066,1420
881.760071,1408
881.877014,1378
881.993958,1346
882.11084,1426
882.227783,1378
882.344727,1423
882.46167,1396
882.578613,1377
882.695618,1414
882.812439,1419
882.929382,1416
883.046326,1394
883.163208,1399
883.280151,1423
883.397034,1436
883.513916,1428
883.630798,1439
883.747742,1422
883.864563,1474
883.981506,1450
884.098389,1420
884.21521,1505
884.332153,1505
884.448975,1512
884.565796,1519
884.682678,1517
884.7995,1513
884.916443,1607
885.033264,1665
885.150085,1665
885.266968,1692
885.383789,1730
885.500671,1776
885.617493,1759
885.734314,1740
885.851196,1724
885.967896,1717
886.084717,1729
886.201599,1691
886.318359,1691
886.435181,1683
886.552002,1688
886.668762,1641
886.785645,1631
886.902344,1662
887.019165,1639
887.135925,1596
887.252747,1639
887.369446,1596
887.486267,1546
887.603027,1533
887.719788,1543
887.836548,1513
887.953247,1506
888.070068,1478
888.186829,1496
888.303528,1451
888.420288,1484
888.536987,1463
888.653687,1425
888.770447,1416
888.887146,1421
889.003967,1395
889.120667,1415
889.237305,1420
889.354065,1413
889.470703,1394
889.587463,1401
889.704163,1382
889.820862,1361
889.937561,1357
890.054199,1435
890.170837,1376
890.287598,1376
890.404236,1409
890.520874,1427
890.637634,1416
890.754211,1382
890.87085,1399
890.987549,1450
891.104187,1404
891.220886,1454
891.337463,1426
891.454102,1439
891.57074,1457
891.687378,1394
891.804077,1422
891.920654,1412
892.037231,1424
892.15387,1437
892.270447,1425
892.387085,1422
892.503723,1409
892.6203,1437
892.736877,1411
892.853516,1420
892.970032,1399
893.08667,1352
893.203186,1424
893.319763,1407
893.43634,1414
893.552917,1441
893.669556,1393
893.786011,1435
893.902588,1389
894.019165,1429
894.135681,1413
894.252197,1414
894.368835,1409
894.485291,1453
894.601868,1421
894.718384,1429
894.8349,1369
894.951355,1415
895.067932,1423
895.184448,1402
895.300964,1403
895.417419,1422
895.533936,1399
895.650452,1388
895.766907,1430
895.883423,1433
895.999878,1371
896.116333,1371
896.232849,1441
896.349304,1423
896.465759,1437
896.582214,1459
896.698669,1397
896.815125,1433
896.931641,1368
897.048035,1369
897.164551,1406
897.280884,1399
897.397339,1392
897.513794,1424
897.630249,1445
897.746582,1433
897.863098,1432
897.979431,1399
898.095886,1439
898.212341,1422
898.328674,1397
898.445129,1451
898.561462,1417
898.677795,1460
898.794312,1432
898.910645,1420
899.026978,1399
899.143433,1462
899.259766,1407
899.37616,1424
899.492493,1472
899.608765,1424
899.725159,1441
899.841553,1433
899.957947,1451
900.07428,1480
900.190552,1470
900.306946,1379
900.423157,1458
900.53949,1441
900.655884,1471
900.772156,1450
900.888489,1437
901.004822,1430
901.121033,1490
901.237366,1433
901.353699,1432
901.46991,1499
901.586304,1474
901.702515,1487
901.818787,1479
901.93512,1493
902.051331,1527
902.167603,1526
902.283875,1546
902.400085,1572
902.516418,1521
902.632629,1552
902.74884,1598
902.865112,1584
902.981384,1586
903.097595,1590
903.213867,1568
903.330017,1580
903.446289,1567
903.5625,1556
903.67865,1581
903.794922,1542
903.911072,1503
904.027344,1565
904.143494,1501
904.259705,1514
904.375916,1470
904.492065,1526
904.608215,1499
904.724426,1475
904.840576,1464
904.956726,1415
905.072876,1475
905.189087,1440
905.305176,1491
905.421387,1495
905.537537,1450
905.653687,1427
905.769775,1435
905.885925,1453
906.002014,1454
906.118164,1403
906.234314,1439
906.350403,1392
906.466492,1467
906.582642,1445
906.69873,1379
906.814758,1456
906.930908,1422
907.046936,1397
907.163086,1439
907.279175,1457
907.395264,1407
907.511353,1438
907.62738,1417
907.743408,1376
907.859497,1438
907.975525,1431
908.091553,1434
908.207703,1440
908.32373,1398
908.439758,1423
908.555786,1469
908.671814,1449
908.787842,1458
908.90387,1451
909.019775,1430
909.135864,1435
909.251892,1403
909.367859,1438
909.483826,1441
909.599854,1437
909.715881,1491
909.831848,1452
909.947815,1481
910.063782,1426
910.179749,1488
910.295776,1433
910.411743,1427
910.527649,1415
910.643616,1441
910.759583,1445
910.875488,1444
910.991455,1436
911.107361,1460
911.223267,1481
911.339294,1395
911.4552,1476
911.571106,1385
911.687073,1478
911.802979,1448
911.918823,1409
912.034729,1432
912.150635,1405
912.266602,1408
912.382446,1395
912.498352,1445
912.614197,1426
912.730103,1426
912.846008,1418
792.44574,2983
792.56488,2925
792.68396,2956
792.80304,2834
792.92218,2751
793.041199,2704
793.160339,2732
793.279419,2623
793.398499,2567
793.517578,2480
793.636658,2524
793.755737,2460
793.874817,2477
793.993896,2450
794.112976,2415
794.232056,2382
794.351074,2363
794.470215,2317
794.589233,2322
794.708313,2276
794.827393,2301
794.946411,2236
795.065552,2257
795.18457,2191
795.303589,2242
795.422668,2209
795.541687,2160
795.660767,2172
795.779846,2085
795.898865,2169
796.017883,2105
796.136963,2131
796.255981,2116
796.375061,2066
796.49408,2069
796.613037,2024
796.732117,2013
796.851135,1984
796.970154,2019
797.089233,1970
797.208191,1981
797.327271,1947
797.446228,1953
797.565186,1957
797.684265,1967
797.803223,1988
797.922241,1970
798.04126,1929
798.160278,1913
798.279297,1907
798.398315,1935
798.517273,1865
798.636292,1914
798.75531,1889
798.874268,1895
798.993286,1878
799.112244,1920
799.231323,1875
799.350281,1882
799.469238,1880
799.588257,1855
799.707153,1887
799.826111,1861
799.945129,1853
800.064087,1855
800.183044,1882
800.302063,1907
800.421021,1895
800.539978,1841
800.658936,1832
800.777893,1839
800.896912,1814
801.015747,1810
801.134705,1837
801.253723,1822
801.37262,1824
801.491638,1856
801.610535,1824
801.729492,1824
801.84845,1788
801.967407,1824
802.086243,1761
802.205261,1793
802.324158,1838
802.443115,1786
802.562073,1837
802.680969,1747
802.799927,1826
802.918762,1792
803.037659,1780
803.156677,1757
803.275574,1745
803.39447,1785
803.513428,1742
803.632263,1751
803.751221,1730
803.870117,1728
803.989014,1753
804.107971,1756
804.226746,1759
804.345642,1708
804.4646,1740
804.583496,1749
804.702393,1719
804.821228,1730
804.940125,1740
805.059021,1716
805.177917,1717
805.296814,1750
805.415649,1736
805.534546,1754
805.653442,1796
805.772278,1738
805.891113,1769
806.01001,1751
806.128906,1735
806.247742,1757
806.366577,1706
806.485413,1746
806.604309,1749
806.723145,1713
806.84198,1751
806.960876,1757
807.079712,1752
807.198486,1750
807.317383,1783
807.436218,1726
807.554993,1690
807.673889,1682
807.792725,1688
807.91156,1700
808.030396,1704
808.14917,1709
808.268005,1695
808.386841,1704
808.505676,1723
808.624451,1706
808.743286,1725
808.862122,1699
808.980896,1727
809.099731,1716
809.218506,1705
809.337341,1750
809.456116,1690
809.57489,1746
809.693726,1739
809.8125,1688
809.931274,1731
810.050049,1747
810.168884,1709
810.287659,1748
810.406372,1724
810.525269,1729
810.643982,1717
810.762756,1710
810.881531,1697
811.000305,1731
811.11908,1733
811.237854,1743
811.356567,1780
811.475403,1727
811.594116,1747
811.71283,1735
811.831604,1701
811.950378,1760
812.069153,1722
812.187927,1694
812.30658,1692
812.425415,1730
812.544128,1732
812.662781,1716
812.781616,1752
812.900269,1753
813.019043,1703
813.137756,1743
813.256531,1716
813.375244,1746
813.493896,1670
813.612671,1723
813.731384,1721
813.850037,1676
813.96875,1646
814.087524,1673
814.206238,1670
814.324951,1736
814.443604,1638
814.562256,1710
814.68103,1682
814.799683,1656
814.918335,1684
815.037109,1669
815.155762,1663
815.274475,1664
815.393188,1677
815.511841,1668
815.630554,1657
815.749146,1624
815.867859,1642
815.986572,1640
816.105164,1651
816.223877,1677
816.342529,1657
816.461182,1680
816.579895,1637
816.698486,1682
816.817139,1634
816.935791,1661
817.054504,1698
817.173096,1668
817.291748,1643
817.4104,1643
817.529053,1622
817.647644,1649
817.766235,1616
817.884949,1663
818.00354,1637
818.122192,1561
818.240845,1598
818.359436,1597
818.478088,1568
818.59668,1510
818.715271,1575
818.833923,1587
818.952515,1544
819.071106,1573
819.189758,1546
819.30835,1502
819.426941,1581
819.545532,1487
819.664124,1554
819.782715,1490
819.901306,1586
820.019897,1499
820.138489,1477
820.25708,1520
820.375671,1544
820.494202,1535
820.612732,1508
820.731384,1544
820.849915,1539
820.968506,1527
821.087097,1524
821.205627,1513
821.324158,1482
821.442749,1501
821.561279,1493
821.679871,1447
821.798401,1466
821.916931,1492
822.035461,1543
822.154053,1469
822.272583,1487
822.391174,1455
822.509583,1453
822.628174,1502
822.746704,1432
822.865234,1459
822.983765,1455
823.102295,1478
823.220825,1444
823.339294,1488
823.457825,1426
823.576355,1488
823.694824,1437
823.813354,1400
823.931885,1429
824.050354,1452
824.168884,1433
824.287354,1502
824.405823,1446
824.524353,1467
824.642822,1466
824.761353,1448
824.879822,1458
824.998291,1454
825.116699,1466
825.235291,1489
825.353699,1453
825.472168,1450
825.590637,1454
825.709106,1431
825.827576,1459
825.946045,1447
826.064453,1426
826.182983,1427
826.301392,1435
826.4198,1436
826.53833,1401
826.656738,1433
826.775208,1430
826.893677,1392
827.012024,1431
827.130493,1424
827.248962,1426
827.36731,1429
827.485779,1444
827.604248,1383
827.722595,1390
827.841064,1405
827.959412,1412
828.077942,1388
828.196289,1419
828.314636,1421
828.433105,1414
828.551514,1396
828.669861,1391
828.78833,1361
828.906677,1401
829.025085,1390
829.143433,1415
829.261841,1403
829.38031,1351
829.498657,1435
829.617004,1374
829.735413,1420
829.85376,1392
829.972107,1415
830.090515,1401
830.208862,1396
830.327209,1409
830.445557,1415
830.563904,1397
830.682312,1457
830.800659,1416
830.919006,1412
831.037354,1485
831.155701,1479
831.274048,1498
831.392395,1462
831.51062,1445
831.629028,1438
831.747314,1411
831.865662,1368
831.984009,1414
832.102356,1444
832.220642,1423
832.338928,1419
832.457275,1450
832.575623,1432
832.693909,1414
832.812134,1434
832.930481,1472
833.048828,1421
833.167114,1414
833.2854,1433
833.403687,1442
833.521973,1458
833.640259,1355
833.758545,1440
833.876831,1422
833.995056,1415
834.113281,1415
834.231628,1398
834.349915,1423
834.468201,1439
834.586426,1433
834.704651,1416
834.822998,1412
834.941162,1363
835.059448,1431
835.177673,1393
835.295959,1410
835.414246,1416
835.53241,1420
835.650635,1408
835.768921,1419
835.887146,1421
836.005371,1434
836.123596,1446
836.241821,1430
836.360046,1392
836.478271,1404
836.596497,1352
836.714722,1412
836.832886,1444
836.95105,1376
837.069336,1426
837.1875,1385
837.305725,1425
837.423889,1367
837.542053,1415
837.660339,1398
837.778503,1437
837.896667,1426
838.014832,1437
838.132996,1429
838.25116,1397
838.369385,1427
838.487488,1402
838.605713,1430
838.723877,1427
838.84198,1442
838.960205,1436
839.078308,1421
839.196472,1436
839.314636,1409
839.4328,1444
839.550964,1434
839.669067,1427
839.787231,1473
839.905396,1452
840.023499,1476
840.141602,1472
840.259766,1464
840.377869,1481
840.495972,1474
840.614136,1477
840.732239,1462
840.850342,1485
840.968445,1520
841.086548,1473
841.204651,1474
841.322754,1492
841.440918,1516
841.55896,1506
841.677002,1520
841.795166,1470
841.913208,1484
842.031311,1506
842.149353,1441
842.267456,1479
842.385498,1473
842.503601,1463
842.621643,1465
842.739746,1504
842.857788,1439
842.97583,1504
843.093933,1498
843.211975,1437
843.330017,1448
843.44812,1525
843.566101,1516
843.684204,1511
843.802246,1512
843.920227,1515
844.038269,1495
844.156311,1502
844.274292,1467
844.392395,1500
844.510376,1507
844.628357,1509
844.74646,1466
844.864441,1489
844.982422,1484
845.100403,1468
845.218384,1454
845.336426,1427
845.454468,1482
845.572449,1454
845.69043,1446
845.808411,1470
845.926453,1451
846.044373,1436
846.162354,1469
846.280396,1478
846.398315,1447
846.516296,1461
846.634216,1468
846.752197,1447
846.870178,1517
846.988098,1440
847.106079,1475
847.22406,1480
847.34198,1472
847.4599,1455
847.577881,1496
847.695801,1505
847.813782,1443
847.931641,1436
848.049561,1469
848.167603,1487
848.285461,1504
848.403381,1471
848.521362,1508
848.639221,1473
848.75708,1507
848.875,1483
848.99292,1520
849.110901,1505
849.22876,1511
849.34668,1523
849.464539,1486
849.582458,1519
849.700317,1459
849.818176,1495
849.936096,1491
850.053955,1519
850.171875,1514
850.289673,1472
850.407593,1509
850.525452,1518
850.643311,1511
850.761169,1501
850.878967,1476
850.996887,1490
851.114746,1484
851.232544,1452
851.350403,1489
851.468262,1487
851.58606,1479
851.703979,1457
851.821777,1490
851.939636,1501
852.057434,1469
852.175232,1461
852.293091,1507
852.410889,1485
852.528687,1593
852.646545,1578
852.764343,1521
852.88208,1491
852.999939,1494
853.117676,1486
853.235535,1500
853.353271,1482
853.471069,1455
853.588928,1507
853.706604,1441
853.824402,1489
853.9422,1433
854.059998,1409
854.177734,1452
854.295532,1494
854.413269,1435
854.531006,1503
854.648804,1471
854.766541,1504
854.884277,1476
855.002014,1472
855.119751,1459
855.237549,1473
855.355225,1486
855.473022,1429
855.590698,1462
855.708435,1455
855.826172,1472
855.943848,1498
856.061646,1444
856.179321,1484
856.296997,1477
856.414795,1526
856.53241,1511
856.650085,1462
856.767822,1480
856.885559,1500
857.003174,1505
857.120911,1519
857.238586,1508
857.356201,1505
857.473938,1505
857.591614,1525
857.709351,1490
857.826965,1515
857.944641,1507
858.062317,1508
858.179993,1505
858.297668,1493
858.415283,1494
858.532959,1572
858.650574,1527
858.768188,1497
858.885803,1476
859.003479,1517
859.121094,1503
859.23877,1461
859.356384,1501
859.473999,1493
859.591675,1470
859.709229,1494
859.826843,1516
859.944458,1456
860.062012,1454
860.179626,1472
860.297302,1462
860.414856,1481
860.532471,1461
860.650024,1466
860.767639,1464
860.885193,1415
861.002808,1435
861.120361,1506
861.237976,1462
861.35553,1471
861.473022,1456
861.590698,1487
861.708191,1496
861.825745,1495
861.943298,1517
862.060852,1444
862.178406,1450
862.295959,1427
862.413513,1470
862.531006,1420
862.64856,1431
862.766113,1411
862.883667,1410
863.00116,1405
863.118713,1437
863.236206,1466
863.353699,1431
863.471252,1499
863.588745,1481
863.706177,1447
863.82373,1435
863.941162,1467
864.058716,1458
864.176208,1463
864.29364,1461
864.411194,1462
864.528687,1395
864.646118,1439
864.763611,1495
864.881042,1454
864.998535,1435
865.116028,1438
865.233459,1486
865.350891,1429
865.468384,1462
865.585754,1459
865.703308,1442
865.820679,1447
865.938171,1465
866.055542,1424
866.173035,1428
866.290466,1460
866.407837,1448
866.52533,1514
866.6427,1430
866.760071,1470
866.877563,1415
866.994934,1450
867.112305,1438
867.229736,1444
867.347107,1435
867.464539,1461
867.58197,1457
867.699341,1451
867.81665,1486
867.934082,1449
868.051453,1444
868.168823,1447
868.286194,1458
868.403564,1428
868.520935,1463
868.638306,1423
868.755676,1461
868.872986,1477
868.990295,1409
869.107727,1466
869.225037,1490
869.342346,1446
869.459717,1506
869.577026,1469
869.694336,1506
869.811707,1482
869.929016,1492
870.046326,1491
870.163635,1413
870.280945,1467
870.398254,1454
870.515564,1477
870.632812,1516
870.750183,1502
870.867432,1482
870.984741,1528
871.102051,1545
871.219299,1521
871.336609,1561
871.453918,1571
871.571106,1570
871.688416,1561
871.805664,1488
871.922852,1560
872.040222,1546
872.157471,1568
872.274719,1522
872.391968,1541
872.509155,1551
872.626465,1548
872.743652,1570
872.860962,1529
872.978149,1524
873.095337,1534
873.212646,1501
873.329834,1516
873.44696,1525
873.564209,1484
873.681396,1539
873.798645,1559
873.915894,1535
874.03302,1545
874.150208,1523
874.267456,1552
874.384583,1533
874.501831,1556
874.618958,1570
874.736145,1564
874.853333,1565
874.970459,1578
875.087646,1572
875.204834,1536
875.32196,1520
875.439148,1556
875.556274,1515
875.673401,1562
875.790527,1500
875.907715,1493
876.024841,1486
876.141968,1514
876.259094,1502
876.376282,1514
876.493347,1502
876.610474,1434
876.7276,1515
876.844727,1507
876.961853,1514
877.078918,1463
877.195984,1512
877.313171,1557
877.430237,1503
877.547302,1488
877.664368,1518
877.781433,1462
877.898499,1502
878.015625,1493
878.13269,1456
878.249695,1446
878.366821,1440
878.483887,1466
878.600952,1436
878.717957,1483
878.834961,1444
878.952087,1497
879.069092,1448
879.186157,1519
879.303162,1469
879.420227,1420
879.537231,1450
879.654236,1408
879.77124,1404
879.888306,1484
880.005249,1428
880.122314,1485
880.239319,1465
880.356323,1423
880.473328,1445
880.590271,1440
880.707275,1412
880.824341,1469
880.941284,1412
881.058228,1478
881.175232,1400
881.292236,1410
881.40918,1472
881.526123,1399
881.643066,1438
881.760071,1427
881.877014,1416
881.993958,1415
882.11084,1439
882.227783,1389
882.344727,1433
882.46167,1435
882.578613,1451
882.695618,1478
882.812439,1440
882.929382,1492
883.046326,1422
883.163208,1445
883.280151,1426
883.397034,1433
883.513916,1446
883.630798,1499
883.747742,1467
883.864563,1456
883.981506,1483
884.098389,1461
884.21521,1464
884.332153,1507
884.448975,1499
884.565796,1565
884.682678,1510
884.7995,1586
884.916443,1606
885.033264,1666
885.150085,1688
885.266968,1694
885.383789,1747
885.500671,1781
885.617493,1793
885.734314,1756
885.851196,1770
885.967896,1722
886.084717,1736
886.201599,1699
886.318359,1723
886.435181,1737
886.552002,1702
886.668762,1691
886.785645,1640
886.902344,1701
887.019165,1601
887.135925,1641
887.252747,1663
887.369446,1610
887.486267,1641
887.603027,1574
887.719788,1568
887.836548,1572
887.953247,1571
888.070068,1539
888.186829,1511
888.303528,1489
888.420288,1494
888.536987,1501
888.653687,1475
888.770447,1505
888.887146,1439
889.003967,1456
889.120667,1463
889.237305,1407
889.354065,1488
889.470703,1410
889.587463,1399
889.704163,1460
889.820862,1454
889.937561,1450
890.054199,1447
890.170837,1444
890.287598,1421
890.404236,1416
890.520874,1405
890.637634,1439
890.754211,1401
890.87085,1457
890.987549,1454
891.104187,1453
891.220886,1415
891.337463,1495
891.454102,1435
891.57074,1500
891.687378,1426
891.804077,1469
891.920654,1463
892.037231,1460
892.15387,1457
892.270447,1430
892.387085,1482
892.503723,1462
892.6203,1458
892.736877,1493
892.853516,1428
892.970032,1456
893.08667,1460
893.203186,1467
893.319763,1437
893.43634,1437
893.552917,1441
893.669556,1388
893.786011,1456
893.902588,1454
894.019165,1446
894.135681,1441
894.252197,1425
894.368835,1445
894.485291,1429
894.601868,1420
894.718384,1473
894.8349,1405
894.951355,1463
895.067932,1446
895.184448,1430
895.300964,1466
895.417419,1413
895.533936,1432
895.650452,1432
895.766907,1420
895.883423,1449
895.999878,1439
896.116333,1402
896.232849,1462
896.349304,1453
896.465759,1432
896.582214,1454
896.698669,1409
896.815125,1406
896.931641,1475
897.048035,1458
897.164551,1480
897.280884,1453
897.397339,1466
897.513794,1436
897.630249,1484
897.746582,1453
897.863098,1469
897.979431,1436
898.095886,1454
898.212341,1441
898.328674,1386
898.445129,1458
898.561462,1465
898.677795,1460
898.794312,1478
898.910645,1442
899.026978,1487
899.143433,1439
899.259766,1485
899.37616,1480
899.492493,1456
899.608765,1449
899.725159,1478
899.841553,1467
899.957947,1500
900.07428,1486
900.190552,1488
900.306946,1499
900.423157,1471
900.53949,1491
900.655884,1446
900.772156,1504
900.888489,1461
901.004822,1459
901.121033,1461
901.237366,1483
901.353699,1447
901.46991,1522
901.586304,1476
901.702515,1495
901.818787,1501
901.93512,1480
902.051331,1513
902.167603,1534
902.283875,1602
902.400085,1552
902.516418,1547
902.632629,1624
902.74884,1610
902.865112,1653
902.981384,1588
903.097595,1587
903.213867,1612
903.330017,1564
903.446289,1606
903.5625,1572
903.67865,1629
903.794922,1551
903.911072,1616
904.027344,1560
904.143494,1547
904.259705,1545
904.375916,1510
904.492065,1505
904.608215,1513
904.724426,1478
904.840576,1452
904.956726,1458
905.072876,1549
905.189087,1453
905.305176,1490
905.421387,1493
905.537537,1470
905.653687,1458
905.769775,1509
905.885925,1492
906.002014,1481
906.118164,1466
906.234314,1485
906.350403,1491
906.466492,1478
906.582642,1475
906.69873,1467
906.814758,1451
906.930908,1480
907.046936,1487
907.163086,1471
907.279175,1445
907.395264,1454
907.511353,1428
907.62738,1458
907.743408,1454
907.859497,1467
907.975525,1496
908.091553,1476
908.207703,1462
908.32373,1481
908.439758,1458
908.555786,1513
908.671814,1461
908.787842,1502
908.90387,1480
909.019775,1454
909.135864,1473
909.251892,1464
909.367859,1468
909.483826,1452
909.599854,1459
909.715881,1512
909.831848,1447
909.947815,1472
910.063782,1447
910.179749,1469
910.295776,1517
910.411743,1474
910.527649,1499
910.643616,1491
910.759583,1470
910.875488,1476
910.991455,1473
911.107361,1471
911.223267,1472
911.339294,1478
911.4552,1470
911.571106,1441
911.687073,1488
911.802979,1496
911.918823,1445
912.034729,1478
912.150635,1477
912.266602,1474
912.382446,1470
912.498352,1439
912.614197,1475
912.730103,1499
912.846008,1462
792.44574,3029
792.56488,2986
792.68396,2944
792.80304,2797
792.92218,2786
793.041199,2691
793.160339,2604
793.279419,2629
793.398499,2555
793.517578,2586
793.636658,2466
793.755737,2464
793.874817,2429
793.993896,2397
794.112976,2452
794.232056,2337
794.351074,2341
794.470215,2300
794.589233,2354
794.708313,2297
794.827393,2197
794.946411,2264
795.065552,2173
795.18457,2136
795.303589,2203
795.422668,2213
795.541687,2135
795.660767,2121
795.779846,2129
795.898865,2095
796.017883,2075
796.136963,2106
796.255981,2062
796.375061,2049
796.49408,2089
796.613037,2065
796.732117,1998
796.851135,2009
796.970154,1990
797.089233,1944
797.208191,1967
797.327271,2000
797.446228,1938
797.565186,1972
797.684265,1982
797.803223,1891
797.922241,1944
798.04126,1888
798.160278,1908
798.279297,1898
798.398315,1906
798.517273,1950
798.636292,1861
798.75531,1957
798.874268,1895
798.993286,1874
799.112244,1863
799.231323,1871
799.350281,1882
799.469238,1841
799.588257,1860
799.707153,1860
799.826111,1867
799.945129,1846
800.064087,1844
800.183044,1895
800.302063,1822
800.421021,1857
800.539978,1817
800.658936,1826
800.777893,1918
800.896912,1818
801.015747,1825
801.134705,1794
801.253723,1842
801.37262,1833
801.491638,1784
801.610535,1797
801.729492,1800
801.84845,1824
801.967407,1844
802.086243,1804
802.205261,1781
802.324158,1756
802.443115,1750
802.562073,1811
802.680969,1769
802.799927,1788
802.918762,1780
803.037659,1726
803.156677,1767
803.275574,1775
803.39447,1728
803.513428,1738
803.632263,1788
803.751221,1708
803.870117,1755
803.989014,1721
804.107971,1730
804.226746,1752
804.345642,1726
804.4646,1742
804.583496,1743
804.702393,1744
804.821228,1686
804.940125,1748
805.059021,1716
805.177917,1731
805.296814,1716
805.415649,1756
805.534546,1724
805.653442,1695
805.772278,1735
805.891113,1735
806.01001,1698
806.128906,1729
806.247742,1735
806.366577,1695
806.485413,1720
806.604309,1780
806.723145,1736
806.84198,1676
806.960876,1698
807.079712,1693
807.198486,1701
807.317383,1732
807.436218,1740
807.554993,1720
807.673889,1723
807.792725,1676
807.91156,1729
808.030396,1732
808.14917,1695
808.268005,1671
808.386841,1705
808.505676,1728
808.624451,1714
808.743286,1711
808.862122,1735
808.980896,1663
809.099731,1668
809.218506,1740
809.337341,1710
809.456116,1707
809.57489,1732
809.693726,1704
809.8125,1723
809.931274,1757
810.050049,1755
810.168884,1656
810.287659,1767
810.406372,1725
810.525269,1756
810.643982,1769
810.762756,1722
810.881531,1749
811.000305,1736
811.11908,1726
811.237854,1726
811.356567,1772
811.475403,1703
811.594116,1708
811.71283,1707
811.831604,1723
811.950378,1707
812.069153,1715
812.187927,1686
812.30658,1745
812.425415,1705
812.544128,1729
812.662781,1720
812.781616,1782
812.900269,1653
813.019043,1743
813.137756,1740
813.256531,1727
813.375244,1722
813.493896,1713
813.612671,1717
813.731384,1705
813.850037,1731
813.96875,1651
814.087524,1632
814.206238,1716
814.324951,1707
814.443604,1670
814.562256,1690
814.68103,1651
814.799683,1730
814.918335,1691
815.037109,1682
815.155762,1691
815.274475,1655
815.393188,1657
815.511841,1650
815.630554,1640
815.749146,1669
815.867859,1613
815.986572,1665
816.105164,1654
816.223877,1631
816.342529,1660
816.461182,1654
816.579895,1670
816.698486,1692
816.817139,1697
816.935791,1701
817.054504,1677
817.173096,1660
817.291748,1655
817.4104,1665
817.529053,1620
817.647644,1631
817.766235,1588
817.884949,1638
818.00354,1601
818.122192,1582
818.240845,1600
818.359436,1595
818.478088,1597
818.59668,1548
818.715271,1609
818.833923,1563
818.952515,1543
819.071106,1538
819.189758,1524
819.30835,1511
819.426941,1573
819.545532,1508
819.664124,1502
819.782715,1507
819.901306,1513
820.019897,1505
820.138489,1491
820.25708,1530
820.375671,1491
820.494202,1545
820.612732,1535
820.731384,1512
820.849915,1536
820.968506,1496
821.087097,1523
821.205627,1509
821.324158,1477
821.442749,1483
821.561279,1489
821.679871,1510
821.798401,1520
821.916931,1487
822.035461,1448
822.154053,1511
822.272583,1503
822.391174,1486
822.509583,1468
822.628174,1478
822.746704,1441
822.865234,1485
822.983765,1467
823.102295,1475
823.220825,1447
823.339294,1506
823.457825,1480
823.576355,1471
823.694824,1398
823.813354,1495
823.931885,1429
824.050354,1443
824.168884,1496
824.287354,1455
824.405823,1482
824.524353,1470
824.642822,1478
824.761353,1460
824.879822,1453
824.998291,1465
825.116699,1491
825.235291,1502
825.353699,1448
825.472168,1435
825.590637,1449
825.709106,1462
825.827576,1410
825.946045,1433
826.064453,1460
826.182983,1443
826.301392,1451
826.4198,1446
826.53833,1453
826.656738,1402
826.775208,1442
826.893677,1432
827.012024,1423
827.130493,1394
827.248962,1427
827.36731,1380
827.485779,1449
827.604248,1414
827.722595,1430
827.841064,1431
827.959412,1417
828.077942,1407
828.196289,1372
828.314636,1346
828.433105,1393
828.551514,1421
828.669861,1423
828.78833,1405
828.906677,1384
829.025085,1408
829.143433,1391
829.261841,1423
829.38031,1396
829.498657,1399
829.617004,1374
829.735413,1376
829.85376,1389
829.972107,1356
830.090515,1400
830.208862,1380
830.327209,1373
830.445557,1381
830.563904,1390
830.682312,1376
830.800659,1424
830.919006,1462
831.037354,1433
831.155701,1465
831.274048,1470
831.392395,1453
831.51062,1446
831.629028,1399
831.747314,1459
831.865662,1363
831.984009,1443
832.102356,1399
832.220642,1472
832.338928,1422
832.457275,1418
832.575623,1422
832.693909,1466
832.812134,1404
832.930481,1416
833.048828,1474
833.167114,1362
833.2854,1416
833.403687,1439
833.521973,1414
833.640259,1394
833.758545,1439
833.876831,1426
833.995056,1378
834.113281,1431
834.231628,1454
834.349915,1457
834.468201,1450
834.586426,1414
834.704651,1418
834.822998,1390
834.941162,1449
835.059448,1415
835.177673,1410
835.295959,1418
835.414246,1416
835.53241,1395
835.650635,1406
835.768921,1412
835.887146,1418
836.005371,1359
836.123596,1433
836.241821,1407
836.360046,1481
836.478271,1395
836.596497,1392
836.714722,1362
836.832886,1385
836.95105,1408
837.069336,1419
837.1875,1432
837.305725,1439
837.423889,1375
837.542053,1418
837.660339,1429
837.778503,1429
837.896667,1448
838.014832,1443
838.132996,1421
838.25116,1445
838.369385,1433
838.487488,1414
838.605713,1411
838.723877,1448
838.84198,1450
838.960205,1444
839.078308,1404
839.196472,1423
839.314636,1429
839.4328,1398
839.550964,1409
839.669067,1470
839.787231,1419
839.905396,1469
840.023499,1418
840.141602,1462
840.259766,1446
840.377869,1486
840.495972,1442
840.614136,1479
840.732239,1442
840.850342,1437
840.968445,1458
841.086548,1497
841.204651,1491
841.322754,1502
841.440918,1425
841.55896,1472
841.677002,1465
841.795166,1540
841.913208,1476
842.031311,1486
842.149353,1448
842.267456,1477
842.385498,1480
842.503601,1503
842.621643,1461
842.739746,1467
842.857788,1503
842.97583,1445
843.093933,1476
843.211975,1467
843.330017,1500
843.44812,1467
843.566101,1475
843.684204,1460
843.802246,1539
843.920227,1509
844.038269,1467
844.156311,1456
844.274292,1503
844.392395,1475
844.510376,1509
844.628357,1481
844.74646,1457
844.864441,1447
844.982422,1459
845.100403,1448
845.218384,1478
845.336426,1479
845.454468,1462
845.572449,1444
845.69043,1510
845.808411,1431
845.926453,1494
846.044373,1445
846.162354,1433
846.280396,1447
846.398315,1457
846.516296,1442
846.634216,1490
846.752197,1426
846.870178,1497
846.988098,1482
847.106079,1422
847.22406,1467
847.34198,1471
847.4599,1461
847.577881,1462
847.695801,1462
847.813782,1489
847.931641,1488
848.049561,1505
848.167603,1426
848.285461,1461
848.403381,1459
848.521362,1460
848.639221,1444
848.75708,1492
848.875,1475
848.99292,1505
849.110901,1503
849.22876,1487
849.34668,1509
849.464539,1519
849.582458,1466
849.700317,1497
849.818176,1513
849.936096,1514
850.053955,1512
850.171875,1496
850.289673,1501
850.407593,1468
850.525452,1480
850.643311,1512
850.761169,1508
850.878967,1451
850.996887,1467
851.114746,1484
851.232544,1466
851.350403,1464
851.468262,1465
851.58606,1502
851.703979,1454
851.821777,1472
851.939636,1453
852.057434,1476
852.175232,1455
852.293091,1500
852.410889,1485
852.528687,1563
852.646545,1535
852.764343,1554
852.88208,1529
852.999939,1522
853.117676,1551
853.235535,1491
853.353271,1430
853.471069,1465
853.588928,1451
853.706604,1474
853.824402,1498
853.9422,1480
854.059998,1428
854.177734,1490
854.295532,1466
854.413269,1518
854.531006,1504
854.648804,1462
854.766541,1470
854.884277,1496
855.002014,1414
855.119751,1454
855.237549,1499
855.355225,1417
855.473022,1445
855.590698,1453
855.708435,1441
855.826172,1443
855.943848,1476
856.061646,1510
856.179321,1470
856.296997,1450
856.414795,1482
856.53241,1483
856.650085,1539
856.767822,1525
856.885559,1469
857.003174,1518
857.120911,1480
857.238586,1528
857.356201,1496
857.473938,1489
857.591614,1493
857.709351,1500
857.826965,1570
857.944641,1533
858.062317,1470
858.179993,1515
858.297668,1495
858.415283,1534
858.532959,1532
858.650574,1526
858.768188,1572
858.885803,1510
859.003479,1494
859.121094,1503
859.23877,1544
859.356384,1488
859.473999,1501
859.591675,1465
859.709229,1497
859.826843,1503
859.944458,1486
860.062012,1438
860.179626,1478
860.297302,1433
860.414856,1455
860.532471,1455
860.650024,1488
860.767639,1453
860.885193,1486
861.002808,1425
861.120361,1480
861.237976,1488
861.35553,1482
861.473022,1500
861.590698,1465
861.708191,1512
861.825745,1481
861.943298,1460
862.060852,1461
862.178406,1437
862.295959,1402
862.413513,1458
862.531006,1413
862.64856,1432
862.766113,1446
862.883667,1425
863.00116,1404
863.118713,1450
863.236206,1436
863.353699,1467
863.471252,1434
863.588745,1431
863.706177,1419
863.82373,1457
863.941162,1439
864.058716,1451
864.176208,1456
864.29364,1461
864.411194,1442
864.528687,1442
864.646118,1422
864.763611,1415
864.881042,1422
864.998535,1476
865.116028,1466
865.233459,1437
865.350891,1436
865.468384,1464
865.585754,1460
865.703308,1450
865.820679,1416
865.938171,1441
866.055542,1448
866.173035,1388
866.290466,1468
866.407837,1445
866.52533,1427
866.6427,1480
866.760071,1437
866.877563,1443
866.994934,1438
867.112305,1442
867.229736,1450
867.347107,1458
867.464539,1431
867.58197,1443
867.699341,1443
867.81665,1461
867.934082,1464
868.051453,1480
868.168823,1480
868.286194,1447
868.403564,1457
868.520935,1456
868.638306,1377
868.755676,1452
868.872986,1476
868.990295,1448
869.107727,1432
869.225037,1476
869.342346,1493
869.459717,1502
869.577026,1470
869.694336,1521
869.811707,1485
869.929016,1460
870.046326,1498
870.163635,1513
870.280945,1485
870.398254,1494
870.515564,1516
870.632812,1511
870.750183,1526
870.867432,1520
870.984741,1489
871.102051,1530
871.219299,1510
871.336609,1488
871.453918,1539
871.571106,1557
871.688416,1600
871.805664,1559
871.922852,1546
872.040222,1554
872.157471,1537
872.274719,1489
872.391968,1541
872.509155,1562
872.626465,1572
872.743652,1509
872.860962,1480
872.978149,1516
873.095337,1501
873.212646,1509
873.329834,1503
873.44696,1511
873.564209,1549
873.681396,1539
873.798645,1506
873.915894,1509
874.03302,1517
874.150208,1522
874.267456,1573
874.384583,1602
874.501831,1607
874.618958,1564
874.736145,1554
874.853333,1576
874.970459,1588
875.087646,1558
875.204834,1567
875.32196,1554
875.439148,1514
875.556274,1522
875.673401,1526
875.790527,1509
875.907715,1493
876.024841,1520
876.141968,1516
876.259094,1511
876.376282,1510
876.493347,1474
876.610474,1486
876.7276,1508
876.844727,1477
876.961853,1553
877.078918,1496
877.195984,1466
877.313171,1529
877.430237,1473
877.547302,1483
877.664368,1534
877.781433,1502
877.898499,1519
878.015625,1436
878.13269,1463
878.249695,1459
878.366821,1458
878.483887,1452
878.600952,1462
878.717957,1506
878.834961,1501
878.952087,1462
879.069092,1497
879.186157,1437
879.303162,1483
879.420227,1453
879.537231,1435
879.654236,1413
879.77124,1433
879.888306,1436
880.005249,1454
880.122314,1446
880.239319,1465
880.356323,1435
880.473328,1447
880.590271,1471
880.707275,1424
880.824341,1439
880.941284,1443
881.058228,1409
881.175232,1438
881.292236,1452
881.40918,1470
881.526123,1420
881.643066,1462
881.760071,1497
881.877014,1417
881.993958,1427
882.11084,1459
882.227783,1451
882.344727,1435
882.46167,1441
882.578613,1476
882.695618,1395
882.812439,1433
882.929382,1466
883.046326,1491
883.163208,1457
883.280151,1429
883.397034,1470
883.513916,1471
883.630798,1473
883.747742,1465
883.864563,1450
883.981506,1488
884.098389,1430
884.21521,1485
884.332153,1472
884.448975,1466
884.565796,1528
884.682678,1580
884.7995,1566
884.916443,1606
885.033264,1674
885.150085,1725
885.266968,1773
885.383789,1716
885.500671,1777
885.617493,1768
885.734314,1731
885.851196,1718
885.967896,1710
886.084717,1679
886.201599,1719
886.318359,1702
886.435181,1686
886.552002,1674
886.668762,1682
886.785645,1665
886.902344,1695
887.019165,1607
887.135925,1653
887.252747,1628
887.369446,1624
887.486267,1584
887.603027,1569
887.719788,1589
887.836548,1490
887.953247,1511
888.070068,1522
888.186829,1485
888.303528,1490
888.420288,1522
888.536987,1452
888.653687,1433
888.770447,1431
888.887146,1448
889.003967,1434
889.120667,1425
889.237305,1450
889.354065,1456
889.470703,1441
889.587463,1417
889.704163,1459
889.820862,1429
889.937561,1477
890.054199,1441
890.170837,1439
890.287598,1453
890.404236,1455
890.520874,1438
890.637634,1445
890.754211,1461
890.87085,1458
890.987549,1440
891.104187,1464
891.220886,1437
891.337463,1459
891.454102,1427
891.57074,1411
891.687378,1450
891.804077,1469
891.920654,1422
892.037231,1464
892.15387,1482
892.270447,1419
892.387085,1443
892.503723,1467
892.6203,1453
892.736877,1482
892.853516,1471
892.970032,1502
893.08667,1424
893.203186,1447
893.319763,1437
893.43634,1438
893.552917,1466
893.669556,1411
893.786011,1439
893.902588,1474
894.019165,1450
894.135681,1434
894.252197,1482
894.368835,1482
894.485291,1465
894.601868,1477
894.718384,1441
894.8349,1445
894.951355,1457
895.067932,1448
895.184448,1462
895.300964,1442
895.417419,1476
895.533936,1431
895.650452,1421
895.766907,1404
895.883423,1469
895.999878,1439
896.116333,1446
896.232849,1443
896.349304,1446
896.465759,1460
896.582214,1430
896.698669,1492
896.815125,1464
896.931641,1489
897.048035,1421
897.164551,1499
897.280884,1470
897.397339,1401
897.513794,1506
897.630249,1509
897.746582,1439
897.863098,1438
897.979431,1451
898.095886,1454
898.212341,1452
898.328674,1473
898.445129,1471
898.561462,1514
898.677795,1462
898.794312,1461
898.910645,1468
899.026978,1462
899.143433,1489
899.259766,1447
899.37616,1476
899.492493,1461
899.608765,1442
899.725159,1491
899.841553,1492
899.957947,1447
900.07428,1508
900.190552,1479
900.306946,1432
900.423157,1477
900.53949,1442
900.655884,1500
900.772156,1503
900.888489,1442
901.004822,1482
901.121033,1469
901.237366,1474
901.353699,1488
901.46991,1527
901.586304,1505
901.702515,1516
901.818787,1529
901.93512,1478
902.051331,1552
902.167603,1577
902.283875,1570
902.400085,1560
902.516418,1644
902.632629,1591
902.74884,1595
902.865112,1647
902.981384,1636
903.097595,1648
903.213867,1611
903.330017,1600
903.446289,1562
903.5625,1599
903.67865,1601
903.794922,1591
903.911072,1602
904.027344,1562
904.143494,1545
904.259705,1536
904.375916,1529
904.492065,1508
904.608215,1505
904.724426,1546
904.840576,1502
904.956726,1459
905.072876,1502
905.189087,1485
905.305176,1498
905.421387,1527
905.537537,1450
905.653687,1505
905.769775,1483
905.885925,1524
906.002014,1465
906.118164,1479
906.234314,1490
906.350403,1425
906.466492,1477
906.582642,1478
906.69873,1463
906.814758,1507
906.930908,1462
907.046936,1463
907.163086,1474
907.279175,1471
907.395264,1461
907.511353,1395
907.62738,1477
907.743408,1461
907.859497,1502
907.975525,1482
908.091553,1462
908.207703,1483
908.32373,1446
908.439758,1450
908.555786,1516
908.671814,1450
908.787842,1504
908.90387,1517
909.019775,1486
909.135864,1466
909.251892,1517
909.367859,1527
909.483826,1469
909.599854,1522
909.715881,1471
909.831848,1522
909.947815,1521
910.063782,1469
910.179749,1497
910.295776,1475
910.411743,1473
910.527649,1496
910.643616,1496
910.759583,1507
910.875488,1512
910.991455,1520
911.107361,1482
911.223267,1414
911.339294,1467
911.4552,1463
911.571106,1465
911.687073,1462
911.802979,1482
911.918823,1449
912.034729,1507
912.150635,1493
912.266602,1452
912.382446,1485
912.498352,1514
912.614197,1473
912.730103,1492
912.846008,1466
