792.44574,2189
792.56488,2203
792.68396,2129
792.80304,2154
792.92218,2084
793.041199,2050
793.160339,2065
793.279419,2103
793.398499,2050
793.517578,2077
793.636658,2078
793.755737,2079
793.874817,2018
793.993896,2070
794.112976,2056
794.232056,2035
794.351074,1990
794.470215,2013
794.589233,2023
794.708313,1960
794.827393,2013
794.946411,1978
795.065552,1966
795.18457,1965
795.303589,1967
795.422668,1971
795.541687,1971
795.660767,1976
795.779846,1950
795.898865,1950
796.017883,1952
796.136963,1948
796.255981,1981
796.375061,1975
796.49408,1936
796.613037,1946
796.732117,1949
796.851135,1906
796.970154,1933
797.089233,1917
797.208191,1893
797.327271,1927
797.446228,1909
797.565186,1968
797.684265,1913
797.803223,1894
797.922241,1921
798.04126,1930
798.160278,1877
798.279297,1910
798.398315,1849
798.517273,1933
798.636292,1892
798.75531,1957
798.874268,1912
798.993286,1904
799.112244,1930
799.231323,1953
799.350281,1962
799.469238,1858
799.588257,1887
799.707153,1929
799.826111,1948
799.945129,1917
800.064087,1942
800.183044,1934
800.302063,1925
800.421021,1974
800.539978,1920
800.658936,1919
800.777893,1878
800.896912,1973
801.015747,1916
801.134705,1899
801.253723,1928
801.37262,1948
801.491638,1960
801.610535,1934
801.729492,2009
801.84845,1955
801.967407,1946
802.086243,2009
802.205261,1945
802.324158,1990
802.443115,2041
802.562073,1941
802.680969,1998
802.799927,1960
802.918762,2016
803.037659,1959
803.156677,2001
803.275574,1933
803.39447,2060
803.513428,1988
803.632263,1967
803.751221,2059
803.870117,2033
803.989014,2032
804.107971,1956
804.226746,2045
804.345642,2033
804.4646,2086
804.583496,2048
804.702393,2038
804.821228,2034
804.940125,2047
805.059021,2023
805.177917,2058
805.296814,2094
805.415649,2031
805.534546,2071
805.653442,2068
805.772278,2097
805.891113,2121
806.01001,2058
806.128906,2088
806.247742,2097
806.366577,2088
806.485413,2026
806.604309,2120
806.723145,2072
806.84198,2089
806.960876,2153
807.079712,2135
807.198486,2092
807.317383,2107
807.436218,2085
807.554993,2095
807.673889,2135
807.792725,2105
807.91156,2100
808.030396,2083
808.14917,2103
808.268005,2132
808.386841,2129
808.505676,2152
808.624451,2099
808.743286,2119
808.862122,2124
808.980896,2123
809.099731,2111
809.218506,2147
809.337341,2155
809.456116,2195
809.57489,2129
809.693726,2180
809.8125,2154
809.931274,2174
810.050049,2189
810.168884,2193
810.287659,2167
810.406372,2189
810.525269,2204
810.643982,2165
810.762756,2191
810.881531,2165
811.000305,2202
811.11908,2159
811.237854,2159
811.356567,2170
811.475403,2176
811.594116,2125
811.71283,2169
811.831604,2226
811.950378,2206
812.069153,2179
812.187927,2182
812.30658,2210
812.425415,2141
812.544128,2188
812.662781,2203
812.781616,2162
812.900269,2219
813.019043,2159
813.137756,2206
813.256531,2174
813.375244,2235
813.493896,2162
813.612671,2223
813.731384,2197
813.850037,2169
813.96875,2200
814.087524,2214
814.206238,2189
814.324951,2218
814.443604,2175
814.562256,2183
814.68103,2166
814.799683,2145
814.918335,2125
815.037109,2191
815.155762,2104
815.274475,2140
815.393188,2170
815.511841,2055
815.630554,2130
815.749146,2116
815.867859,2079
815.986572,2031
816.105164,2052
816.223877,2073
816.342529,2078
816.461182,2109
816.579895,2104
816.698486,2107
816.817139,2089
816.935791,2118
817.054504,2128
817.173096,2125
817.291748,2091
817.4104,2060
817.529053,1990
817.647644,2018
817.766235,1974
817.884949,1952
818.00354,1916
818.122192,1891
818.240845,1849
818.359436,1773
818.478088,1794
818.59668,1752
818.715271,1751
818.833923,1714
818.952515,1687
819.071106,1689
819.189758,1619
819.30835,1662
819.426941,1636
819.545532,1566
819.664124,1591
819.782715,1558
819.901306,1588
820.019897,1532
820.138489,1550
820.25708,1573
820.375671,1537
820.494202,1539
820.612732,1547
820.731384,1506
820.849915,1543
820.968506,1536
821.087097,1501
821.205627,1491
821.324158,1495
821.442749,1485
821.561279,1491
821.679871,1450
821.798401,1513
821.916931,1494
822.035461,1484
822.154053,1468
822.272583,1516
822.391174,1483
822.509583,1501
822.628174,1421
822.746704,1490
822.865234,1470
822.983765,1493
823.102295,1473
823.220825,1452
823.339294,1442
823.457825,1484
823.576355,1487
823.694824,1474
823.813354,1484
823.931885,1455
824.050354,1456
824.168884,1546
824.287354,1518
824.405823,1494
824.524353,1514
824.642822,1468
824.761353,1501
824.879822,1516
824.998291,1512
825.116699,1466
825.235291,1523
825.353699,1508
825.472168,1398
825.590637,1464
825.709106,1436
825.827576,1453
825.946045,1400
826.064453,1416
826.182983,1410
826.301392,1443
826.4198,1427
826.53833,1405
826.656738,1444
826.775208,1413
826.893677,1393
827.012024,1409
827.130493,1410
827.248962,1415
827.36731,1347
827.485779,1447
827.604248,1381
827.722595,1401
827.841064,1377
827.959412,1385
828.077942,1384
828.196289,1364
828.314636,1398
828.433105,1382
828.551514,1355
828.669861,1377
828.78833,1360
828.906677,1382
829.025085,1374
829.143433,1334
829.261841,1372
829.38031,1376
829.498657,1377
829.617004,1343
829.735413,1398
829.85376,1308
829.972107,1384
830.090515,1325
830.208862,1359
830.327209,1381
830.445557,1363
830.563904,1354
830.682312,1336
830.800659,1343
830.919006,1368
831.037354,1392
831.155701,1359
831.274048,1353
831.392395,1353
831.51062,1342
831.629028,1368
831.747314,1375
831.865662,1326
831.984009,1329
832.102356,1394
832.220642,1308
832.338928,1366
832.457275,1378
832.575623,1358
832.693909,1350
832.812134,1372
832.930481,1391
833.048828,1303
833.167114,1357
833.2854,1343
833.403687,1345
833.521973,1370
833.640259,1345
833.758545,1341
833.876831,1365
833.995056,1399
834.113281,1378
834.231628,1382
834.349915,1351
834.468201,1381
834.586426,1354
834.704651,1379
834.822998,1380
834.941162,1384
835.059448,1363
835.177673,1338
835.295959,1353
835.414246,1359
835.53241,1335
835.650635,1385
835.768921,1364
835.887146,1404
836.005371,1389
836.123596,1403
836.241821,1420
836.360046,1392
836.478271,1403
836.596497,1410
836.714722,1430
836.832886,1399
836.95105,1428
837.069336,1415
837.1875,1424
837.305725,1484
837.423889,1480
837.542053,1428
837.660339,1468
837.778503,1428
837.896667,1447
838.014832,1451
838.132996,1443
838.25116,1430
838.369385,1499
838.487488,1430
838.605713,1419
838.723877,1426
838.84198,1435
838.960205,1446
839.078308,1438
839.196472,1415
839.314636,1405
839.4328,1420
839.550964,1417
839.669067,1408
839.787231,1422
839.905396,1370
840.023499,1430
840.141602,1405
840.259766,1415
840.377869,1418
840.495972,1383
840.614136,1390
840.732239,1422
840.850342,1410
840.968445,1390
841.086548,1403
841.204651,1390
841.322754,1360
841.440918,1377
841.55896,1391
841.677002,1393
841.795166,1330
841.913208,1357
842.031311,1372
842.149353,1360
842.267456,1352
842.385498,1345
842.503601,1343
842.621643,1349
842.739746,1289
842.857788,1373
842.97583,1374
843.093933,1315
843.211975,1331
843.330017,1343
843.44812,1349
843.566101,1317
843.684204,1303
843.802246,1304
843.920227,1328
844.038269,1369
844.156311,1361
844.274292,1351
844.392395,1303
844.510376,1347
844.628357,1315
844.74646,1336
844.864441,1333
844.982422,1333
845.100403,1339
845.218384,1337
845.336426,1285
845.454468,1321
845.572449,1340
845.69043,1320
845.808411,1304
845.926453,1317
846.044373,1319
846.162354,1294
846.280396,1291
846.398315,1287
846.516296,1325
846.634216,1314
846.752197,1339
846.870178,1351
846.988098,1378
847.106079,1336
847.22406,1354
847.34198,1346
847.4599,1306
847.577881,1292
847.695801,1316
847.813782,1336
847.931641,1323
848.049561,1363
848.167603,1329
848.285461,1369
848.403381,1289
848.521362,1345
848.639221,1344
848.75708,1319
848.875,1297
848.99292,1342
849.110901,1333
849.22876,1334
849.34668,1373
849.464539,1350
849.582458,1355
849.700317,1332
849.818176,1371
849.936096,1343
850.053955,1369
850.171875,1324
850.289673,1351
850.407593,1329
850.525452,1348
850.643311,1312
850.761169,1358
850.878967,1305
850.996887,1368
851.114746,1302
851.232544,1300
851.350403,1333
851.468262,1346
851.58606,1312
851.703979,1338
851.821777,1358
851.939636,1358
852.057434,1361
852.175232,1359
852.293091,1346
852.410889,1324
852.528687,1350
852.646545,1336
852.764343,1337
852.88208,1358
852.999939,1312
853.117676,1334
853.235535,1322
853.353271,1362
853.471069,1346
853.588928,1354
853.706604,1380
853.824402,1326
853.9422,1381
854.059998,1321
854.177734,1362
854.295532,1369
854.413269,1352
854.531006,1307
854.648804,1369
854.766541,1363
854.884277,1372
855.002014,1396
855.119751,1333
855.237549,1344
855.355225,1328
855.473022,1351
855.590698,1344
855.708435,1357
855.826172,1356
855.943848,1374
856.061646,1374
856.179321,1381
856.296997,1346
856.414795,1352
856.53241,1334
856.650085,1362
856.767822,1381
856.885559,1404
857.003174,1386
857.120911,1380
857.238586,1363
857.356201,1424
857.473938,1359
857.591614,1399
857.709351,1361
857.826965,1344
857.944641,1349
858.062317,1368
858.179993,1372
858.297668,1373
858.415283,1362
858.532959,1388
858.650574,1396
858.768188,1384
858.885803,1391
859.003479,1397
859.121094,1399
859.23877,1372
859.356384,1368
859.473999,1346
859.591675,1351
859.709229,1426
859.826843,1360
859.944458,1374
860.062012,1340
860.179626,1388
860.297302,1315
860.414856,1368
860.532471,1395
860.650024,1363
860.767639,1366
860.885193,1316
861.002808,1365
861.120361,1323
861.237976,1347
861.35553,1359
861.473022,1350
861.590698,1325
861.708191,1382
861.825745,1347
861.943298,1363
862.060852,1355
862.178406,1338
862.295959,1353
862.413513,1360
862.531006,1354
862.64856,1382
862.766113,1360
862.883667,1410
863.00116,1387
863.118713,1373
863.236206,1348
863.353699,1371
863.471252,1352
863.588745,1379
863.706177,1357
863.82373,1340
863.941162,1331
864.058716,1323
864.176208,1337
864.29364,1360
864.411194,1352
864.528687,1341
864.646118,1358
864.763611,1409
864.881042,1405
864.998535,1426
865.116028,1343
865.233459,1357
865.350891,1388
865.468384,1372
865.585754,1372
865.703308,1367
865.820679,1425
865.938171,1364
866.055542,1383
866.173035,1428
866.290466,1356
866.407837,1407
866.52533,1396
866.6427,1412
866.760071,1373
866.877563,1387
866.994934,1382
867.112305,1406
867.229736,1368
867.347107,1343
867.464539,1353
867.58197,1438
867.699341,1354
867.81665,1356
867.934082,1369
868.051453,1380
868.168823,1381
868.286194,1388
868.403564,1391
868.520935,1415
868.638306,1435
868.755676,1378
868.872986,1375
868.990295,1400
869.107727,1360
869.225037,1401
869.342346,1379
869.459717,1344
869.577026,1387
869.694336,1371
869.811707,1390
869.929016,1406
870.046326,1398
870.163635,1402
870.280945,1398
870.398254,1425
870.515564,1374
870.632812,1392
870.750183,1397
870.867432,1349
870.984741,1410
871.102051,1360
871.219299,1415
871.336609,1369
871.453918,1349
871.571106,1414
871.688416,1401
871.805664,1386
871.922852,1388
872.040222,1373
872.157471,1367
872.274719,1385
872.391968,1409
872.509155,1367
872.626465,1389
872.743652,1370
872.860962,1396
872.978149,1367
873.095337,1438
873.212646,1359
873.329834,1386
873.44696,1343
873.564209,1387
873.681396,1332
873.798645,1375
873.915894,1390
874.03302,1368
874.150208,1399
874.267456,1387
874.384583,1399
874.501831,1385
874.618958,1338
874.736145,1388
874.853333,1400
874.970459,1380
875.087646,1418
875.204834,1410
875.32196,1402
875.439148,1365
875.556274,1409
875.673401,1380
875.790527,1401
875.907715,1403
876.024841,1387
876.141968,1383
876.259094,1419
876.376282,1418
876.493347,1391
876.610474,1426
876.7276,1368
876.844727,1382
876.961853,1356
877.078918,1384
877.195984,1406
877.313171,1399
877.430237,1354
877.547302,1437
877.664368,1387
877.781433,1394
877.898499,1404
878.015625,1379
878.13269,1392
878.249695,1417
878.366821,1368
878.483887,1399
878.600952,1344
878.717957,1396
878.834961,1398
878.952087,1388
879.069092,1398
879.186157,1386
879.303162,1416
879.420227,1391
879.537231,1364
879.654236,1376
879.77124,1424
879.888306,1377
880.005249,1430
880.122314,1392
880.239319,1431
880.356323,1396
880.473328,1412
880.590271,1418
880.707275,1424
880.824341,1392
880.941284,1372
881.058228,1395
881.175232,1416
881.292236,1371
881.40918,1387
881.526123,1404
881.643066,1439
881.760071,1418
881.877014,1419
881.993958,1387
882.11084,1396
882.227783,1432
882.344727,1440
882.46167,1349
882.578613,1388
882.695618,1403
882.812439,1428
882.929382,1376
883.046326,1470
883.163208,1424
883.280151,1413
883.397034,1453
883.513916,1394
883.630798,1405
883.747742,1422
883.864563,1405
883.981506,1446
884.098389,1419
884.21521,1421
884.332153,1465
884.448975,1402
884.565796,1398
884.682678,1395
884.7995,1439
884.916443,1404
885.033264,1410
885.150085,1424
885.266968,1462
885.383789,1472
885.500671,1404
885.617493,1446
885.734314,1460
885.851196,1435
885.967896,1428
886.084717,1432
886.201599,1432
886.318359,1430
886.435181,1438
886.552002,1442
886.668762,1435
886.785645,1459
886.902344,1463
887.019165,1440
887.135925,1447
887.252747,1443
887.369446,1400
887.486267,1457
887.603027,1379
887.719788,1430
887.836548,1416
887.953247,1502
888.070068,1397
888.186829,1443
888.303528,1465
888.420288,1448
888.536987,1456
888.653687,1411
888.770447,1441
888.887146,1430
889.003967,1444
889.120667,1462
889.237305,1433
889.354065,1463
889.470703,1449
889.587463,1438
889.704163,1444
889.820862,1416
889.937561,1483
890.054199,1472
890.170837,1439
890.287598,1460
890.404236,1504
890.520874,1464
890.637634,1461
890.754211,1475
890.87085,1433
890.987549,1466
891.104187,1491
891.220886,1460
891.337463,1467
891.454102,1447
891.57074,1443
891.687378,1430
891.804077,1500
891.920654,1444
892.037231,1472
892.15387,1486
892.270447,1443
892.387085,1440
892.503723,1437
892.6203,1471
892.736877,1452
892.853516,1445
892.970032,1480
893.08667,1459
893.203186,1483
893.319763,1459
893.43634,1474
893.552917,1460
893.669556,1496
893.786011,1486
893.902588,1430
894.019165,1487
894.135681,1494
894.252197,1451
894.368835,1502
894.485291,1462
894.601868,1490
894.718384,1474
894.8349,1499
894.951355,1492
895.067932,1451
895.184448,1486
895.300964,1453
895.417419,1430
895.533936,1458
895.650452,1461
895.766907,1506
895.883423,1465
895.999878,1447
896.116333,1473
896.232849,1485
896.349304,1489
896.465759,1481
896.582214,1425
896.698669,1473
896.815125,1486
896.931641,1505
897.048035,1504
897.164551,1439
897.280884,1480
897.397339,1462
897.513794,1448
897.630249,1515
897.746582,1486
897.863098,1466
897.979431,1521
898.095886,1454
898.212341,1504
898.328674,1469
898.445129,1501
898.561462,1519
898.677795,1530
898.794312,1473
898.910645,1484
899.026978,1493
899.143433,1504
899.259766,1482
899.37616,1494
899.492493,1468
899.608765,1480
899.725159,1485
899.841553,1498
899.957947,1533
900.07428,1476
900.190552,1501
900.306946,1539
900.423157,1469
900.53949,1518
900.655884,1482
900.772156,1501
900.888489,1507
901.004822,1463
901.121033,1503
901.237366,1493
901.353699,1496
901.46991,1496
901.586304,1482
901.702515,1506
901.818787,1458
901.93512,1476
902.051331,1433
902.167603,1527
902.283875,1522
902.400085,1493
902.516418,1514
902.632629,1494
902.74884,1490
902.865112,1527
902.981384,1488
903.097595,1512
903.213867,1541
903.330017,1497
903.446289,1512
903.5625,1557
903.67865,1465
903.794922,1558
903.911072,1523
904.027344,1493
904.143494,1483
904.259705,1529
904.375916,1564
904.492065,1452
904.608215,1523
904.724426,1496
904.840576,1458
904.956726,1541
905.072876,1479
905.189087,1548
905.305176,1517
905.421387,1519
905.537537,1502
905.653687,1528
905.769775,1489
905.885925,1502
906.002014,1511
906.118164,1483
906.234314,1518
906.350403,1520
906.466492,1527
906.582642,1529
906.69873,1470
906.814758,1487
906.930908,1517
907.046936,1523
907.163086,1502
907.279175,1517
907.395264,1532
907.511353,1513
907.62738,1547
907.743408,1540
907.859497,1497
907.975525,1466
908.091553,1513
908.207703,1536
908.32373,1491
908.439758,1534
908.555786,1514
908.671814,1539
908.787842,1483
908.90387,1543
909.019775,1507
909.135864,1521
909.251892,1590
909.367859,1529
909.483826,1508
909.599854,1569
909.715881,1500
909.831848,1502
909.947815,1510
910.063782,1552
910.179749,1505
910.295776,1525
910.411743,1513
910.527649,1495
910.643616,1532
910.759583,1568
910.875488,1508
910.991455,1506
911.107361,1549
911.223267,1531
911.339294,1545
911.4552,1561
911.571106,1511
911.687073,1499
911.802979,1512
911.918823,1504
912.034729,1557
912.150635,1531
912.266602,1514
912.382446,1523
912.498352,1521
912.614197,1483
912.730103,1573
912.846008,1513
792.44574,2211
792.56488,2226
792.68396,2171
792.80304,2145
792.92218,2124
793.041199,2098
793.160339,2084
793.279419,2163
793.398499,2115
793.517578,2131
793.636658,2084
793.755737,2109
793.874817,2151
793.993896,2074
794.112976,2026
794.232056,2026
794.351074,2070
794.470215,2067
794.589233,2068
794.708313,2015
794.827393,1999
794.946411,2005
795.065552,2012
795.18457,2020
795.303589,2012
795.422668,1974
795.541687,2013
795.660767,2047
795.779846,1984
795.898865,1942
796.017883,1991
796.136963,2012
796.255981,1977
796.375061,1947
796.49408,2017
796.613037,1929
796.732117,1968
796.851135,1945
796.970154,1970
797.089233,1919
797.208191,1983
797.327271,1910
797.446228,1922
797.565186,1986
797.684265,1968
797.803223,1971
797.922241,1936
798.04126,1943
798.160278,1954
798.279297,1929
798.398315,1997
798.517273,1965
798.636292,1926
798.75531,1935
798.874268,1893
798.993286,1973
799.112244,1952
799.231323,1969
799.350281,1884
799.469238,1962
799.588257,1973
799.707153,1955
799.826111,1938
799.945129,1989
800.064087,2051
800.183044,1996
800.302063,1998
800.421021,1976
800.539978,1942
800.658936,1973
800.777893,1999
800.896912,1980
801.015747,1982
801.134705,1960
801.253723,1953
801.37262,1952
801.491638,1949
801.610535,2020
801.729492,1959
801.84845,1964
801.967407,2033
802.086243,1997
802.205261,1946
802.324158,2012
802.443115,2004
802.562073,2019
802.680969,2011
802.799927,1999
802.918762,2018
803.037659,2017
803.156677,2043
803.275574,2008
803.39447,2020
803.513428,2029
803.632263,2030
803.751221,2016
803.870117,2020
803.989014,2049
804.107971,2112
804.226746,2058
804.345642,2081
804.4646,2046
804.583496,2039
804.702393,2059
804.821228,2062
804.940125,2107
805.059021,2044
805.177917,2065
805.296814,2096
805.415649,2083
805.534546,2111
805.653442,2152
805.772278,2109
805.891113,2099
806.01001,2120
806.128906,2106
806.247742,2098
806.366577,2119
806.485413,2149
806.604309,2109
806.723145,2078
806.84198,2106
806.960876,2136
807.079712,2166
807.198486,2134
807.317383,2143
807.436218,2142
807.554993,2116
807.673889,2093
807.792725,2112
807.91156,2149
808.030396,2175
808.14917,2154
808.268005,2117
808.386841,2182
808.505676,2180
808.624451,2174
808.743286,2154
808.862122,2180
808.980896,2172
809.099731,2148
809.218506,2145
809.337341,2194
809.456116,2209
809.57489,2235
809.693726,2192
809.8125,2211
809.931274,2242
810.050049,2229
810.168884,2151
810.287659,2185
810.406372,2203
810.525269,2229
810.643982,2240
810.762756,2202
810.881531,2244
811.000305,2173
811.11908,2232
811.237854,2208
811.356567,2212
811.475403,2205
811.594116,2238
811.71283,2228
811.831604,2218
811.950378,2207
812.069153,2227
812.187927,2207
812.30658,2195
812.425415,2224
812.544128,2193
812.662781,2222
812.781616,2192
812.900269,2190
813.019043,2208
813.137756,2260
813.256531,2241
813.375244,2187
813.493896,2249
813.612671,2231
813.731384,2262
813.850037,2230
813.96875,2209
814.087524,2198
814.206238,2145
814.324951,2136
814.443604,2169
814.562256,2205
814.68103,2161
814.799683,2170
814.918335,2172
815.037109,2185
815.155762,2183
815.274475,2202
815.393188,2149
815.511841,2166
815.630554,2182
815.749146,2085
815.867859,2116
815.986572,2112
816.105164,2106
816.223877,2092
816.342529,2090
816.461182,2084
816.579895,2119
816.698486,2098
816.817139,2119
816.935791,2136
817.054504,2108
817.173096,2135
817.291748,2139
817.4104,2134
817.529053,2049
817.647644,2014
817.766235,2012
817.884949,1930
818.00354,1932
818.122192,1846
818.240845,1892
818.359436,1780
818.478088,1804
818.59668,1788
818.715271,1762
818.833923,1739
818.952515,1674
819.071106,1678
819.189758,1655
819.30835,1622
819.426941,1639
819.545532,1615
819.664124,1635
819.782715,1641
819.901306,1606
820.019897,1562
820.138489,1555
820.25708,1603
820.375671,1561
820.494202,1580
820.612732,1566
820.731384,1565
820.849915,1568
820.968506,1526
821.087097,1547
821.205627,1549
821.324158,1516
821.442749,1510
821.561279,1521
821.679871,1518
821.798401,1502
821.916931,1525
822.035461,1525
822.154053,1539
822.272583,1516
822.391174,1482
822.509583,1529
822.628174,1530
822.746704,1473
822.865234,1484
822.983765,1502
823.102295,1483
823.220825,1539
823.339294,1510
823.457825,1444
823.576355,1511
823.694824,1497
823.813354,1504
823.931885,1483
824.050354,1498
824.168884,1493
824.287354,1506
824.405823,1476
824.524353,1536
824.642822,1485
824.761353,1555
824.879822,1523
824.998291,1503
825.116699,1528
825.235291,1502
825.353699,1520
825.472168,1452
825.590637,1498
825.709106,1481
825.827576,1481
825.946045,1494
826.064453,1471
826.182983,1419
826.301392,1458
826.4198,1458
826.53833,1430
826.656738,1442
826.775208,1415
826.893677,1440
827.012024,1420
827.130493,1436
827.248962,1416
827.36731,1437
827.485779,1441
827.604248,1401
827.722595,1409
827.841064,1379
827.959412,1386
828.077942,1405
828.196289,1359
828.314636,1413
828.433105,1351
828.551514,1413
828.669861,1384
828.78833,1424
828.906677,1408
829.025085,1374
829.143433,1364
829.261841,1386
829.38031,1457
829.498657,1380
829.617004,1396
829.735413,1432
829.85376,1356
829.972107,1358
830.090515,1348
830.208862,1368
830.327209,1357
830.445557,1391
830.563904,1383
830.682312,1394
830.800659,1385
830.919006,1351
831.037354,1400
831.155701,1343
831.274048,1366
831.392395,1366
831.51062,1338
831.629028,1388
831.747314,1384
831.865662,1393
831.984009,1408
832.102356,1365
832.220642,1379
832.338928,1357
832.457275,1346
832.575623,1367
832.693909,1372
832.812134,1346
832.930481,1407
833.048828,1392
833.167114,1376
833.2854,1388
833.403687,1406
833.521973,1398
833.640259,1360
833.758545,1393
833.876831,1382
833.995056,1401
834.113281,1383
834.231628,1417
834.349915,1387
834.468201,1418
834.586426,1382
834.704651,1360
834.822998,1401
834.941162,1378
835.059448,1387
835.177673,1392
835.295959,1400
835.414246,1370
835.53241,1385
835.650635,1381
835.768921,1424
835.887146,1394
836.005371,1385
836.123596,1404
836.241821,1436
836.360046,1445
836.478271,1433
836.596497,1492
836.714722,1454
836.832886,1424
836.95105,1504
837.069336,1454
837.1875,1536
837.305725,1442
837.423889,1495
837.542053,1457
837.660339,1489
837.778503,1452
837.896667,1517
838.014832,1478
838.132996,1448
838.25116,1474
838.369385,1456
838.487488,1504
838.605713,1457
838.723877,1483
838.84198,1451
838.960205,1456
839.078308,1407
839.196472,1476
839.314636,1439
839.4328,1446
839.550964,1443
839.669067,1447
839.787231,1455
839.905396,1471
840.023499,1387
840.141602,1437
840.259766,1439
840.377869,1410
840.495972,1455
840.614136,1423
840.732239,1433
840.850342,1426
840.968445,1391
841.086548,1421
841.204651,1411
841.322754,1363
841.440918,1415
841.55896,1414
841.677002,1378
841.795166,1378
841.913208,1391
842.031311,1370
842.149353,1393
842.267456,1383
842.385498,1359
842.503601,1382
842.621643,1375
842.739746,1368
842.857788,1371
842.97583,1351
843.093933,1377
843.211975,1372
843.330017,1422
843.44812,1359
843.566101,1336
843.684204,1323
843.802246,1326
843.920227,1341
844.038269,1365
844.156311,1362
844.274292,1342
844.392395,1319
844.510376,1339
844.628357,1325
844.74646,1320
844.864441,1337
844.982422,1337
845.100403,1360
845.218384,1377
845.336426,1341
845.454468,1401
845.572449,1385
845.69043,1339
845.808411,1360
845.926453,1360
846.044373,1342
846.162354,1345
846.280396,1340
846.398315,1339
846.516296,1327
846.634216,1344
846.752197,1323
846.870178,1360
846.988098,1365
847.106079,1344
847.22406,1355
847.34198,1337
847.4599,1333
847.577881,1335
847.695801,1342
847.813782,1338
847.931641,1336
848.049561,1369
848.167603,1330
848.285461,1342
848.403381,1360
848.521362,1323
848.639221,1360
848.75708,1331
848.875,1379
848.99292,1332
849.110901,1372
849.22876,1332
849.34668,1301
849.464539,1357
849.582458,1338
849.700317,1321
849.818176,1346
849.936096,1341
850.053955,1351
850.171875,1342
850.289673,1359
850.407593,1363
850.525452,1382
850.643311,1335
850.761169,1366
850.878967,1332
850.996887,1306
851.114746,1341
851.232544,1349
851.350403,1346
851.468262,1385
851.58606,1343
851.703979,1350
851.821777,1352
851.939636,1340
852.057434,1349
852.175232,1391
852.293091,1292
852.410889,1360
852.528687,1350
852.646545,1355
852.764343,1396
852.88208,1353
852.999939,1368
853.117676,1381
853.235535,1378
853.353271,1410
853.471069,1367
853.588928,1343
853.706604,1380
853.824402,1364
853.9422,1379
854.059998,1343
854.177734,1368
854.295532,1396
854.413269,1339
854.531006,1355
854.648804,1405
854.766541,1415
854.884277,1363
855.002014,1387
855.119751,1340
855.237549,1417
855.355225,1391
855.473022,1393
855.590698,1393
855.708435,1387
855.826172,1391
855.943848,1404
856.061646,1401
856.179321,1377
856.296997,1405
856.414795,1376
856.53241,1399
856.650085,1397
856.767822,1402
856.885559,1399
857.003174,1393
857.120911,1430
857.238586,1371
857.356201,1415
857.473938,1389
857.591614,1383
857.709351,1409
857.826965,1388
857.944641,1411
858.062317,1406
858.179993,1387
858.297668,1397
858.415283,1367
858.532959,1414
858.650574,1389
858.768188,1379
858.885803,1407
859.003479,1382
859.121094,1367
859.23877,1389
859.356384,1384
859.473999,1374
859.591675,1347
859.709229,1387
859.826843,1369
859.944458,1373
860.062012,1350
860.179626,1364
860.297302,1374
860.414856,1376
860.532471,1375
860.650024,1350
860.767639,1375
860.885193,1369
861.002808,1377
861.120361,1407
861.237976,1401
861.35553,1405
861.473022,1380
861.590698,1367
861.708191,1349
861.825745,1374
861.943298,1408
862.060852,1393
862.178406,1390
862.295959,1377
862.413513,1377
862.531006,1328
862.64856,1389
862.766113,1376
862.883667,1384
863.00116,1425
863.118713,1371
863.236206,1371
863.353699,1412
863.471252,1369
863.588745,1414
863.706177,1419
863.82373,1379
863.941162,1379
864.058716,1407
864.176208,1377
864.29364,1418
864.411194,1434
864.528687,1395
864.646118,1458
864.763611,1380
864.881042,1396
864.998535,1387
865.116028,1398
865.233459,1390
865.350891,1347
865.468384,1409
865.585754,1427
865.703308,1417
865.820679,1388
865.938171,1402
866.055542,1397
866.173035,1430
866.290466,1401
866.407837,1402
866.52533,1395
866.6427,1434
866.760071,1378
866.877563,1368
866.994934,1370
867.112305,1388
867.229736,1432
867.347107,1412
867.464539,1414
867.58197,1361
867.699341,1452
867.81665,1443
867.934082,1375
868.051453,1450
868.168823,1395
868.286194,1392
868.403564,1442
868.520935,1402
868.638306,1373
868.755676,1411
868.872986,1441
868.990295,1435
869.107727,1414
869.225037,1402
869.342346,1434
869.459717,1428
869.577026,1402
869.694336,1412
869.811707,1441
869.929016,1422
870.046326,1396
870.163635,1414
870.280945,1410
870.398254,1412
870.515564,1418
870.632812,1394
870.750183,1429
870.867432,1367
870.984741,1447
871.102051,1436
871.219299,1404
871.336609,1359
871.453918,1395
871.571106,1406
871.688416,1404
871.805664,1410
871.922852,1416
872.040222,1381
872.157471,1473
872.274719,1413
872.391968,1423
872.509155,1406
872.626465,1414
872.743652,1434
872.860962,1395
872.978149,1428
873.095337,1404
873.212646,1452
873.329834,1437
873.44696,1393
873.564209,1405
873.681396,1392
873.798645,1364
873.915894,1405
874.03302,1394
874.150208,1397
874.267456,1435
874.384583,1412
874.501831,1409
874.618958,1418
874.736145,1404
874.853333,1439
874.970459,1437
875.087646,1410
875.204834,1428
875.32196,1377
875.439148,1404
875.556274,1425
875.673401,1398
875.790527,1396
875.907715,1391
876.024841,1401
876.141968,1405
876.259094,1388
876.376282,1434
876.493347,1434
876.610474,1452
876.7276,1445
876.844727,1439
876.961853,1429
877.078918,1415
877.195984,1399
877.313171,1429
877.430237,1431
877.547302,1425
877.664368,1433
877.781433,1440
877.898499,1409
878.015625,1453
878.13269,1408
878.249695,1380
878.366821,1366
878.483887,1447
878.600952,1373
878.717957,1416
878.834961,1394
878.952087,1471
879.069092,1427
879.186157,1413
879.303162,1455
879.420227,1410
879.537231,1393
879.654236,1405
879.77124,1445
879.888306,1430
880.005249,1478
880.122314,1451
880.239319,1434
880.356323,1448
880.473328,1466
880.590271,1427
880.707275,1425
880.824341,1475
880.941284,1433
881.058228,1429
881.175232,1435
881.292236,1383
881.40918,1431
881.526123,1476
881.643066,1473
881.760071,1459
881.877014,1400
881.993958,1445
882.11084,1466
882.227783,1434
882.344727,1431
882.46167,1432
882.578613,1407
882.695618,1458
882.812439,1448
882.929382,1421
883.046326,1448
883.163208,1477
883.280151,1473
883.397034,1462
883.513916,1463
883.630798,1348
883.747742,1469
883.864563,1453
883.981506,1479
884.098389,1445
884.21521,1424
884.332153,1472
884.448975,1454
884.565796,1458
884.682678,1432
884.7995,1438
884.916443,1421
885.033264,1456
885.150085,1462
885.266968,1456
885.383789,1427
885.500671,1477
885.617493,1453
885.734314,1488
885.851196,1467
885.967896,1470
886.084717,1405
886.201599,1481
886.318359,1459
886.435181,1458
886.552002,1469
886.668762,1476
886.785645,1485
886.902344,1512
887.019165,1437
887.135925,1445
887.252747,1447
887.369446,1429
887.486267,1484
887.603027,1453
887.719788,1482
887.836548,1435
887.953247,1514
888.070068,1414
888.186829,1489
888.303528,1475
888.420288,1491
888.536987,1487
888.653687,1452
888.770447,1436
888.887146,1442
889.003967,1456
889.120667,1496
889.237305,1463
889.354065,1480
889.470703,1485
889.587463,1460
889.704163,1485
889.820862,1513
889.937561,1470
890.054199,1443
890.170837,1466
890.287598,1463
890.404236,1522
890.520874,1503
890.637634,1467
890.754211,1513
890.87085,1465
890.987549,1475
891.104187,1452
891.220886,1476
891.337463,1443
891.454102,1479
891.57074,1500
891.687378,1515
891.804077,1464
891.920654,1473
892.037231,1480
892.15387,1479
892.270447,1470
892.387085,1471
892.503723,1483
892.6203,1492
892.736877,1496
892.853516,1499
892.970032,1481
893.08667,1473
893.203186,1503
893.319763,1500
893.43634,1518
893.552917,1505
893.669556,1542
893.786011,1540
893.902588,1487
894.019165,1561
894.135681,1508
894.252197,1483
894.368835,1526
894.485291,1502
894.601868,1487
894.718384,1522
894.8349,1447
894.951355,1527
895.067932,1489
895.184448,1497
895.300964,1510
895.417419,1508
895.533936,1468
895.650452,1548
895.766907,1548
895.883423,1463
895.999878,1505
896.116333,1534
896.232849,1486
896.349304,1540
896.465759,1511
896.582214,1518
896.698669,1479
896.815125,1505
896.931641,1500
897.048035,1528
897.164551,1495
897.280884,1524
897.397339,1479
897.513794,1544
897.630249,1529
897.746582,1532
897.863098,1528
897.979431,1544
898.095886,1544
898.212341,1501
898.328674,1521
898.445129,1507
898.561462,1539
898.677795,1523
898.794312,1537
898.910645,1511
899.026978,1517
899.143433,1529
899.259766,1521
899.37616,1542
899.492493,1528
899.608765,1516
899.725159,1505
899.841553,1475
899.957947,1491
900.07428,1536
900.190552,1546
900.306946,1547
900.423157,1534
900.53949,1558
900.655884,1538
900.772156,1525
900.888489,1535
901.004822,1532
901.121033,1510
901.237366,1556
901.353699,1506
901.46991,1525
901.586304,1550
901.702515,1531
901.818787,1496
901.93512,1534
902.051331,1560
902.167603,1476
902.283875,1507
902.400085,1527
902.516418,1543
902.632629,1551
902.74884,1540
902.865112,1555
902.981384,1523
903.097595,1546
903.213867,1553
903.330017,1518
903.446289,1577
903.5625,1559
903.67865,1547
903.794922,1579
903.911072,1547
904.027344,1537
904.143494,1567
904.259705,1560
904.375916,1549
904.492065,1529
904.608215,1567
904.724426,1558
904.840576,1535
904.956726,1530
905.072876,1517
905.189087,1486
905.305176,1555
905.421387,1569
905.537537,1571
905.653687,1550
905.769775,1569
905.885925,1533
906.002014,1557
906.118164,1565
906.234314,1531
906.350403,1558
906.466492,1557
906.582642,1534
906.69873,1536
906.814758,1618
906.930908,1534
907.046936,1518
907.163086,1570
907.279175,1572
907.395264,1530
907.511353,1556
907.62738,1536
907.743408,1578
907.859497,1564
907.975525,1544
908.091553,1560
908.207703,1538
908.32373,1550
908.439758,1589
908.555786,1524
908.671814,1582
908.787842,1526
908.90387,1593
909.019775,1514
909.135864,1567
909.251892,1518
909.367859,1558
909.483826,1550
909.599854,1547
909.715881,1590
909.831848,1582
909.947815,1513
910.063782,1564
910.179749,1523
910.295776,1531
910.411743,1592
910.527649,1542
910.643616,1555
910.759583,1591
910.875488,1577
910.991455,1614
911.107361,1594
911.223267,1557
911.339294,1569
911.4552,1586
911.571106,1558
911.687073,1592
911.802979,1531
911.918823,1525
912.034729,1575
912.150635,1576
912.266602,1585
912.382446,1587
912.498352,1533
912.614197,1584
912.730103,1525
912.846008,1540
792.44574,2200
792.56488,2223
792.68396,2255
792.80304,2209
792.92218,2136
793.041199,2111
793.160339,2100
793.279419,2092
793.398499,2151
793.517578,2081
793.636658,2076
793.755737,2106
793.874817,2138
793.993896,2081
794.112976,2026
794.232056,2083
794.351074,2059
794.470215,2100
794.589233,2032
794.708313,2055
794.827393,2016
794.946411,2002
795.065552,2063
795.18457,1999
795.303589,2046
795.422668,1992
795.541687,2037
795.660767,2127
795.779846,2021
795.898865,1986
796.017883,1986
796.136963,1982
796.255981,2004
796.375061,1989
796.49408,2002
796.613037,1963
796.732117,1984
796.851135,1992
796.970154,2017
797.089233,1947
797.208191,1980
797.327271,1981
797.446228,1908
797.565186,1892
797.684265,1975
797.803223,1971
797.922241,1928
798.04126,1971
798.160278,1971
798.279297,1908
798.398315,1949
798.517273,1951
798.636292,1940
798.75531,1958
798.874268,1991
798.993286,1986
799.112244,1924
799.231323,1970
799.350281,1903
799.469238,1937
799.588257,1978
799.707153,1966
799.826111,1927
799.945129,1984
800.064087,1968
800.183044,1923
800.302063,1972
800.421021,1951
800.539978,1954
800.658936,1986
800.777893,1968
800.896912,1956
801.015747,1970
801.134705,1974
801.253723,1960
801.37262,1938
801.491638,2007
801.610535,1980
801.729492,1964
801.84845,2016
801.967407,1966
802.086243,2018
802.205261,2001
802.324158,1957
802.443115,2036
802.562073,2005
802.680969,2003
802.799927,2041
802.918762,1988
803.037659,2010
803.156677,2018
803.275574,1995
803.39447,2058
803.513428,1998
803.632263,2031
803.751221,2056
803.870117,2093
803.989014,2068
804.107971,2066
804.226746,2111
804.345642,2058
804.4646,2050
804.583496,2099
804.702393,2096
804.821228,2081
804.940125,2082
805.059021,2117
805.177917,2065
805.296814,2107
805.415649,2079
805.534546,2104
805.653442,2106
805.772278,2102
805.891113,2149
806.01001,2131
806.128906,2102
806.247742,2100
806.366577,2144
806.485413,2150
806.604309,2119
806.723145,2151
806.84198,2181
806.960876,2156
807.079712,2055
807.198486,2142
807.317383,2090
807.436218,2145
807.554993,2177
807.673889,2201
807.792725,2144
807.91156,2100
808.030396,2131
808.14917,2128
808.268005,2160
808.386841,2173
808.505676,2156
808.624451,2157
808.743286,2144
808.862122,2140
808.980896,2164
809.099731,2204
809.218506,2222
809.337341,2152
809.456116,2172
809.57489,2204
809.693726,2188
809.8125,2235
809.931274,2205
810.050049,2191
810.168884,2177
810.287659,2222
810.406372,2199
810.525269,2230
810.643982,2193
810.762756,2212
810.881531,2192
811.000305,2266
811.11908,2210
811.237854,2169
811.356567,2253
811.475403,2216
811.594116,2251
811.71283,2253
811.831604,2223
811.950378,2242
812.069153,2222
812.187927,2207
812.30658,2241
812.425415,2201
812.544128,2181
812.662781,2220
812.781616,2212
812.900269,2233
813.019043,2186
813.137756,2212
813.256531,2205
813.375244,2238
813.493896,2211
813.612671,2188
813.731384,2212
813.850037,2238
813.96875,2203
814.087524,2234
814.206238,2215
814.324951,2114
814.443604,2201
814.562256,2202
814.68103,2167
814.799683,2207
814.918335,2175
815.037109,2184
815.155762,2170
815.274475,2107
815.393188,2153
815.511841,2156
815.630554,2122
815.749146,2096
815.867859,2096
815.986572,2101
816.105164,2091
816.223877,2056
816.342529,2133
816.461182,2169
816.579895,2166
816.698486,2153
816.817139,2154
816.935791,2143
817.054504,2173
817.173096,2092
817.291748,2100
817.4104,2067
817.529053,2054
817.647644,2081
817.766235,1996
817.884949,1988
818.00354,1921
818.122192,1892
818.240845,1871
818.359436,1842
818.478088,1789
818.59668,1779
818.715271,1760
818.833923,1711
818.952515,1665
819.071106,1675
819.189758,1690
819.30835,1636
819.426941,1662
819.545532,1612
819.664124,1594
819.782715,1604
819.901306,1647
820.019897,1575
820.138489,1551
820.25708,1573
820.375671,1588
820.494202,1559
820.612732,1567
820.731384,1549
820.849915,1566
820.968506,1504
821.087097,1568
821.205627,1532
821.324158,1554
821.442749,1530
821.561279,1513
821.679871,1543
821.798401,1503
821.916931,1507
822.035461,1514
822.154053,1490
822.272583,1524
822.391174,1502
822.509583,1513
822.628174,1518
822.746704,1456
822.865234,1493
822.983765,1490
823.102295,1492
823.220825,1518
823.339294,1491
823.457825,1505
823.576355,1536
823.694824,1468
823.813354,1510
823.931885,1467
824.050354,1525
824.168884,1487
824.287354,1513
824.405823,1532
824.524353,1524
824.642822,1518
824.761353,1538
824.879822,1534
824.998291,1485
825.116699,1477
825.235291,1496
825.353699,1462
825.472168,1496
825.590637,1485
825.709106,1470
825.827576,1493
825.946045,1451
826.064453,1463
826.182983,1487
826.301392,1436
826.4198,1434
826.53833,1426
826.656738,1433
826.775208,1429
826.893677,1455
827.012024,1407
827.130493,1457
827.248962,1408
827.36731,1408
827.485779,1431
827.604248,1444
827.722595,1440
827.841064,1405
827.959412,1437
828.077942,1433
828.196289,1422
828.314636,1417
828.433105,1421
828.551514,1389
828.669861,1386
828.78833,1416
828.906677,1395
829.025085,1438
829.143433,1437
829.261841,1376
829.38031,1385
829.498657,1406
829.617004,1366
829.735413,1395
829.85376,1377
829.972107,1421
830.090515,1396
830.208862,1409
830.327209,1429
830.445557,1379
830.563904,1378
830.682312,1401
830.800659,1394
830.919006,1422
831.037354,1386
831.155701,1382
831.274048,1396
831.392395,1422
831.51062,1397
831.629028,1367
831.747314,1414
831.865662,1352
831.984009,1354
832.102356,1423
832.220642,1379
832.338928,1427
832.457275,1370
832.575623,1357
832.693909,1330
832.812134,1375
832.930481,1338
833.048828,1378
833.167114,1389
833.2854,1326
833.403687,1395
833.521973,1374
833.640259,1350
833.758545,1402
833.876831,1372
833.995056,1376
834.113281,1380
834.231628,1388
834.349915,1392
834.468201,1403
834.586426,1363
834.704651,1390
834.822998,1362
834.941162,1378
835.059448,1418
835.177673,1444
835.295959,1379
835.414246,1401
835.53241,1390
835.650635,1458
835.768921,1425
835.887146,1455
836.005371,1446
836.123596,1419
836.241821,1447
836.360046,1421
836.478271,1423
836.596497,1446
836.714722,1438
836.832886,1456
836.95105,1475
837.069336,1464
837.1875,1455
837.305725,1467
837.423889,1465
837.542053,1488
837.660339,1463
837.778503,1486
837.896667,1439
838.014832,1443
838.132996,1499
838.25116,1451
838.369385,1464
838.487488,1453
838.605713,1497
838.723877,1479
838.84198,1480
838.960205,1468
839.078308,1470
839.196472,1450
839.314636,1457
839.4328,1450
839.550964,1414
839.669067,1434
839.787231,1477
839.905396,1434
840.023499,1473
840.141602,1443
840.259766,1423
840.377869,1437
840.495972,1422
840.614136,1441
840.732239,1445
840.850342,1408
840.968445,1399
841.086548,1392
841.204651,1409
841.322754,1388
841.440918,1410
841.55896,1413
841.677002,1388
841.795166,1407
841.913208,1375
842.031311,1409
842.149353,1383
842.267456,1358
842.385498,1332
842.503601,1367
842.621643,1363
842.739746,1320
842.857788,1362
842.97583,1393
843.093933,1372
843.211975,1358
843.330017,1353
843.44812,1380
843.566101,1392
843.684204,1375
843.802246,1333
843.920227,1399
844.038269,1354
844.156311,1369
844.274292,1333
844.392395,1351
844.510376,1362
844.628357,1339
844.74646,1359
844.864441,1341
844.982422,1344
845.100403,1342
845.218384,1356
845.336426,1334
845.454468,1331
845.572449,1381
845.69043,1360
845.808411,1370
845.926453,1368
846.044373,1365
846.162354,1366
846.280396,1361
846.398315,1348
846.516296,1378
846.634216,1389
846.752197,1332
846.870178,1348
846.988098,1335
847.106079,1346
847.22406,1376
847.34198,1331
847.4599,1359
847.577881,1316
847.695801,1357
847.813782,1358
847.931641,1345
848.049561,1368
848.167603,1357
848.285461,1344
848.403381,1368
848.521362,1364
848.639221,1353
848.75708,1340
848.875,1334
848.99292,1326
849.110901,1346
849.22876,1373
849.34668,1396
849.464539,1356
849.582458,1339
849.700317,1357
849.818176,1319
849.936096,1364
850.053955,1343
850.171875,1326
850.289673,1356
850.407593,1354
850.525452,1372
850.643311,1376
850.761169,1394
850.878967,1337
850.996887,1363
851.114746,1381
851.232544,1386
851.350403,1331
851.468262,1385
851.58606,1351
851.703979,1368
851.821777,1343
851.939636,1361
852.057434,1353
852.175232,1383
852.293091,1340
852.410889,1430
852.528687,1399
852.646545,1338
852.764343,1382
852.88208,1358
852.999939,1391
853.117676,1392
853.235535,1355
853.353271,1366
853.471069,1373
853.588928,1415
853.706604,1407
853.824402,1385
853.9422,1403
854.059998,1382
854.177734,1366
854.295532,1376
854.413269,1407
854.531006,1383
854.648804,1382
854.766541,1395
854.884277,1423
855.002014,1445
855.119751,1386
855.237549,1409
855.355225,1409
855.473022,1388
855.590698,1412
855.708435,1408
855.826172,1399
855.943848,1380
856.061646,1441
856.179321,1390
856.296997,1372
856.414795,1414
856.53241,1417
856.650085,1426
856.767822,1352
856.885559,1413
857.003174,1386
857.120911,1413
857.238586,1358
857.356201,1406
857.473938,1411
857.591614,1360
857.709351,1418
857.826965,1420
857.944641,1417
858.062317,1381
858.179993,1399
858.297668,1362
858.415283,1392
858.532959,1380
858.650574,1371
858.768188,1398
858.885803,1394
859.003479,1385
859.121094,1393
859.23877,1410
859.356384,1389
859.473999,1357
859.591675,1388
859.709229,1409
859.826843,1370
859.944458,1413
860.062012,1392
860.179626,1392
860.297302,1413
860.414856,1414
860.532471,1388
860.650024,1385
860.767639,1377
860.885193,1368
861.002808,1375
861.120361,1387
861.237976,1393
861.35553,1366
861.473022,1399
861.590698,1380
861.708191,1388
861.825745,1389
861.943298,1372
862.060852,1415
862.178406,1372
862.295959,1419
862.413513,1360
862.531006,1425
862.64856,1420
862.766113,1406
862.883667,1414
863.00116,1383
863.118713,1401
863.236206,1357
863.353699,1391
863.471252,1411
863.588745,1408
863.706177,1444
863.82373,1388
863.941162,1405
864.058716,1352
864.176208,1405
864.29364,1381
864.411194,1430
864.528687,1413
864.646118,1434
864.763611,1442
864.881042,1383
864.998535,1394
865.116028,1413
865.233459,1403
865.350891,1358
865.468384,1370
865.585754,1392
865.703308,1443
865.820679,1405
865.938171,1411
866.055542,1374
866.173035,1419
866.290466,1393
866.407837,1426
866.52533,1421
866.6427,1449
866.760071,1438
866.877563,1381
866.994934,1425
867.112305,1421
867.229736,1405
867.347107,1380
867.464539,1425
867.58197,1401
867.699341,1455
867.81665,1431
867.934082,1399
868.051453,1416
868.168823,1471
868.286194,1410
868.403564,1426
868.520935,1420
868.638306,1407
868.755676,1392
868.872986,1390
868.990295,1417
869.107727,1441
869.225037,1402
869.342346,1435
869.459717,1405
869.577026,1448
869.694336,1407
869.811707,1414
869.929016,1406
870.046326,1419
870.163635,1404
870.280945,1414
870.398254,1414
870.515564,1429
870.632812,1432
870.750183,1451
870.867432,1413
870.984741,1388
871.102051,1384
871.219299,1472
871.336609,1447
871.453918,1423
871.571106,1399
871.688416,1395
871.805664,1405
871.922852,1377
872.040222,1399
872.157471,1402
872.274719,1453
872.391968,1416
872.509155,1412
872.626465,1393
872.743652,1414
872.860962,1468
872.978149,1424
873.095337,1409
873.212646,1432
873.329834,1462
873.44696,1416
873.564209,1452
873.681396,1415
873.798645,1394
873.915894,1416
874.03302,1472
874.150208,1372
874.267456,1425
874.384583,1381
874.501831,1460
874.618958,1421
874.736145,1386
874.853333,1374
874.970459,1421
875.087646,1439
875.204834,1428
875.32196,1447
875.439148,1391
875.556274,1451
875.673401,1414
875.790527,1402
875.907715,1391
876.024841,1419
876.141968,1381
876.259094,1417
876.376282,1414
876.493347,1437
876.610474,1427
876.7276,1472
876.844727,1447
876.961853,1431
877.078918,1412
877.195984,1444
877.313171,1440
877.430237,1431
877.547302,1410
877.664368,1431
877.781433,1408
877.898499,1460
878.015625,1433
878.13269,1439
878.249695,1421
878.366821,1427
878.483887,1458
878.600952,1411
878.717957,1443
878.834961,1436
878.952087,1428
879.069092,1408
879.186157,1460
879.303162,1448
879.420227,1443
879.537231,1442
879.654236,1447
879.77124,1431
879.888306,1402
880.005249,1430
880.122314,1444
880.239319,1401
880.356323,1435
880.473328,1447
880.590271,1458
880.707275,1418
880.824341,1453
880.941284,1433
881.058228,1423
881.175232,1475
881.292236,1418
881.40918,1458
881.526123,1439
881.643066,1448
881.760071,1488
881.877014,1437
881.993958,1459
882.11084,1445
882.227783,1432
882.344727,1443
882.46167,1435
882.578613,1435
882.695618,1460
882.812439,1459
882.929382,1489
883.046326,1444
883.163208,1396
883.280151,1438
883.397034,1468
883.513916,1437
883.630798,1441
883.747742,1442
883.864563,1404
883.981506,1454
884.098389,1430
884.21521,1485
884.332153,1479
884.448975,1461
884.565796,1460
884.682678,1447
884.7995,1440
884.916443,1446
885.033264,1466
885.150085,1415
885.266968,1493
885.383789,1411
885.500671,1474
885.617493,1432
885.734314,1476
885.851196,1475
885.967896,1463
886.084717,1484
886.201599,1503
886.318359,1533
886.435181,1465
886.552002,1447
886.668762,1437
886.785645,1470
886.902344,1489
887.019165,1453
887.135925,1430
887.252747,1468
887.369446,1469
887.486267,1464
887.603027,1443
887.719788,1473
887.836548,1491
887.953247,1431
888.070068,1480
888.186829,1477
888.303528,1468
888.420288,1459
888.536987,1451
888.653687,1489
888.770447,1472
888.887146,1486
889.003967,1502
889.120667,1454
889.237305,1495
889.354065,1494
889.470703,1472
889.587463,1440
889.704163,1514
889.820862,1450
889.937561,1469
890.054199,1450
890.170837,1469
890.287598,1500
890.404236,1505
890.520874,1470
890.637634,1522
890.754211,1502
890.87085,1508
890.987549,1439
891.104187,1453
891.220886,1459
891.337463,1532
891.454102,1483
891.57074,1480
891.687378,1497
891.804077,1478
891.920654,1475
892.037231,1511
892.15387,1481
892.270447,1517
892.387085,1489
892.503723,1518
892.6203,1536
892.736877,1486
892.853516,1456
892.970032,1534
893.08667,1514
893.203186,1491
893.319763,1488
893.43634,1506
893.552917,1525
893.669556,1512
893.786011,1475
893.902588,1479
894.019165,1472
894.135681,1521
894.252197,1493
894.368835,1524
894.485291,1497
894.601868,1502
894.718384,1514
894.8349,1523
894.951355,1537
895.067932,1532
895.184448,1527
895.300964,1562
895.417419,1498
895.533936,1513
895.650452,1492
895.766907,1535
895.883423,1531
895.999878,1481
896.116333,1546
896.232849,1515
896.349304,1523
896.465759,1500
896.582214,1490
896.698669,1508
896.815125,1526
896.931641,1484
897.048035,1532
897.164551,1483
897.280884,1497
897.397339,1511
897.513794,1531
897.630249,1509
897.746582,1496
897.863098,1497
897.979431,1486
898.095886,1482
898.212341,1555
898.328674,1515
898.445129,1573
898.561462,1516
898.677795,1536
898.794312,1528
898.910645,1517
899.026978,1474
899.143433,1524
899.259766,1530
899.37616,1523
899.492493,1482
899.608765,1477
899.725159,1521
899.841553,1496
899.957947,1569
900.07428,1510
900.190552,1526
900.306946,1530
900.423157,1539
900.53949,1544
900.655884,1503
900.772156,1580
900.888489,1535
901.004822,1556
901.121033,1552
901.237366,1542
901.353699,1525
901.46991,1540
901.586304,1558
901.702515,1519
901.818787,1556
901.93512,1522
902.051331,1524
902.167603,1583
902.283875,1534
902.400085,1545
902.516418,1546
902.632629,1551
902.74884,1579
902.865112,1548
902.981384,1561
903.097595,1543
903.213867,1593
903.330017,1571
903.446289,1540
903.5625,1584
903.67865,1576
903.794922,1511
903.911072,1559
904.027344,1561
904.143494,1572
904.259705,1556
904.375916,1540
904.492065,1559
904.608215,1535
904.724426,1525
904.840576,1541
904.956726,1524
905.072876,1549
905.189087,1523
905.305176,1513
905.421387,1565
905.537537,1563
905.653687,1543
905.769775,1536
905.885925,1582
906.002014,1575
906.118164,1538
906.234314,1557
906.350403,1566
906.466492,1541
906.582642,1550
906.69873,1529
906.814758,1584
906.930908,1565
907.046936,1581
907.163086,1580
907.279175,1560
907.395264,1531
907.511353,1583
907.62738,1527
907.743408,1530
907.859497,1581
907.975525,1570
908.091553,1602
908.207703,1559
908.32373,1560
908.439758,1525
908.555786,1533
908.671814,1576
908.787842,1528
908.90387,1520
909.019775,1571
909.135864,1513
909.251892,1598
909.367859,1580
909.483826,1526
909.599854,1491
909.715881,1582
909.831848,1585
909.947815,1553
910.063782,1590
910.179749,1600
910.295776,1553
910.411743,1602
910.527649,1601
910.643616,1573
910.759583,1526
910.875488,1617
910.991455,1543
911.107361,1555
911.223267,1608
911.339294,1586
911.4552,1598
911.571106,1575
911.687073,1545
911.802979,1552
911.918823,1539
912.034729,1583
912.150635,1603
912.266602,1551
912.382446,1571
912.498352,1604
912.614197,1583
912.730103,1533
912.846008,1513
