792.44574,2141
792.56488,2139
792.68396,2173
792.80304,2132
792.92218,2037
793.041199,2030
793.160339,2070
793.279419,2062
793.398499,2049
793.517578,2116
793.636658,1979
793.755737,1986
793.874817,2017
793.993896,1984
794.112976,2048
794.232056,1976
794.351074,1955
794.470215,1989
794.589233,1937
794.708313,1947
794.827393,1946
794.946411,1928
795.065552,1973
795.18457,1991
795.303589,1956
795.422668,2000
795.541687,1961
795.660767,1979
795.779846,1914
795.898865,1950
796.017883,1933
796.136963,1873
796.255981,1913
796.375061,1918
796.49408,1906
796.613037,1928
796.732117,1924
796.851135,1960
796.970154,1909
797.089233,1900
797.208191,1880
797.327271,1836
797.446228,1906
797.565186,1856
797.684265,1880
797.803223,1844
797.922241,1910
798.04126,1921
798.160278,1856
798.279297,1912
798.398315,1890
798.517273,1908
798.636292,1871
798.75531,1882
798.874268,1887
798.993286,1884
799.112244,1911
799.231323,1903
799.350281,1865
799.469238,1936
799.588257,1842
799.707153,1878
799.826111,1864
799.945129,1895
800.064087,1940
800.183044,1901
800.302063,1892
800.421021,1899
800.539978,1910
800.658936,1912
800.777893,1901
800.896912,1874
801.015747,1880
801.134705,1917
801.253723,1925
801.37262,1930
801.491638,1926
801.610535,1928
801.729492,1939
801.84845,1946
801.967407,1959
802.086243,1909
802.205261,1957
802.324158,1903
802.443115,1953
802.562073,1938
802.680969,1938
802.799927,1992
802.918762,1951
803.037659,1994
803.156677,1979
803.275574,1974
803.39447,1959
803.513428,1957
803.632263,1952
803.751221,1955
803.870117,1946
803.989014,2023
804.107971,2011
804.226746,2014
804.345642,2001
804.4646,2018
804.583496,1997
804.702393,1994
804.821228,1986
804.940125,2043
805.059021,2021
805.177917,1979
805.296814,2063
805.415649,2005
805.534546,2049
805.653442,2057
805.772278,2018
805.891113,2064
806.01001,2061
806.128906,2054
806.247742,2030
806.366577,2096
806.485413,2044
806.604309,2061
806.723145,2064
806.84198,2067
806.960876,2065
807.079712,2056
807.198486,2063
807.317383,2117
807.436218,2075
807.554993,2121
807.673889,2026
807.792725,2052
807.91156,2130
808.030396,2131
808.14917,2123
808.268005,2085
808.386841,2089
808.505676,2079
808.624451,2047
808.743286,2146
808.862122,2132
808.980896,2119
809.099731,2064
809.218506,2161
809.337341,2117
809.456116,2160
809.57489,2160
809.693726,2170
809.8125,2146
809.931274,2173
810.050049,2144
810.168884,2136
810.287659,2221
810.406372,2149
810.525269,2158
810.643982,2203
810.762756,2133
810.881531,2140
811.000305,2186
811.11908,2149
811.237854,2174
811.356567,2132
811.475403,2157
811.594116,2193
811.71283,2156
811.831604,2178
811.950378,2180
812.069153,2131
812.187927,2192
812.30658,2183
812.425415,2135
812.544128,2142
812.662781,2166
812.781616,2170
812.900269,2147
813.019043,2195
813.137756,2162
813.256531,2201
813.375244,2131
813.493896,2174
813.612671,2154
813.731384,2123
813.850037,2149
813.96875,2167
814.087524,2105
814.206238,2169
814.324951,2127
814.443604,2178
814.562256,2131
814.68103,2146
814.799683,2157
814.918335,2167
815.037109,2112
815.155762,2198
815.274475,2096
815.393188,2113
815.511841,2026
815.630554,2095
815.749146,2077
815.867859,2054
815.986572,2082
816.105164,2082
816.223877,2061
816.342529,2050
816.461182,2066
816.579895,2108
816.698486,2033
816.817139,2126
816.935791,2090
817.054504,2108
817.173096,2100
817.291748,2081
817.4104,1997
817.529053,2027
817.647644,1999
817.766235,1965
817.884949,1877
818.00354,1932
818.122192,1815
818.240845,1870
818.359436,1796
818.478088,1733
818.59668,1739
818.715271,1715
818.833923,1677
818.952515,1661
819.071106,1646
819.189758,1607
819.30835,1539
819.426941,1589
819.545532,1543
819.664124,1556
819.782715,1545
819.901306,1564
820.019897,1570
820.138489,1540
820.25708,1487
820.375671,1548
820.494202,1508
820.612732,1490
820.731384,1495
820.849915,1507
820.968506,1486
821.087097,1480
821.205627,1513
821.324158,1457
821.442749,1485
821.561279,1465
821.679871,1457
821.798401,1457
821.916931,1429
822.035461,1455
822.154053,1459
822.272583,1462
822.391174,1422
822.509583,1441
822.628174,1495
822.746704,1448
822.865234,1445
822.983765,1423
823.102295,1448
823.220825,1469
823.339294,1414
823.457825,1459
823.576355,1425
823.694824,1402
823.813354,1468
823.931885,1445
824.050354,1463
824.168884,1504
824.287354,1437
824.405823,1505
824.524353,1490
824.642822,1461
824.761353,1446
824.879822,1486
824.998291,1423
825.116699,1485
825.235291,1438
825.353699,1444
825.472168,1475
825.590637,1465
825.709106,1424
825.827576,1384
825.946045,1399
826.064453,1421
826.182983,1418
826.301392,1369
826.4198,1353
826.53833,1393
826.656738,1408
826.775208,1389
826.893677,1379
827.012024,1385
827.130493,1404
827.248962,1355
827.36731,1428
827.485779,1350
827.604248,1365
827.722595,1339
827.841064,1345
827.959412,1347
828.077942,1380
828.196289,1408
828.314636,1363
828.433105,1326
828.551514,1420
828.669861,1339
828.78833,1336
828.906677,1350
829.025085,1335
829.143433,1359
829.261841,1347
829.38031,1332
829.498657,1330
829.617004,1326
829.735413,1343
829.85376,1339
829.972107,1310
830.090515,1333
830.208862,1339
830.327209,1352
830.445557,1318
830.563904,1328
830.682312,1342
830.800659,1319
830.919006,1319
831.037354,1341
831.155701,1342
831.274048,1348
831.392395,1327
831.51062,1368
831.629028,1362
831.747314,1327
831.865662,1334
831.984009,1330
832.102356,1371
832.220642,1325
832.338928,1328
832.457275,1354
832.575623,1334
832.693909,1342
832.812134,1319
832.930481,1363
833.048828,1372
833.167114,1311
833.2854,1337
833.403687,1318
833.521973,1312
833.640259,1359
833.758545,1330
833.876831,1337
833.995056,1374
834.113281,1375
834.231628,1364
834.349915,1312
834.468201,1348
834.586426,1359
834.704651,1339
834.822998,1345
834.941162,1353
835.059448,1342
835.177673,1353
835.295959,1338
835.414246,1345
835.53241,1344
835.650635,1318
835.768921,1357
835.887146,1351
836.005371,1381
836.123596,1363
836.241821,1390
836.360046,1354
836.478271,1419
836.596497,1377
836.714722,1416
836.832886,1401
836.95105,1448
837.069336,1451
837.1875,1412
837.305725,1450
837.423889,1426
837.542053,1434
837.660339,1435
837.778503,1424
837.896667,1414
838.014832,1464
838.132996,1356
838.25116,1422
838.369385,1410
838.487488,1414
838.605713,1427
838.723877,1411
838.84198,1385
838.960205,1421
839.078308,1397
839.196472,1431
839.314636,1443
839.4328,1436
839.550964,1404
839.669067,1406
839.787231,1432
839.905396,1355
840.023499,1369
840.141602,1383
840.259766,1383
840.377869,1385
840.495972,1395
840.614136,1368
840.732239,1363
840.850342,1335
840.968445,1382
841.086548,1395
841.204651,1352
841.322754,1372
841.440918,1437
841.55896,1357
841.677002,1332
841.795166,1380
841.913208,1343
842.031311,1356
842.149353,1348
842.267456,1357
842.385498,1305
842.503601,1358
842.621643,1297
842.739746,1330
842.857788,1312
842.97583,1302
843.093933,1308
843.211975,1296
843.330017,1342
843.44812,1312
843.566101,1342
843.684204,1273
843.802246,1339
843.920227,1338
844.038269,1311
844.156311,1274
844.274292,1294
844.392395,1311
844.510376,1303
844.628357,1318
844.74646,1288
844.864441,1329
844.982422,1301
845.100403,1306
845.218384,1312
845.336426,1318
845.454468,1310
845.572449,1316
845.69043,1330
845.808411,1339
845.926453,1328
846.044373,1302
846.162354,1273
846.280396,1305
846.398315,1242
846.516296,1307
846.634216,1344
846.752197,1292
846.870178,1291
846.988098,1316
847.106079,1280
847.22406,1335
847.34198,1341
847.4599,1280
847.577881,1347
847.695801,1303
847.813782,1328
847.931641,1314
848.049561,1313
848.167603,1310
848.285461,1313
848.403381,1318
848.521362,1312
848.639221,1270
848.75708,1311
848.875,1262
848.99292,1301
849.110901,1288
849.22876,1297
849.34668,1318
849.464539,1300
849.582458,1292
849.700317,1317
849.818176,1302
849.936096,1313
850.053955,1311
850.171875,1301
850.289673,1298
850.407593,1302
850.525452,1347
850.643311,1308
850.761169,1316
850.878967,1331
850.996887,1315
851.114746,1336
851.232544,1308
851.350403,1313
851.468262,1290
851.58606,1345
851.703979,1340
851.821777,1314
851.939636,1289
852.057434,1375
852.175232,1281
852.293091,1359
852.410889,1341
852.528687,1294
852.646545,1327
852.764343,1341
852.88208,1302
852.999939,1295
853.117676,1355
853.235535,1342
853.353271,1334
853.471069,1309
853.588928,1339
853.706604,1281
853.824402,1365
853.9422,1356
854.059998,1318
854.177734,1343
854.295532,1349
854.413269,1328
854.531006,1341
854.648804,1303
854.766541,1366
854.884277,1338
855.002014,1323
855.119751,1333
855.237549,1327
855.355225,1325
855.473022,1354
855.590698,1366
855.708435,1347
855.826172,1372
855.943848,1363
856.061646,1373
856.179321,1383
856.296997,1399
856.414795,1347
856.53241,1358
856.650085,1350
856.767822,1373
856.885559,1350
857.003174,1339
857.120911,1368
857.238586,1362
857.356201,1339
857.473938,1336
857.591614,1344
857.709351,1362
857.826965,1372
857.944641,1367
858.062317,1378
858.179993,1370
858.297668,1383
858.415283,1324
858.532959,1362
858.650574,1348
858.768188,1389
858.885803,1367
859.003479,1365
859.121094,1356
859.23877,1307
859.356384,1384
859.473999,1390
859.591675,1315
859.709229,1337
859.826843,1352
859.944458,1356
860.062012,1320
860.179626,1322
860.297302,1364
860.414856,1376
860.532471,1375
860.650024,1334
860.767639,1342
860.885193,1367
861.002808,1344
861.120361,1327
861.237976,1374
861.35553,1333
861.473022,1359
861.590698,1391
861.708191,1333
861.825745,1312
861.943298,1353
862.060852,1293
862.178406,1365
862.295959,1343
862.413513,1360
862.531006,1331
862.64856,1369
862.766113,1337
862.883667,1338
863.00116,1355
863.118713,1375
863.236206,1346
863.353699,1367
863.471252,1369
863.588745,1340
863.706177,1329
863.82373,1376
863.941162,1357
864.058716,1390
864.176208,1368
864.29364,1355
864.411194,1398
864.528687,1377
864.646118,1368
864.763611,1365
864.881042,1393
864.998535,1357
865.116028,1369
865.233459,1371
865.350891,1376
865.468384,1335
865.585754,1361
865.703308,1388
865.820679,1360
865.938171,1383
866.055542,1377
866.173035,1402
866.290466,1358
866.407837,1359
866.52533,1351
866.6427,1402
866.760071,1338
866.877563,1345
866.994934,1407
867.112305,1349
867.229736,1380
867.347107,1352
867.464539,1410
867.58197,1354
867.699341,1390
867.81665,1352
867.934082,1360
868.051453,1366
868.168823,1384
868.286194,1388
868.403564,1390
868.520935,1385
868.638306,1414
868.755676,1355
868.872986,1383
868.990295,1373
869.107727,1390
869.225037,1345
869.342346,1381
869.459717,1355
869.577026,1362
869.694336,1407
869.811707,1393
869.929016,1390
870.046326,1340
870.163635,1388
870.280945,1392
870.398254,1412
870.515564,1399
870.632812,1402
870.750183,1379
870.867432,1356
870.984741,1370
871.102051,1375
871.219299,1409
871.336609,1409
871.453918,1382
871.571106,1369
871.688416,1339
871.805664,1381
871.922852,1403
872.040222,1366
872.157471,1343
872.274719,1371
872.391968,1417
872.509155,1359
872.626465,1401
872.743652,1375
872.860962,1364
872.978149,1361
873.095337,1375
873.212646,1346
873.329834,1356
873.44696,1349
873.564209,1371
873.681396,1371
873.798645,1390
873.915894,1380
874.03302,1364
874.150208,1353
874.267456,1415
874.384583,1383
874.501831,1408
874.618958,1381
874.736145,1364
874.853333,1378
874.970459,1378
875.087646,1436
875.204834,1387
875.32196,1381
875.439148,1340
875.556274,1386
875.673401,1393
875.790527,1406
875.907715,1384
876.024841,1415
876.141968,1342
876.259094,1333
876.376282,1369
876.493347,1401
876.610474,1370
876.7276,1402
876.844727,1357
876.961853,1399
877.078918,1383
877.195984,1385
877.313171,1400
877.430237,1398
877.547302,1399
877.664368,1381
877.781433,1435
877.898499,1367
878.015625,1395
878.13269,1382
878.249695,1407
878.366821,1384
878.483887,1332
878.600952,1394
878.717957,1373
878.834961,1414
878.952087,1375
879.069092,1435
879.186157,1391
879.303162,1413
879.420227,1370
879.537231,1400
879.654236,1394
879.77124,1389
879.888306,1400
880.005249,1372
880.122314,1351
880.239319,1402
880.356323,1393
880.473328,1426
880.590271,1385
880.707275,1376
880.824341,1420
880.941284,1423
881.058228,1379
881.175232,1405
881.292236,1383
881.40918,1387
881.526123,1373
881.643066,1376
881.760071,1428
881.877014,1428
881.993958,1447
882.11084,1407
882.227783,1367
882.344727,1416
882.46167,1400
882.578613,1398
882.695618,1412
882.812439,1364
882.929382,1414
883.046326,1435
883.163208,1404
883.280151,1383
883.397034,1400
883.513916,1417
883.630798,1388
883.747742,1386
883.864563,1397
883.981506,1406
884.098389,1362
884.21521,1408
884.332153,1412
884.448975,1400
884.565796,1438
884.682678,1406
884.7995,1422
884.916443,1433
885.033264,1421
885.150085,1424
885.266968,1427
885.383789,1414
885.500671,1429
885.617493,1426
885.734314,1403
885.851196,1419
885.967896,1422
886.084717,1405
886.201599,1466
886.318359,1474
886.435181,1397
886.552002,1427
886.668762,1433
886.785645,1433
886.902344,1465
887.019165,1438
887.135925,1474
887.252747,1432
887.369446,1435
887.486267,1399
887.603027,1419
887.719788,1393
887.836548,1410
887.953247,1398
888.070068,1460
888.186829,1395
888.303528,1462
888.420288,1409
888.536987,1392
888.653687,1455
888.770447,1401
888.887146,1458
889.003967,1430
889.120667,1435
889.237305,1452
889.354065,1454
889.470703,1407
889.587463,1427
889.704163,1454
889.820862,1418
889.937561,1435
890.054199,1495
890.170837,1452
890.287598,1416
890.404236,1408
890.520874,1441
890.637634,1455
890.754211,1462
890.87085,1434
890.987549,1467
891.104187,1499
891.220886,1456
891.337463,1422
891.454102,1451
891.57074,1402
891.687378,1446
891.804077,1478
891.920654,1458
892.037231,1447
892.15387,1497
892.270447,1453
892.387085,1467
892.503723,1475
892.6203,1475
892.736877,1490
892.853516,1431
892.970032,1443
893.08667,1492
893.203186,1438
893.319763,1434
893.43634,1444
893.552917,1451
893.669556,1473
893.786011,1460
893.902588,1480
894.019165,1471
894.135681,1500
894.252197,1444
894.368835,1476
894.485291,1482
894.601868,1469
894.718384,1503
894.8349,1452
894.951355,1497
895.067932,1461
895.184448,1448
895.300964,1496
895.417419,1469
895.533936,1476
895.650452,1413
895.766907,1454
895.883423,1498
895.999878,1496
896.116333,1480
896.232849,1486
896.349304,1421
896.465759,1448
896.582214,1448
896.698669,1446
896.815125,1440
896.931641,1466
897.048035,1469
897.164551,1503
897.280884,1483
897.397339,1489
897.513794,1472
897.630249,1463
897.746582,1481
897.863098,1475
897.979431,1487
898.095886,1487
898.212341,1467
898.328674,1517
898.445129,1481
898.561462,1521
898.677795,1489
898.794312,1519
898.910645,1478
899.026978,1463
899.143433,1537
899.259766,1473
899.37616,1466
899.492493,1447
899.608765,1462
899.725159,1500
899.841553,1457
899.957947,1467
900.07428,1468
900.190552,1539
900.306946,1456
900.423157,1496
900.53949,1505
900.655884,1500
900.772156,1510
900.888489,1499
901.004822,1476
901.121033,1484
901.237366,1466
901.353699,1506
901.46991,1529
901.586304,1483
901.702515,1492
901.818787,1496
901.93512,1499
902.051331,1503
902.167603,1488
902.283875,1541
902.400085,1456
902.516418,1529
902.632629,1495
902.74884,1512
902.865112,1546
902.981384,1504
903.097595,1506
903.213867,1528
903.330017,1486
903.446289,1473
903.5625,1507
903.67865,1536
903.794922,1524
903.911072,1510
904.027344,1525
904.143494,1550
904.259705,1539
904.375916,1487
904.492065,1486
904.608215,1480
904.724426,1516
904.840576,1513
904.956726,1537
905.072876,1514
905.189087,1506
905.305176,1489
905.421387,1531
905.537537,1552
905.653687,1494
905.769775,1492
905.885925,1529
906.002014,1506
906.118164,1512
906.234314,1469
906.350403,1562
906.466492,1499
906.582642,1501
906.69873,1495
906.814758,1488
906.930908,1512
907.046936,1493
907.163086,1494
907.279175,1513
907.395264,1538
907.511353,1505
907.62738,1515
907.743408,1555
907.859497,1523
907.975525,1516
908.091553,1500
908.207703,1512
908.32373,1547
908.439758,1516
908.555786,1583
908.671814,1524
908.787842,1532
908.90387,1572
909.019775,1495
909.135864,1502
909.251892,1500
909.367859,1553
909.483826,1497
909.599854,1532
909.715881,1507
909.831848,1538
909.947815,1546
910.063782,1535
910.179749,1527
910.295776,1536
910.411743,1497
910.527649,1533
910.643616,1542
910.759583,1500
910.875488,1547
910.991455,1513
911.107361,1487
911.223267,1551
911.339294,1494
911.4552,1536
911.571106,1494
911.687073,1485
911.802979,1504
911.918823,1538
912.034729,1543
912.150635,1524
912.266602,1580
912.382446,1531
912.498352,1541
912.614197,1511
912.730103,1513
912.846008,1566
792.44574,2208
792.56488,2176
792.68396,2201
792.80304,2148
792.92218,2085
793.041199,2021
793.160339,2059
793.279419,2076
793.398499,2079
793.517578,2067
793.636658,2056
793.755737,2078
793.874817,2043
793.993896,2048
794.112976,2054
794.232056,2015
794.351074,2031
794.470215,1991
794.589233,2066
794.708313,1985
794.827393,1973
794.946411,1968
795.065552,2004
795.18457,1973
795.303589,2031
795.422668,1973
795.541687,1966
795.660767,1990
795.779846,1969
795.898865,1950
796.017883,1978
796.136963,1950
796.255981,1968
796.375061,1946
796.49408,1995
796.613037,1974
796.732117,1937
796.851135,2017
796.970154,1928
797.089233,1964
797.208191,1931
797.327271,1869
797.446228,1926
797.565186,1911
797.684265,1948
797.803223,1938
797.922241,1954
798.04126,1930
798.160278,1909
798.279297,1927
798.398315,1907
798.517273,1935
798.636292,1899
798.75531,1939
798.874268,1962
798.993286,1928
799.112244,1893
799.231323,1936
799.350281,1947
799.469238,1906
799.588257,1903
799.707153,1948
799.826111,1924
799.945129,1894
800.064087,1928
800.183044,1930
800.302063,1972
800.421021,1992
800.539978,1970
800.658936,1905
800.777893,1959
800.896912,1951
801.015747,1903
801.134705,1939
801.253723,1962
801.37262,1900
801.491638,1940
801.610535,1924
801.729492,1950
801.84845,1980
801.967407,1954
802.086243,1937
802.205261,1994
802.324158,1971
802.443115,1986
802.562073,1995
802.680969,2038
802.799927,1997
802.918762,2004
803.037659,2015
803.156677,2054
803.275574,2012
803.39447,2016
803.513428,1982
803.632263,2074
803.751221,2025
803.870117,2060
803.989014,2033
804.107971,2010
804.226746,1976
804.345642,2026
804.4646,2043
804.583496,2052
804.702393,2027
804.821228,2060
804.940125,2018
805.059021,2101
805.177917,2076
805.296814,2061
805.415649,2110
805.534546,2052
805.653442,2051
805.772278,2106
805.891113,2077
806.01001,2078
806.128906,2146
806.247742,2122
806.366577,2099
806.485413,2127
806.604309,2101
806.723145,2053
806.84198,2053
806.960876,2106
807.079712,2094
807.198486,2073
807.317383,2115
807.436218,2093
807.554993,2161
807.673889,2100
807.792725,2149
807.91156,2143
808.030396,2122
808.14917,2111
808.268005,2154
808.386841,2115
808.505676,2091
808.624451,2151
808.743286,2158
808.862122,2186
808.980896,2154
809.099731,2179
809.218506,2231
809.337341,2221
809.456116,2227
809.57489,2173
809.693726,2185
809.8125,2204
809.931274,2216
810.050049,2174
810.168884,2234
810.287659,2192
810.406372,2174
810.525269,2163
810.643982,2196
810.762756,2175
810.881531,2135
811.000305,2203
811.11908,2216
811.237854,2152
811.356567,2179
811.475403,2133
811.594116,2221
811.71283,2204
811.831604,2210
811.950378,2229
812.069153,2273
812.187927,2173
812.30658,2191
812.425415,2133
812.544128,2185
812.662781,2140
812.781616,2157
812.900269,2221
813.019043,2187
813.137756,2198
813.256531,2202
813.375244,2228
813.493896,2218
813.612671,2235
813.731384,2220
813.850037,2218
813.96875,2194
814.087524,2198
814.206238,2208
814.324951,2216
814.443604,2151
814.562256,2206
814.68103,2129
814.799683,2188
814.918335,2137
815.037109,2173
815.155762,2107
815.274475,2115
815.393188,2183
815.511841,2090
815.630554,2137
815.749146,2091
815.867859,2070
815.986572,2088
816.105164,2078
816.223877,2038
816.342529,2122
816.461182,2157
816.579895,2144
816.698486,2142
816.817139,2105
816.935791,2134
817.054504,2151
817.173096,2108
817.291748,2121
817.4104,2076
817.529053,2009
817.647644,2063
817.766235,2006
817.884949,1903
818.00354,1923
818.122192,1882
818.240845,1852
818.359436,1826
818.478088,1761
818.59668,1756
818.715271,1742
818.833923,1706
818.952515,1708
819.071106,1681
819.189758,1657
819.30835,1658
819.426941,1633
819.545532,1621
819.664124,1619
819.782715,1605
819.901306,1590
820.019897,1574
820.138489,1593
820.25708,1578
820.375671,1578
820.494202,1532
820.612732,1531
820.731384,1536
820.849915,1515
820.968506,1511
821.087097,1500
821.205627,1531
821.324158,1554
821.442749,1496
821.561279,1489
821.679871,1519
821.798401,1476
821.916931,1463
822.035461,1502
822.154053,1461
822.272583,1469
822.391174,1459
822.509583,1464
822.628174,1471
822.746704,1475
822.865234,1473
822.983765,1469
823.102295,1494
823.220825,1453
823.339294,1481
823.457825,1474
823.576355,1492
823.694824,1502
823.813354,1458
823.931885,1521
824.050354,1490
824.168884,1528
824.287354,1493
824.405823,1517
824.524353,1494
824.642822,1548
824.761353,1493
824.879822,1491
824.998291,1484
825.116699,1505
825.235291,1495
825.353699,1500
825.472168,1478
825.590637,1481
825.709106,1486
825.827576,1467
825.946045,1463
826.064453,1473
826.182983,1427
826.301392,1431
826.4198,1405
826.53833,1415
826.656738,1437
826.775208,1403
826.893677,1403
827.012024,1422
827.130493,1413
827.248962,1390
827.36731,1414
827.485779,1403
827.604248,1419
827.722595,1384
827.841064,1367
827.959412,1360
828.077942,1374
828.196289,1388
828.314636,1392
828.433105,1366
828.551514,1423
828.669861,1401
828.78833,1410
828.906677,1377
829.025085,1402
829.143433,1376
829.261841,1375
829.38031,1384
829.498657,1359
829.617004,1354
829.735413,1365
829.85376,1360
829.972107,1388
830.090515,1365
830.208862,1379
830.327209,1353
830.445557,1370
830.563904,1377
830.682312,1354
830.800659,1374
830.919006,1394
831.037354,1359
831.155701,1363
831.274048,1395
831.392395,1325
831.51062,1341
831.629028,1353
831.747314,1357
831.865662,1341
831.984009,1363
832.102356,1364
832.220642,1323
832.338928,1400
832.457275,1368
832.575623,1361
832.693909,1361
832.812134,1377
832.930481,1324
833.048828,1401
833.167114,1367
833.2854,1347
833.403687,1406
833.521973,1371
833.640259,1348
833.758545,1358
833.876831,1328
833.995056,1380
834.113281,1390
834.231628,1384
834.349915,1405
834.468201,1347
834.586426,1352
834.704651,1392
834.822998,1330
834.941162,1382
835.059448,1365
835.177673,1399
835.295959,1354
835.414246,1377
835.53241,1351
835.650635,1367
835.768921,1384
835.887146,1395
836.005371,1386
836.123596,1412
836.241821,1397
836.360046,1426
836.478271,1378
836.596497,1439
836.714722,1409
836.832886,1442
836.95105,1437
837.069336,1473
837.1875,1448
837.305725,1444
837.423889,1424
837.542053,1447
837.660339,1460
837.778503,1477
837.896667,1471
838.014832,1434
838.132996,1441
838.25116,1438
838.369385,1447
838.487488,1464
838.605713,1462
838.723877,1480
838.84198,1457
838.960205,1456
839.078308,1427
839.196472,1500
839.314636,1382
839.4328,1412
839.550964,1373
839.669067,1387
839.787231,1413
839.905396,1415
840.023499,1440
840.141602,1455
840.259766,1407
840.377869,1401
840.495972,1444
840.614136,1428
840.732239,1428
840.850342,1457
840.968445,1371
841.086548,1416
841.204651,1433
841.322754,1405
841.440918,1364
841.55896,1402
841.677002,1346
841.795166,1369
841.913208,1324
842.031311,1361
842.149353,1365
842.267456,1383
842.385498,1328
842.503601,1402
842.621643,1365
842.739746,1373
842.857788,1319
842.97583,1352
843.093933,1367
843.211975,1350
843.330017,1372
843.44812,1346
843.566101,1327
843.684204,1335
843.802246,1318
843.920227,1362
844.038269,1369
844.156311,1413
844.274292,1332
844.392395,1307
844.510376,1345
844.628357,1352
844.74646,1332
844.864441,1323
844.982422,1340
845.100403,1331
845.218384,1331
845.336426,1329
845.454468,1364
845.572449,1347
845.69043,1302
845.808411,1349
845.926453,1367
846.044373,1313
846.162354,1327
846.280396,1346
846.398315,1360
846.516296,1317
846.634216,1350
846.752197,1349
846.870178,1305
846.988098,1327
847.106079,1321
847.22406,1350
847.34198,1334
847.4599,1332
847.577881,1327
847.695801,1350
847.813782,1326
847.931641,1361
848.049561,1320
848.167603,1332
848.285461,1322
848.403381,1380
848.521362,1323
848.639221,1353
848.75708,1338
848.875,1283
848.99292,1320
849.110901,1324
849.22876,1346
849.34668,1312
849.464539,1345
849.582458,1315
849.700317,1344
849.818176,1338
849.936096,1316
850.053955,1331
850.171875,1331
850.289673,1360
850.407593,1339
850.525452,1366
850.643311,1330
850.761169,1331
850.878967,1368
850.996887,1372
851.114746,1307
851.232544,1352
851.350403,1299
851.468262,1343
851.58606,1359
851.703979,1297
851.821777,1353
851.939636,1383
852.057434,1369
852.175232,1337
852.293091,1333
852.410889,1329
852.528687,1327
852.646545,1331
852.764343,1356
852.88208,1389
852.999939,1337
853.117676,1399
853.235535,1343
853.353271,1387
853.471069,1335
853.588928,1372
853.706604,1354
853.824402,1326
853.9422,1327
854.059998,1383
854.177734,1364
854.295532,1381
854.413269,1366
854.531006,1386
854.648804,1390
854.766541,1390
854.884277,1353
855.002014,1350
855.119751,1363
855.237549,1338
855.355225,1374
855.473022,1350
855.590698,1405
855.708435,1350
855.826172,1345
855.943848,1407
856.061646,1364
856.179321,1472
856.296997,1340
856.414795,1393
856.53241,1423
856.650085,1355
856.767822,1403
856.885559,1388
857.003174,1365
857.120911,1405
857.238586,1373
857.356201,1413
857.473938,1416
857.591614,1409
857.709351,1392
857.826965,1391
857.944641,1396
858.062317,1391
858.179993,1391
858.297668,1383
858.415283,1367
858.532959,1378
858.650574,1386
858.768188,1347
858.885803,1339
859.003479,1398
859.121094,1379
859.23877,1419
859.356384,1383
859.473999,1379
859.591675,1358
859.709229,1384
859.826843,1402
859.944458,1354
860.062012,1345
860.179626,1408
860.297302,1385
860.414856,1391
860.532471,1398
860.650024,1386
860.767639,1340
860.885193,1360
861.002808,1398
861.120361,1334
861.237976,1335
861.35553,1387
861.473022,1377
861.590698,1332
861.708191,1369
861.825745,1406
861.943298,1359
862.060852,1388
862.178406,1360
862.295959,1375
862.413513,1373
862.531006,1372
862.64856,1376
862.766113,1363
862.883667,1394
863.00116,1342
863.118713,1396
863.236206,1428
863.353699,1363
863.471252,1389
863.588745,1387
863.706177,1396
863.82373,1376
863.941162,1417
864.058716,1343
864.176208,1343
864.29364,1375
864.411194,1400
864.528687,1383
864.646118,1442
864.763611,1384
864.881042,1386
864.998535,1400
865.116028,1435
865.233459,1371
865.350891,1405
865.468384,1409
865.585754,1424
865.703308,1353
865.820679,1387
865.938171,1404
866.055542,1421
866.173035,1377
866.290466,1405
866.407837,1365
866.52533,1407
866.6427,1423
866.760071,1389
866.877563,1376
866.994934,1384
867.112305,1407
867.229736,1386
867.347107,1392
867.464539,1415
867.58197,1406
867.699341,1392
867.81665,1434
867.934082,1401
868.051453,1382
868.168823,1419
868.286194,1415
868.403564,1437
868.520935,1394
868.638306,1445
868.755676,1415
868.872986,1416
868.990295,1382
869.107727,1418
869.225037,1423
869.342346,1397
869.459717,1428
869.577026,1382
869.694336,1376
869.811707,1413
869.929016,1428
870.046326,1412
870.163635,1370
870.280945,1395
870.398254,1403
870.515564,1410
870.632812,1379
870.750183,1433
870.867432,1415
870.984741,1361
871.102051,1415
871.219299,1389
871.336609,1411
871.453918,1394
871.571106,1430
871.688416,1400
871.805664,1375
871.922852,1406
872.040222,1365
872.157471,1405
872.274719,1386
872.391968,1400
872.509155,1429
872.626465,1393
872.743652,1385
872.860962,1367
872.978149,1397
873.095337,1393
873.212646,1408
873.329834,1403
873.44696,1404
873.564209,1418
873.681396,1421
873.798645,1405
873.915894,1426
874.03302,1408
874.150208,1378
874.267456,1406
874.384583,1402
874.501831,1411
874.618958,1391
874.736145,1395
874.853333,1375
874.970459,1413
875.087646,1429
875.204834,1366
875.32196,1390
875.439148,1434
875.556274,1395
875.673401,1440
875.790527,1392
875.907715,1412
876.024841,1398
876.141968,1419
876.259094,1395
876.376282,1423
876.493347,1451
876.610474,1422
876.7276,1415
876.844727,1419
876.961853,1422
877.078918,1407
877.195984,1414
877.313171,1421
877.430237,1452
877.547302,1425
877.664368,1412
877.781433,1429
877.898499,1436
878.015625,1441
878.13269,1402
878.249695,1423
878.366821,1452
878.483887,1385
878.600952,1387
878.717957,1428
878.834961,1405
878.952087,1447
879.069092,1428
879.186157,1425
879.303162,1393
879.420227,1393
879.537231,1460
879.654236,1444
879.77124,1428
879.888306,1393
880.005249,1363
880.122314,1417
880.239319,1393
880.356323,1425
880.473328,1427
880.590271,1409
880.707275,1449
880.824341,1398
880.941284,1457
881.058228,1410
881.175232,1422
881.292236,1435
881.40918,1406
881.526123,1430
881.643066,1392
881.760071,1458
881.877014,1422
881.993958,1430
882.11084,1442
882.227783,1404
882.344727,1395
882.46167,1445
882.578613,1439
882.695618,1418
882.812439,1396
882.929382,1419
883.046326,1441
883.163208,1386
883.280151,1428
883.397034,1447
883.513916,1450
883.630798,1478
883.747742,1421
883.864563,1448
883.981506,1423
884.098389,1462
884.21521,1399
884.332153,1404
884.448975,1446
884.565796,1428
884.682678,1433
884.7995,1416
884.916443,1413
885.033264,1457
885.150085,1464
885.266968,1455
885.383789,1419
885.500671,1447
885.617493,1412
885.734314,1441
885.851196,1498
885.967896,1408
886.084717,1492
886.201599,1477
886.318359,1481
886.435181,1508
886.552002,1485
886.668762,1481
886.785645,1479
886.902344,1460
887.019165,1450
887.135925,1464
887.252747,1460
887.369446,1423
887.486267,1432
887.603027,1422
887.719788,1499
887.836548,1443
887.953247,1449
888.070068,1437
888.186829,1497
888.303528,1445
888.420288,1479
888.536987,1456
888.653687,1495
888.770447,1459
888.887146,1457
889.003967,1455
889.120667,1473
889.237305,1450
889.354065,1443
889.470703,1479
889.587463,1463
889.704163,1475
889.820862,1470
889.937561,1468
890.054199,1507
890.170837,1488
890.287598,1450
890.404236,1470
890.520874,1490
890.637634,1500
890.754211,1467
890.87085,1478
890.987549,1487
891.104187,1474
891.220886,1470
891.337463,1502
891.454102,1475
891.57074,1469
891.687378,1495
891.804077,1495
891.920654,1471
892.037231,1511
892.15387,1471
892.270447,1482
892.387085,1503
892.503723,1519
892.6203,1482
892.736877,1480
892.853516,1527
892.970032,1536
893.08667,1531
893.203186,1538
893.319763,1472
893.43634,1508
893.552917,1456
893.669556,1483
893.786011,1462
893.902588,1496
894.019165,1501
894.135681,1452
894.252197,1515
894.368835,1479
894.485291,1529
894.601868,1494
894.718384,1479
894.8349,1516
894.951355,1538
895.067932,1512
895.184448,1472
895.300964,1561
895.417419,1476
895.533936,1517
895.650452,1509
895.766907,1533
895.883423,1514
895.999878,1539
896.116333,1528
896.232849,1475
896.349304,1498
896.465759,1515
896.582214,1509
896.698669,1517
896.815125,1484
896.931641,1527
897.048035,1463
897.164551,1531
897.280884,1508
897.397339,1515
897.513794,1539
897.630249,1510
897.746582,1554
897.863098,1528
897.979431,1522
898.095886,1529
898.212341,1541
898.328674,1551
898.445129,1528
898.561462,1536
898.677795,1536
898.794312,1488
898.910645,1485
899.026978,1534
899.143433,1510
899.259766,1493
899.37616,1523
899.492493,1502
899.608765,1544
899.725159,1506
899.841553,1535
899.957947,1523
900.07428,1519
900.190552,1564
900.306946,1520
900.423157,1525
900.53949,1525
900.655884,1534
900.772156,1504
900.888489,1522
901.004822,1555
901.121033,1546
901.237366,1505
901.353699,1564
901.46991,1510
901.586304,1489
901.702515,1515
901.818787,1501
901.93512,1524
902.051331,1557
902.167603,1547
902.283875,1500
902.400085,1528
902.516418,1537
902.632629,1533
902.74884,1550
902.865112,1515
902.981384,1561
903.097595,1524
903.213867,1555
903.330017,1554
903.446289,1546
903.5625,1548
903.67865,1568
903.794922,1511
903.911072,1563
904.027344,1533
904.143494,1528
904.259705,1543
904.375916,1526
904.492065,1565
904.608215,1516
904.724426,1529
904.840576,1511
904.956726,1541
905.072876,1528
905.189087,1556
905.305176,1554
905.421387,1570
905.537537,1556
905.653687,1541
905.769775,1554
905.885925,1575
906.002014,1541
906.118164,1571
906.234314,1533
906.350403,1555
906.466492,1538
906.582642,1547
906.69873,1506
906.814758,1546
906.930908,1594
907.046936,1511
907.163086,1554
907.279175,1553
907.395264,1528
907.511353,1538
907.62738,1569
907.743408,1558
907.859497,1586
907.975525,1553
908.091553,1562
908.207703,1534
908.32373,1573
908.439758,1526
908.555786,1524
908.671814,1546
908.787842,1531
908.90387,1483
909.019775,1580
909.135864,1542
909.251892,1552
909.367859,1567
909.483826,1566
909.599854,1571
909.715881,1538
909.831848,1527
909.947815,1527
910.063782,1566
910.179749,1569
910.295776,1547
910.411743,1512
910.527649,1542
910.643616,1580
910.759583,1580
910.875488,1576
910.991455,1554
911.107361,1523
911.223267,1527
911.339294,1555
911.4552,1603
911.571106,1567
911.687073,1591
911.802979,1613
911.918823,1551
912.034729,1581
912.150635,1558
912.266602,1573
912.382446,1595
912.498352,1615
912.614197,1549
912.730103,1602
912.846008,1543
792.44574,2184
792.56488,2216
792.68396,2161
792.80304,2204
792.92218,2164
793.041199,2104
793.160339,2092
793.279419,2113
793.398499,2139
793.517578,2072
793.636658,2076
793.755737,2082
793.874817,2128
793.993896,2041
794.112976,2092
794.232056,2030
794.351074,2048
794.470215,2034
794.589233,2024
794.708313,1978
794.827393,2001
794.946411,2004
795.065552,1991
795.18457,2004
795.303589,1977
795.422668,2003
795.541687,1981
795.660767,1993
795.779846,1980
795.898865,1953
796.017883,1964
796.136963,1925
796.255981,2036
796.375061,1950
796.49408,1943
796.613037,2013
796.732117,1955
796.851135,1986
796.970154,1912
797.089233,1953
797.208191,1957
797.327271,1925
797.446228,1936
797.565186,1917
797.684265,1928
797.803223,1926
797.922241,1932
798.04126,1960
798.160278,1953
798.279297,1935
798.398315,1940
798.517273,1937
798.636292,1936
798.75531,1911
798.874268,1930
798.993286,1925
799.112244,1928
799.231323,1960
799.350281,2069
799.469238,1956
799.588257,1951
799.707153,1951
799.826111,1957
799.945129,1968
800.064087,1983
800.183044,1916
800.302063,1942
800.421021,1940
800.539978,2017
800.658936,1912
800.777893,1990
800.896912,1951
801.015747,1956
801.134705,1943
801.253723,1948
801.37262,1980
801.491638,2002
801.610535,1978
801.729492,1958
801.84845,1983
801.967407,1973
802.086243,1988
802.205261,1984
802.324158,1931
802.443115,1975
802.562073,2013
802.680969,2026
802.799927,2001
802.918762,2001
803.037659,1987
803.156677,2017
803.275574,1997
803.39447,2046
803.513428,1992
803.632263,2055
803.751221,2016
803.870117,2053
803.989014,2042
804.107971,1991
804.226746,2024
804.345642,2048
804.4646,2083
804.583496,2075
804.702393,2066
804.821228,2086
804.940125,2097
805.059021,2054
805.177917,2077
805.296814,2095
805.415649,2046
805.534546,2137
805.653442,2071
805.772278,2110
805.891113,2052
806.01001,2122
806.128906,2090
806.247742,2094
806.366577,2152
806.485413,2139
806.604309,2110
806.723145,2126
806.84198,2135
806.960876,2132
807.079712,2133
807.198486,2145
807.317383,2112
807.436218,2103
807.554993,2146
807.673889,2148
807.792725,2176
807.91156,2141
808.030396,2143
808.14917,2135
808.268005,2162
808.386841,2171
808.505676,2166
808.624451,2218
808.743286,2142
808.862122,2166
808.980896,2165
809.099731,2186
809.218506,2209
809.337341,2215
809.456116,2186
809.57489,2189
809.693726,2188
809.8125,2211
809.931274,2198
810.050049,2193
810.168884,2218
810.287659,2243
810.406372,2227
810.525269,2176
810.643982,2215
810.762756,2224
810.881531,2218
811.000305,2218
811.11908,2201
811.237854,2249
811.356567,2221
811.475403,2237
811.594116,2197
811.71283,2190
811.831604,2233
811.950378,2245
812.069153,2220
812.187927,2284
812.30658,2226
812.425415,2181
812.544128,2210
812.662781,2248
812.781616,2217
812.900269,2193
813.019043,2232
813.137756,2164
813.256531,2252
813.375244,2201
813.493896,2219
813.612671,2290
813.731384,2218
813.850037,2205
813.96875,2185
814.087524,2189
814.206238,2176
814.324951,2187
814.443604,2217
814.562256,2175
814.68103,2161
814.799683,2145
814.918335,2158
815.037109,2176
815.155762,2148
815.274475,2166
815.393188,2129
815.511841,2146
815.630554,2171
815.749146,2120
815.867859,2086
815.986572,2150
816.105164,2133
816.223877,2094
816.342529,2129
816.461182,2136
816.579895,2097
816.698486,2151
816.817139,2171
816.935791,2207
817.054504,2153
817.173096,2128
817.291748,2092
817.4104,2116
817.529053,2031
817.647644,2037
817.766235,1944
817.884949,1983
818.00354,1916
818.122192,1887
818.240845,1858
818.359436,1801
818.478088,1825
818.59668,1712
818.715271,1701
818.833923,1689
818.952515,1709
819.071106,1684
819.189758,1640
819.30835,1657
819.426941,1653
819.545532,1631
819.664124,1590
819.782715,1612
819.901306,1602
820.019897,1538
820.138489,1588
820.25708,1587
820.375671,1558
820.494202,1572
820.612732,1534
820.731384,1537
820.849915,1506
820.968506,1498
821.087097,1503
821.205627,1537
821.324158,1503
821.442749,1445
821.561279,1519
821.679871,1514
821.798401,1519
821.916931,1543
822.035461,1512
822.154053,1479
822.272583,1491
822.391174,1453
822.509583,1491
822.628174,1501
822.746704,1486
822.865234,1492
822.983765,1500
823.102295,1471
823.220825,1497
823.339294,1477
823.457825,1516
823.576355,1468
823.694824,1452
823.813354,1498
823.931885,1506
824.050354,1531
824.168884,1485
824.287354,1554
824.405823,1485
824.524353,1519
824.642822,1570
824.761353,1530
824.879822,1524
824.998291,1510
825.116699,1516
825.235291,1504
825.353699,1495
825.472168,1473
825.590637,1429
825.709106,1488
825.827576,1459
825.946045,1483
826.064453,1463
826.182983,1452
826.301392,1424
826.4198,1408
826.53833,1399
826.656738,1452
826.775208,1407
826.893677,1418
827.012024,1409
827.130493,1398
827.248962,1410
827.36731,1407
827.485779,1357
827.604248,1434
827.722595,1364
827.841064,1391
827.959412,1370
828.077942,1391
828.196289,1353
828.314636,1407
828.433105,1347
828.551514,1401
828.669861,1391
828.78833,1354
828.906677,1382
829.025085,1395
829.143433,1424
829.261841,1387
829.38031,1348
829.498657,1406
829.617004,1362
829.735413,1406
829.85376,1359
829.972107,1353
830.090515,1377
830.208862,1351
830.327209,1359
830.445557,1385
830.563904,1438
830.682312,1326
830.800659,1386
830.919006,1365
831.037354,1363
831.155701,1366
831.274048,1334
831.392395,1360
831.51062,1349
831.629028,1367
831.747314,1391
831.865662,1361
831.984009,1378
832.102356,1352
832.220642,1324
832.338928,1347
832.457275,1363
832.575623,1380
832.693909,1355
832.812134,1424
832.930481,1339
833.048828,1407
833.167114,1370
833.2854,1351
833.403687,1386
833.521973,1375
833.640259,1391
833.758545,1381
833.876831,1364
833.995056,1355
834.113281,1352
834.231628,1369
834.349915,1364
834.468201,1418
834.586426,1387
834.704651,1391
834.822998,1354
834.941162,1400
835.059448,1386
835.177673,1368
835.295959,1416
835.414246,1392
835.53241,1409
835.650635,1404
835.768921,1345
835.887146,1398
836.005371,1411
836.123596,1416
836.241821,1417
836.360046,1426
836.478271,1416
836.596497,1458
836.714722,1459
836.832886,1431
836.95105,1420
837.069336,1490
837.1875,1490
837.305725,1471
837.423889,1465
837.542053,1472
837.660339,1482
837.778503,1472
837.896667,1438
838.014832,1400
838.132996,1467
838.25116,1422
838.369385,1474
838.487488,1489
838.605713,1460
838.723877,1459
838.84198,1462
838.960205,1424
839.078308,1418
839.196472,1459
839.314636,1454
839.4328,1409
839.550964,1438
839.669067,1406
839.787231,1373
839.905396,1450
840.023499,1427
840.141602,1463
840.259766,1459
840.377869,1427
840.495972,1389
840.614136,1423
840.732239,1403
840.850342,1391
840.968445,1403
841.086548,1393
841.204651,1396
841.322754,1414
841.440918,1381
841.55896,1393
841.677002,1368
841.795166,1366
841.913208,1370
842.031311,1337
842.149353,1379
842.267456,1339
842.385498,1378
842.503601,1355
842.621643,1362
842.739746,1377
842.857788,1340
842.97583,1340
843.093933,1329
843.211975,1352
843.330017,1317
843.44812,1397
843.566101,1325
843.684204,1418
843.802246,1325
843.920227,1375
844.038269,1372
844.156311,1347
844.274292,1379
844.392395,1369
844.510376,1311
844.628357,1364
844.74646,1331
844.864441,1382
844.982422,1345
845.100403,1337
845.218384,1358
845.336426,1317
845.454468,1359
845.572449,1347
845.69043,1336
845.808411,1377
845.926453,1365
846.044373,1323
846.162354,1350
846.280396,1361
846.398315,1322
846.516296,1332
846.634216,1360
846.752197,1316
846.870178,1359
846.988098,1348
847.106079,1331
847.22406,1394
847.34198,1364
847.4599,1369
847.577881,1390
847.695801,1358
847.813782,1348
847.931641,1323
848.049561,1341
848.167603,1342
848.285461,1358
848.403381,1350
848.521362,6418
848.639221,1218
848.75708,1333
848.875,1376
848.99292,1355
849.110901,1341
849.22876,1328
849.34668,1344
849.464539,1359
849.582458,1351
849.700317,1389
849.818176,1310
849.936096,1363
850.053955,1315
850.171875,1318
850.289673,1334
850.407593,1362
850.525452,1372
850.643311,1335
850.761169,1287
850.878967,1315
850.996887,1359
851.114746,1372
851.232544,1329
851.350403,1356
851.468262,1365
851.58606,1363
851.703979,1341
851.821777,1318
851.939636,1336
852.057434,1330
852.175232,1370
852.293091,1390
852.410889,1354
852.528687,1350
852.646545,1376
852.764343,1358
852.88208,1378
852.999939,1346
853.117676,1343
853.235535,1339
853.353271,1414
853.471069,1375
853.588928,1391
853.706604,1338
853.824402,1367
853.9422,1364
854.059998,1380
854.177734,1398
854.295532,1385
854.413269,1403
854.531006,1369
854.648804,1373
854.766541,1422
854.884277,1367
855.002014,1417
855.119751,1409
855.237549,1376
855.355225,1388
855.473022,1384
855.590698,1394
855.708435,1365
855.826172,1377
855.943848,1383
856.061646,1400
856.179321,1416
856.296997,1410
856.414795,1379
856.53241,1399
856.650085,1376
856.767822,1401
856.885559,1423
857.003174,1423
857.120911,1441
857.238586,1416
857.356201,1417
857.473938,1405
857.591614,1422
857.709351,1436
857.826965,1369
857.944641,1393
858.062317,1384
858.179993,1410
858.297668,1447
858.415283,1425
858.532959,1386
858.650574,1361
858.768188,1397
858.885803,1397
859.003479,1350
859.121094,1386
859.23877,1388
859.356384,1366
859.473999,1356
859.591675,1350
859.709229,1391
859.826843,1386
859.944458,1388
860.062012,1387
860.179626,1399
860.297302,1415
860.414856,1345
860.532471,1358
860.650024,1357
860.767639,1404
860.885193,1363
861.002808,1374
861.120361,1345
861.237976,1391
861.35553,1372
861.473022,1422
861.590698,1365
861.708191,1420
861.825745,1358
861.943298,1390
862.060852,1384
862.178406,1387
862.295959,1422
862.413513,1393
862.531006,1376
862.64856,1405
862.766113,1374
862.883667,1393
863.00116,1389
863.118713,1400
863.236206,1349
863.353699,1389
863.471252,1376
863.588745,1371
863.706177,1378
863.82373,1414
863.941162,1405
864.058716,1361
864.176208,1421
864.29364,1387
864.411194,1383
864.528687,1380
864.646118,1393
864.763611,1420
864.881042,1377
864.998535,1408
865.116028,1387
865.233459,1401
865.350891,1395
865.468384,1395
865.585754,1398
865.703308,1424
865.820679,1419
865.938171,1426
866.055542,1384
866.173035,1412
866.290466,1407
866.407837,1366
866.52533,1391
866.6427,1423
866.760071,1403
866.877563,1410
866.994934,1421
867.112305,1414
867.229736,1421
867.347107,1391
867.464539,1430
867.58197,1389
867.699341,1436
867.81665,1418
867.934082,1414
868.051453,1367
868.168823,1429
868.286194,1392
868.403564,1436
868.520935,1398
868.638306,1414
868.755676,1416
868.872986,1421
868.990295,1446
869.107727,1374
869.225037,1423
869.342346,1426
869.459717,1418
869.577026,1409
869.694336,1431
869.811707,1408
869.929016,1426
870.046326,1393
870.163635,1411
870.280945,1389
870.398254,1421
870.515564,1377
870.632812,1413
870.750183,1420
870.867432,1425
870.984741,1405
871.102051,1413
871.219299,1426
871.336609,1419
871.453918,1434
871.571106,1381
871.688416,1445
871.805664,1404
871.922852,1433
872.040222,1361
872.157471,1401
872.274719,1458
872.391968,1420
872.509155,1400
872.626465,1386
872.743652,1441
872.860962,1464
872.978149,1401
873.095337,1424
873.212646,1399
873.329834,1421
873.44696,1369
873.564209,1417
873.681396,1421
873.798645,1444
873.915894,1397
874.03302,1415
874.150208,1403
874.267456,1449
874.384583,1351
874.501831,1374
874.618958,1468
874.736145,1448
874.853333,1410
874.970459,1422
875.087646,1481
875.204834,1394
875.32196,1436
875.439148,1396
875.556274,1445
875.673401,1413
875.790527,1425
875.907715,1385
876.024841,1448
876.141968,1446
876.259094,1426
876.376282,1431
876.493347,1419
876.610474,1455
876.7276,1443
876.844727,1460
876.961853,1415
877.078918,1442
877.195984,1395
877.313171,1447
877.430237,1452
877.547302,1446
877.664368,1451
877.781433,1384
877.898499,1436
878.015625,1417
878.13269,1429
878.249695,1422
878.366821,1388
878.483887,1460
878.600952,1441
878.717957,1380
878.834961,1456
878.952087,1428
879.069092,1449
879.186157,1427
879.303162,1428
879.420227,1397
879.537231,1447
879.654236,1447
879.77124,1414
879.888306,1433
880.005249,1428
880.122314,1451
880.239319,1417
880.356323,1429
880.473328,1441
880.590271,1386
880.707275,1444
880.824341,1452
880.941284,1425
881.058228,1395
881.175232,1398
881.292236,1443
881.40918,1423
881.526123,1447
881.643066,1448
881.760071,1433
881.877014,1464
881.993958,1439
882.11084,1405
882.227783,1430
882.344727,1434
882.46167,1451
882.578613,1397
882.695618,1439
882.812439,1428
882.929382,1463
883.046326,1434
883.163208,1418
883.280151,1488
883.397034,1436
883.513916,1470
883.630798,1488
883.747742,1466
883.864563,1435
883.981506,1431
884.098389,1437
884.21521,1430
884.332153,1426
884.448975,1499
884.565796,1459
884.682678,1457
884.7995,1437
884.916443,1444
885.033264,1491
885.150085,1453
885.266968,1490
885.383789,1454
885.500671,1440
885.617493,1409
885.734314,1475
885.851196,1463
885.967896,1471
886.084717,1472
886.201599,1484
886.318359,1482
886.435181,1434
886.552002,1442
886.668762,1439
886.785645,1493
886.902344,1451
887.019165,1481
887.135925,1480
887.252747,1487
887.369446,1416
887.486267,1506
887.603027,1453
887.719788,1437
887.836548,1504
887.953247,1464
888.070068,1468
888.186829,1472
888.303528,1538
888.420288,1496
888.536987,1445
888.653687,1496
888.770447,1479
888.887146,1494
889.003967,1494
889.120667,1452
889.237305,1525
889.354065,1465
889.470703,1493
889.587463,1461
889.704163,1476
889.820862,1453
889.937561,1472
890.054199,1469
890.170837,1457
890.287598,1495
890.404236,1514
890.520874,1502
890.637634,1468
890.754211,1497
890.87085,1500
890.987549,1512
891.104187,1493
891.220886,1490
891.337463,1499
891.454102,1528
891.57074,1496
891.687378,1541
891.804077,1532
891.920654,1458
892.037231,1501
892.15387,1486
892.270447,1521
892.387085,1458
892.503723,1513
892.6203,1530
892.736877,1486
892.853516,1489
892.970032,1499
893.08667,1537
893.203186,1487
893.319763,1518
893.43634,1494
893.552917,1486
893.669556,1539
893.786011,1496
893.902588,1531
894.019165,1517
894.135681,1528
894.252197,1504
894.368835,1516
894.485291,1484
894.601868,1495
894.718384,1528
894.8349,1486
894.951355,1519
895.067932,1556
895.184448,1559
895.300964,1557
895.417419,1547
895.533936,1526
895.650452,1489
895.766907,1526
895.883423,1548
895.999878,1534
896.116333,1506
896.232849,1505
896.349304,1518
896.465759,1493
896.582214,1531
896.698669,1516
896.815125,1521
896.931641,1510
897.048035,1534
897.164551,1501
897.280884,1486
897.397339,1551
897.513794,1525
897.630249,1500
897.746582,1547
897.863098,1564
897.979431,1540
898.095886,1539
898.212341,1544
898.328674,1515
898.445129,1549
898.561462,1526
898.677795,1568
898.794312,1499
898.910645,1493
899.026978,1544
899.143433,1496
899.259766,1531
899.37616,1529
899.492493,1501
899.608765,1527
899.725159,1544
899.841553,1503
899.957947,1486
900.07428,1529
900.190552,1557
900.306946,1532
900.423157,1559
900.53949,1516
900.655884,1575
900.772156,1563
900.888489,1580
901.004822,1553
901.121033,1518
901.237366,1550
901.353699,1588
901.46991,1538
901.586304,1527
901.702515,1522
901.818787,1508
901.93512,1528
902.051331,1526
902.167603,1544
902.283875,1553
902.400085,1531
902.516418,1549
902.632629,1537
902.74884,1518
902.865112,1542
902.981384,1535
903.097595,1587
903.213867,1557
903.330017,1553
903.446289,1533
903.5625,1553
903.67865,1539
903.794922,1578
903.911072,1577
904.027344,1537
904.143494,1558
904.259705,1557
904.375916,1539
904.492065,1582
904.608215,1563
904.724426,1581
904.840576,1554
904.956726,1517
905.072876,1584
905.189087,1526
905.305176,1524
905.421387,1550
905.537537,1564
905.653687,1559
905.769775,1560
905.885925,1562
906.002014,1548
906.118164,1574
906.234314,1588
906.350403,1569
906.466492,1543
906.582642,1578
906.69873,1568
906.814758,1575
906.930908,1550
907.046936,1566
907.163086,1550
907.279175,1570
907.395264,1570
907.511353,1563
907.62738,1578
907.743408,1575
907.859497,1555
907.975525,1574
908.091553,1592
908.207703,1616
908.32373,1612
908.439758,1580
908.555786,1597
908.671814,1560
908.787842,1604
908.90387,1552
909.019775,1625
909.135864,1554
909.251892,1601
909.367859,1563
909.483826,1556
909.599854,1584
909.715881,1576
909.831848,1625
909.947815,1584
910.063782,1584
910.179749,1552
910.295776,1541
910.411743,1607
910.527649,1549
910.643616,1594
910.759583,1605
910.875488,1593
910.991455,1533
911.107361,1587
911.223267,1617
911.339294,1605
911.4552,1585
911.571106,1565
911.687073,1572
911.802979,1596
911.918823,1549
912.034729,1595
912.150635,1573
912.266602,1585
912.382446,1586
912.498352,1576
912.614197,1563
912.730103,1557
912.846008,1545
