792.44574,1676
792.56488,1630
792.68396,1677
792.80304,1625
792.92218,1592
793.041199,1535
793.160339,1555
793.279419,1562
793.398499,1573
793.517578,1551
793.636658,1530
793.755737,1541
793.874817,1602
793.993896,1569
794.112976,1550
794.232056,1493
794.351074,1529
794.470215,1577
794.589233,1523
794.708313,1508
794.827393,1528
794.946411,1513
795.065552,1534
795.18457,1504
795.303589,1576
795.422668,1483
795.541687,1576
795.660767,1504
795.779846,1488
795.898865,1526
796.017883,1440
796.136963,1539
796.255981,1488
796.375061,1489
796.49408,1518
796.613037,1528
796.732117,1485
796.851135,1515
796.970154,1479
797.089233,1454
797.208191,1493
797.327271,1483
797.446228,1484
797.565186,1522
797.684265,1485
797.803223,1465
797.922241,1483
798.04126,1468
798.160278,1479
798.279297,1476
798.398315,1449
798.517273,1428
798.636292,1460
798.75531,1452
798.874268,1481
798.993286,1436
799.112244,1470
799.231323,1479
799.350281,1460
799.469238,1489
799.588257,1460
799.707153,1445
799.826111,1452
799.945129,1431
800.064087,1458
800.183044,1456
800.302063,1465
800.421021,1465
800.539978,1470
800.658936,1439
800.777893,1476
800.896912,1493
801.015747,1481
801.134705,1443
801.253723,1441
801.37262,1467
801.491638,1462
801.610535,1438
801.729492,1452
801.84845,1423
801.967407,1439
802.086243,1424
802.205261,1495
802.324158,1450
802.443115,1465
802.562073,1386
802.680969,1463
802.799927,1452
802.918762,1440
803.037659,1490
803.156677,1465
803.275574,1460
803.39447,1404
803.513428,1430
803.632263,1453
803.751221,1485
803.870117,1417
803.989014,1420
804.107971,1474
804.226746,1454
804.345642,1419
804.4646,1470
804.583496,1428
804.702393,1415
804.821228,1473
804.940125,1434
805.059021,1444
805.177917,1443
805.296814,1448
805.415649,1473
805.534546,1451
805.653442,1432
805.772278,1453
805.891113,1431
806.01001,1443
806.128906,1413
806.247742,1426
806.366577,1384
806.485413,1460
806.604309,1448
806.723145,1420
806.84198,1466
806.960876,1438
807.079712,1422
807.198486,1439
807.317383,1425
807.436218,1441
807.554993,1459
807.673889,1440
807.792725,1414
807.91156,1444
808.030396,1473
808.14917,1413
808.268005,1423
808.386841,1450
808.505676,1427
808.624451,1409
808.743286,1445
808.862122,1445
808.980896,1477
809.099731,1422
809.218506,1450
809.337341,1441
809.456116,1455
809.57489,1482
809.693726,1445
809.8125,1431
809.931274,1438
810.050049,1423
810.168884,1431
810.287659,1407
810.406372,1430
810.525269,1439
810.643982,1453
810.762756,1461
810.881531,1405
811.000305,1429
811.11908,1421
811.237854,1407
811.356567,1423
811.475403,1481
811.594116,1443
811.71283,1466
811.831604,1440
811.950378,1421
812.069153,1405
812.187927,1449
812.30658,1424
812.425415,1428
812.544128,1418
812.662781,1436
812.781616,1454
812.900269,1431
813.019043,1366
813.137756,1435
813.256531,1384
813.375244,1385
813.493896,1392
813.612671,1421
813.731384,1393
813.850037,1450
813.96875,1415
814.087524,1402
814.206238,1443
814.324951,1458
814.443604,1424
814.562256,1407
814.68103,1428
814.799683,1357
814.918335,1422
815.037109,1421
815.155762,1411
815.274475,1380
815.393188,1391
815.511841,1408
815.630554,1436
815.749146,1377
815.867859,1409
815.986572,1409
816.105164,1348
816.223877,1386
816.342529,1403
816.461182,1411
816.579895,1412
816.698486,1428
816.817139,1398
816.935791,1429
817.054504,1397
817.173096,1396
817.291748,1354
817.4104,1395
817.529053,1415
817.647644,1406
817.766235,1382
817.884949,1388
818.00354,1392
818.122192,1350
818.240845,1343
818.359436,1362
818.478088,1386
818.59668,1369
818.715271,1350
818.833923,1349
818.952515,1334
819.071106,1331
819.189758,1373
819.30835,1357
819.426941,1346
819.545532,1355
819.664124,1356
819.782715,1358
819.901306,1359
820.019897,1332
820.138489,1351
820.25708,1356
820.375671,1323
820.494202,1317
820.612732,1365
820.731384,1293
820.849915,1361
820.968506,1327
821.087097,1327
821.205627,1342
821.324158,1307
821.442749,1322
821.561279,1341
821.679871,1312
821.798401,1313
821.916931,1368
822.035461,1300
822.154053,1333
822.272583,1334
822.391174,1346
822.509583,1312
822.628174,1363
822.746704,1324
822.865234,1333
822.983765,1319
823.102295,1350
823.220825,1303
823.339294,1316
823.457825,1328
823.576355,1327
823.694824,1333
823.813354,1340
823.931885,1302
824.050354,1314
824.168884,1330
824.287354,1338
824.405823,1325
824.524353,1348
824.642822,1287
824.761353,1284
824.879822,1316
824.998291,1325
825.116699,1291
825.235291,1317
825.353699,1325
825.472168,1297
825.590637,1330
825.709106,1314
825.827576,1320
825.946045,1313
826.064453,1319
826.182983,1297
826.301392,1275
826.4198,1312
826.53833,1266
826.656738,1324
826.775208,1307
826.893677,1297
827.012024,1316
827.130493,1273
827.248962,1284
827.36731,1294
827.485779,1259
827.604248,1296
827.722595,1277
827.841064,1294
827.959412,1304
828.077942,1299
828.196289,1302
828.314636,1289
828.433105,1312
828.551514,1320
828.669861,1284
828.78833,1283
828.906677,1275
829.025085,1261
829.143433,1301
829.261841,1306
829.38031,1285
829.498657,1271
829.617004,1282
829.735413,1287
829.85376,1264
829.972107,1256
830.090515,1279
830.208862,1283
830.327209,1286
830.445557,1272
830.563904,1304
830.682312,1267
830.800659,1290
830.919006,1273
831.037354,1287
831.155701,1303
831.274048,1283
831.392395,1317
831.51062,1276
831.629028,1316
831.747314,1311
831.865662,1291
831.984009,1239
832.102356,1293
832.220642,1265
832.338928,1311
832.457275,1277
832.575623,1270
832.693909,1288
832.812134,1239
832.930481,1281
833.048828,1291
833.167114,1251
833.2854,1303
833.403687,1308
833.521973,1272
833.640259,1289
833.758545,1294
833.876831,1275
833.995056,1274
834.113281,1271
834.231628,1296
834.349915,1264
834.468201,1295
834.586426,1309
834.704651,1247
834.822998,1282
834.941162,1241
835.059448,1300
835.177673,1307
835.295959,1253
835.414246,1261
835.53241,1271
835.650635,1261
835.768921,1280
835.887146,1309
836.005371,1260
836.123596,1299
836.241821,1264
836.360046,1293
836.478271,1276
836.596497,1288
836.714722,1317
836.832886,1271
836.95105,1230
837.069336,1270
837.1875,1259
837.305725,1275
837.423889,1270
837.542053,1292
837.660339,1244
837.778503,1297
837.896667,1289
838.014832,1292
838.132996,1254
838.25116,1308
838.369385,1288
838.487488,1305
838.605713,1248
838.723877,1290
838.84198,1289
838.960205,1275
839.078308,1273
839.196472,1248
839.314636,1258
839.4328,1290
839.550964,1233
839.669067,1272
839.787231,1272
839.905396,1304
840.023499,1292
840.141602,1257
840.259766,1278
840.377869,1279
840.495972,1300
840.614136,1265
840.732239,1296
840.850342,1268
840.968445,1284
841.086548,1267
841.204651,1252
841.322754,1272
841.440918,1294
841.55896,1261
841.677002,1264
841.795166,1269
841.913208,1242
842.031311,1283
842.149353,1262
842.267456,1253
842.385498,1285
842.503601,1273
842.621643,1298
842.739746,1291
842.857788,1248
842.97583,1288
843.093933,1257
843.211975,1242
843.330017,1326
843.44812,1264
843.566101,1258
843.684204,1277
843.802246,1289
843.920227,1286
844.038269,1292
844.156311,1287
844.274292,1229
844.392395,1283
844.510376,1251
844.628357,1244
844.74646,1288
844.864441,1280
844.982422,1279
845.100403,1258
845.218384,1291
845.336426,1222
845.454468,1302
845.572449,1276
845.69043,1293
845.808411,1237
845.926453,1267
846.044373,1253
846.162354,1242
846.280396,1289
846.398315,1259
846.516296,1292
846.634216,1252
846.752197,1263
846.870178,1280
846.988098,1257
847.106079,1270
847.22406,1242
847.34198,1227
847.4599,1290
847.577881,1270
847.695801,1250
847.813782,1244
847.931641,1252
848.049561,1259
848.167603,1297
848.285461,1269
848.403381,1265
848.521362,1292
848.639221,1270
848.75708,1310
848.875,1275
848.99292,1293
849.110901,1261
849.22876,1261
849.34668,1279
849.464539,1286
849.582458,1264
849.700317,1245
849.818176,1271
849.936096,1295
850.053955,1276
850.171875,1257
850.289673,1290
850.407593,1268
850.525452,1282
850.643311,1267
850.761169,1280
850.878967,1260
850.996887,1305
851.114746,1263
851.232544,1260
851.350403,1213
851.468262,1308
851.58606,1234
851.703979,1256
851.821777,1322
851.939636,1283
852.057434,1247
852.175232,1238
852.293091,1275
852.410889,1279
852.528687,1270
852.646545,1299
852.764343,1236
852.88208,1269
852.999939,1252
853.117676,1302
853.235535,1279
853.353271,1258
853.471069,1280
853.588928,1263
853.706604,1260
853.824402,1253
853.9422,1284
854.059998,1302
854.177734,1275
854.295532,1262
854.413269,1241
854.531006,1269
854.648804,1268
854.766541,1261
854.884277,1333
855.002014,1242
855.119751,1259
855.237549,1289
855.355225,1272
855.473022,1301
855.590698,1249
855.708435,1257
855.826172,1265
855.943848,1266
856.061646,1302
856.179321,1296
856.296997,1288
856.414795,1272
856.53241,1289
856.650085,1259
856.767822,1297
856.885559,1274
857.003174,1274
857.120911,1317
857.238586,1268
857.356201,1245
857.473938,1295
857.591614,1281
857.709351,1320
857.826965,1267
857.944641,1263
858.062317,1272
858.179993,1219
858.297668,1248
858.415283,1266
858.532959,1303
858.650574,1298
858.768188,1259
858.885803,1287
859.003479,1293
859.121094,1261
859.23877,1300
859.356384,1258
859.473999,1289
859.591675,1268
859.709229,1288
859.826843,1284
859.944458,1303
860.062012,1260
860.179626,1287
860.297302,1256
860.414856,1256
860.532471,1267
860.650024,1271
860.767639,1289
860.885193,1289
861.002808,1282
861.120361,1296
861.237976,1220
861.35553,1279
861.473022,1287
861.590698,1303
861.708191,1256
861.825745,1291
861.943298,1284
862.060852,1255
862.178406,1292
862.295959,1300
862.413513,1329
862.531006,1287
862.64856,1254
862.766113,1278
862.883667,1267
863.00116,1282
863.118713,1267
863.236206,1271
863.353699,1271
863.471252,1301
863.588745,1285
863.706177,1285
863.82373,1250
863.941162,1291
864.058716,1295
864.176208,1244
864.29364,1275
864.411194,1280
864.528687,1287
864.646118,1282
864.763611,1259
864.881042,1294
864.998535,1276
865.116028,1297
865.233459,1276
865.350891,1253
865.468384,1284
865.585754,1274
865.703308,1266
865.820679,1287
865.938171,1274
866.055542,1268
866.173035,1273
866.290466,1270
866.407837,1254
866.52533,1318
866.6427,1317
866.760071,1252
866.877563,1301
866.994934,1263
867.112305,1261
867.229736,1266
867.347107,1303
867.464539,1264
867.58197,1280
867.699341,1352
867.81665,1267
867.934082,1299
868.051453,1293
868.168823,1319
868.286194,1271
868.403564,1257
868.520935,1249
868.638306,1282
868.755676,1279
868.872986,1287
868.990295,1295
869.107727,1305
869.225037,1253
869.342346,1307
869.459717,1270
869.577026,1286
869.694336,1304
869.811707,1328
869.929016,1280
870.046326,1288
870.163635,1297
870.280945,1345
870.398254,1286
870.515564,1280
870.632812,1300
870.750183,1269
870.867432,1308
870.984741,1325
871.102051,1284
871.219299,1314
871.336609,1316
871.453918,1316
871.571106,1273
871.688416,1298
871.805664,1264
871.922852,1293
872.040222,1279
872.157471,1311
872.274719,1276
872.391968,1312
872.509155,1264
872.626465,1318
872.743652,1296
872.860962,1313
872.978149,1318
873.095337,1289
873.212646,1293
873.329834,1276
873.44696,1303
873.564209,1325
873.681396,1293
873.798645,1338
873.915894,1273
874.03302,1313
874.150208,1282
874.267456,1311
874.384583,1303
874.501831,1353
874.618958,1292
874.736145,1271
874.853333,1309
874.970459,1281
875.087646,1319
875.204834,1314
875.32196,1324
875.439148,1298
875.556274,1287
875.673401,1318
875.790527,1259
875.907715,1314
876.024841,1306
876.141968,1312
876.259094,1301
876.376282,1338
876.493347,1294
876.610474,1330
876.7276,1255
876.844727,1279
876.961853,1276
877.078918,1323
877.195984,1301
877.313171,1305
877.430237,1301
877.547302,1299
877.664368,1267
877.781433,1303
877.898499,1321
878.015625,1304
878.13269,1310
878.249695,1320
878.366821,1305
878.483887,1326
878.600952,1305
878.717957,1321
878.834961,1321
878.952087,1330
879.069092,1307
879.186157,1321
879.303162,1291
879.420227,1332
879.537231,1289
879.654236,1295
879.77124,1300
879.888306,1326
880.005249,1315
880.122314,1295
880.239319,1302
880.356323,1347
880.473328,1255
880.590271,1287
880.707275,1288
880.824341,1299
880.941284,1345
881.058228,1317
881.175232,1345
881.292236,1307
881.40918,1329
881.526123,1310
881.643066,1253
881.760071,1346
881.877014,1304
881.993958,1320
882.11084,1326
882.227783,1258
882.344727,1281
882.46167,1323
882.578613,1289
882.695618,1322
882.812439,1289
882.929382,1340
883.046326,1308
883.163208,1303
883.280151,1299
883.397034,1266
883.513916,1274
883.630798,1290
883.747742,1316
883.864563,1306
883.981506,1301
884.098389,1315
884.21521,1285
884.332153,1310
884.448975,1270
884.565796,1333
884.682678,1311
884.7995,1298
884.916443,1330
885.033264,1331
885.150085,1307
885.266968,1345
885.383789,1343
885.500671,1321
885.617493,1339
885.734314,1315
885.851196,1334
885.967896,1335
886.084717,1355
886.201599,1349
886.318359,1339
886.435181,1326
886.552002,1344
886.668762,1356
886.785645,1328
886.902344,1335
887.019165,1361
887.135925,1310
887.252747,1322
887.369446,1312
887.486267,1343
887.603027,1352
887.719788,1309
887.836548,1316
887.953247,1300
888.070068,1361
888.186829,1303
888.303528,1338
888.420288,1318
888.536987,1351
888.653687,1344
888.770447,1338
888.887146,1319
889.003967,1325
889.120667,1308
889.237305,1323
889.354065,1342
889.470703,1344
889.587463,1333
889.704163,1312
889.820862,1319
889.937561,1338
890.054199,1313
890.170837,1331
890.287598,1350
890.404236,1324
890.520874,1336
890.637634,1332
890.754211,1340
890.87085,1350
890.987549,1355
891.104187,1337
891.220886,1345
891.337463,1352
891.454102,1333
891.57074,1321
891.687378,1344
891.804077,1317
891.920654,1332
892.037231,1328
892.15387,1310
892.270447,1324
892.387085,1360
892.503723,1307
892.6203,1358
892.736877,1301
892.853516,1351
892.970032,1384
893.08667,1308
893.203186,1334
893.319763,1302
893.43634,1396
893.552917,1312
893.669556,1341
893.786011,1346
893.902588,1355
894.019165,1298
894.135681,1353
894.252197,1373
894.368835,1393
894.485291,1345
894.601868,1358
894.718384,1368
894.8349,1347
894.951355,1350
895.067932,1347
895.184448,1339
895.300964,1332
895.417419,1362
895.533936,1314
895.650452,1346
895.766907,1354
895.883423,1376
895.999878,1364
896.116333,1351
896.232849,1334
896.349304,1319
896.465759,1348
896.582214,1311
896.698669,1341
896.815125,1356
896.931641,1379
897.048035,1346
897.164551,1337
897.280884,1329
897.397339,1344
897.513794,1368
897.630249,1366
897.746582,1373
897.863098,1378
897.979431,1333
898.095886,1379
898.212341,1383
898.328674,1373
898.445129,1367
898.561462,1374
898.677795,1379
898.794312,1368
898.910645,1363
899.026978,1354
899.143433,1314
899.259766,1363
899.37616,1367
899.492493,1328
899.608765,1358
899.725159,1342
899.841553,1360
899.957947,1325
900.07428,1331
900.190552,1372
900.306946,1386
900.423157,1394
900.53949,1365
900.655884,1353
900.772156,1343
900.888489,1355
901.004822,1325
901.121033,1357
901.237366,1392
901.353699,1391
901.46991,1358
901.586304,1361
901.702515,1396
901.818787,1352
901.93512,1382
902.051331,1372
902.167603,1349
902.283875,1387
902.400085,1376
902.516418,1343
902.632629,1356
902.74884,1362
902.865112,1412
902.981384,1341
903.097595,1375
903.213867,1381
903.330017,1413
903.446289,1346
903.5625,1367
903.67865,1384
903.794922,1375
903.911072,1390
904.027344,1369
904.143494,1386
904.259705,1426
904.375916,1353
904.492065,1356
904.608215,1346
904.724426,1353
904.840576,1367
904.956726,1381
905.072876,1349
905.189087,1376
905.305176,1385
905.421387,1375
905.537537,1391
905.653687,1403
905.769775,1362
905.885925,1375
906.002014,1375
906.118164,1384
906.234314,1349
906.350403,1388
906.466492,1317
906.582642,1388
906.69873,1364
906.814758,1315
906.930908,1398
907.046936,1373
907.163086,1351
907.279175,1411
907.395264,1404
907.511353,1414
907.62738,1407
907.743408,1415
907.859497,1390
907.975525,1380
908.091553,1402
908.207703,1359
908.32373,1371
908.439758,1377
908.555786,1384
908.671814,1373
908.787842,1423
908.90387,1390
909.019775,1391
909.135864,1415
909.251892,1403
909.367859,1382
909.483826,1431
909.599854,1414
909.715881,1413
909.831848,1399
909.947815,1398
910.063782,1391
910.179749,1405
910.295776,1404
910.411743,1407
910.527649,1389
910.643616,1400
910.759583,1432
910.875488,1381
910.991455,1324
911.107361,1399
911.223267,1400
911.339294,1412
911.4552,1384
911.571106,1384
911.687073,1369
911.802979,1368
911.918823,1379
912.034729,1394
912.150635,1375
912.266602,1397
912.382446,1391
912.498352,1386
912.614197,1368
912.730103,1390
912.846008,1374
792.44574,1706
792.56488,1662
792.68396,1715
792.80304,1665
792.92218,1612
793.041199,1606
793.160339,1617
793.279419,1583
793.398499,1618
793.517578,1607
793.636658,1554
793.755737,1636
793.874817,1599
793.993896,1579
794.112976,1612
794.232056,1616
794.351074,1518
794.470215,1582
794.589233,1569
794.708313,1525
794.827393,1538
794.946411,1554
795.065552,1581
795.18457,1584
795.303589,1588
795.422668,1587
795.541687,1558
795.660767,1553
795.779846,1516
795.898865,1511
796.017883,1464
796.136963,1524
796.255981,1554
796.375061,1548
796.49408,1578
796.613037,1562
796.732117,1519
796.851135,1522
796.970154,1523
797.089233,1552
797.208191,1504
797.327271,1488
797.446228,1524
797.565186,1557
797.684265,1488
797.803223,1530
797.922241,1533
798.04126,1498
798.160278,1473
798.279297,1534
798.398315,1531
798.517273,1503
798.636292,1505
798.75531,1486
798.874268,1474
798.993286,1460
799.112244,1472
799.231323,1476
799.350281,1494
799.469238,1508
799.588257,1465
799.707153,1451
799.826111,1508
799.945129,1507
800.064087,1488
800.183044,1460
800.302063,1501
800.421021,1494
800.539978,1472
800.658936,1479
800.777893,1477
800.896912,1446
801.015747,1483
801.134705,1515
801.253723,1474
801.37262,1508
801.491638,1493
801.610535,1479
801.729492,1496
801.84845,1482
801.967407,1473
802.086243,1472
802.205261,1456
802.324158,1477
802.443115,1501
802.562073,1483
802.680969,1478
802.799927,1527
802.918762,1438
803.037659,1506
803.156677,1469
803.275574,1482
803.39447,1453
803.513428,1447
803.632263,1490
803.751221,1481
803.870117,1462
803.989014,1441
804.107971,1471
804.226746,1468
804.345642,1501
804.4646,1463
804.583496,1478
804.702393,1467
804.821228,1488
804.940125,1482
805.059021,1495
805.177917,1468
805.296814,1447
805.415649,1483
805.534546,1496
805.653442,1463
805.772278,1498
805.891113,1479
806.01001,1463
806.128906,1466
806.247742,1467
806.366577,1438
806.485413,1494
806.604309,1466
806.723145,1453
806.84198,1485
806.960876,1479
807.079712,1464
807.198486,1453
807.317383,1462
807.436218,1425
807.554993,1456
807.673889,1442
807.792725,1466
807.91156,1468
808.030396,1448
808.14917,1492
808.268005,1425
808.386841,1458
808.505676,1455
808.624451,1443
808.743286,1438
808.862122,1494
808.980896,1443
809.099731,1417
809.218506,1468
809.337341,1450
809.456116,1455
809.57489,1473
809.693726,1445
809.8125,1471
809.931274,1416
810.050049,1450
810.168884,1457
810.287659,1434
810.406372,1484
810.525269,1455
810.643982,1454
810.762756,1452
810.881531,1436
811.000305,1457
811.11908,1434
811.237854,1432
811.356567,1456
811.475403,1450
811.594116,1437
811.71283,1436
811.831604,1443
811.950378,1448
812.069153,1440
812.187927,1474
812.30658,1459
812.425415,1453
812.544128,1462
812.662781,1429
812.781616,1448
812.900269,1434
813.019043,1460
813.137756,1420
813.256531,1401
813.375244,1428
813.493896,1428
813.612671,1494
813.731384,1425
813.850037,1449
813.96875,1415
814.087524,1467
814.206238,1492
814.324951,1382
814.443604,1420
814.562256,1429
814.68103,1426
814.799683,1413
814.918335,1443
815.037109,1410
815.155762,1431
815.274475,1417
815.393188,1411
815.511841,1409
815.630554,1429
815.749146,1419
815.867859,1430
815.986572,1411
816.105164,1401
816.223877,1445
816.342529,1425
816.461182,1454
816.579895,1439
816.698486,1438
816.817139,1462
816.935791,1436
817.054504,1417
817.173096,1411
817.291748,1406
817.4104,1419
817.529053,1410
817.647644,1451
817.766235,1436
817.884949,1427
818.00354,1394
818.122192,1371
818.240845,1399
818.359436,1407
818.478088,1437
818.59668,1357
818.715271,1385
818.833923,1375
818.952515,1389
819.071106,1380
819.189758,1323
819.30835,1373
819.426941,1386
819.545532,1388
819.664124,1339
819.782715,1387
819.901306,1390
820.019897,1351
820.138489,1323
820.25708,1387
820.375671,1358
820.494202,1367
820.612732,1340
820.731384,1403
820.849915,1349
820.968506,1358
821.087097,1312
821.205627,1381
821.324158,1365
821.442749,1319
821.561279,1382
821.679871,1353
821.798401,1322
821.916931,1319
822.035461,1363
822.154053,1351
822.272583,1386
822.391174,1351
822.509583,1343
822.628174,1341
822.746704,1343
822.865234,1387
822.983765,1391
823.102295,1287
823.220825,1346
823.339294,1353
823.457825,1365
823.576355,1352
823.694824,1291
823.813354,1362
823.931885,1325
824.050354,1359
824.168884,1372
824.287354,1359
824.405823,1314
824.524353,1364
824.642822,1313
824.761353,1355
824.879822,1338
824.998291,1303
825.116699,1313
825.235291,1339
825.353699,1341
825.472168,1327
825.590637,1352
825.709106,1301
825.827576,1288
825.946045,1310
826.064453,1348
826.182983,1335
826.301392,1374
826.4198,1313
826.53833,1317
826.656738,1344
826.775208,1332
826.893677,1294
827.012024,1319
827.130493,1295
827.248962,1353
827.36731,1324
827.485779,1310
827.604248,1328
827.722595,1309
827.841064,1302
827.959412,1325
828.077942,1318
828.196289,1314
828.314636,1326
828.433105,1312
828.551514,1254
828.669861,1293
828.78833,1307
828.906677,1366
829.025085,1336
829.143433,1283
829.261841,1322
829.38031,1288
829.498657,1336
829.617004,1324
829.735413,1296
829.85376,1316
829.972107,1312
830.090515,1294
830.208862,1267
830.327209,1297
830.445557,1313
830.563904,1310
830.682312,1324
830.800659,1320
830.919006,1304
831.037354,1300
831.155701,1329
831.274048,1312
831.392395,1329
831.51062,1294
831.629028,1282
831.747314,1331
831.865662,1323
831.984009,1275
832.102356,1283
832.220642,1288
832.338928,1306
832.457275,1332
832.575623,1296
832.693909,1322
832.812134,1305
832.930481,1294
833.048828,1286
833.167114,1318
833.2854,1309
833.403687,1313
833.521973,1291
833.640259,1283
833.758545,1325
833.876831,1301
833.995056,1319
834.113281,1328
834.231628,1310
834.349915,1309
834.468201,1315
834.586426,1273
834.704651,1305
834.822998,1291
834.941162,1312
835.059448,1333
835.177673,1273
835.295959,1305
835.414246,1331
835.53241,1333
835.650635,1278
835.768921,1289
835.887146,1324
836.005371,1316
836.123596,1303
836.241821,1308
836.360046,1300
836.478271,1277
836.596497,1291
836.714722,1303
836.832886,1309
836.95105,1299
837.069336,1296
837.1875,1291
837.305725,1267
837.423889,1295
837.542053,1319
837.660339,1327
837.778503,1328
837.896667,1275
838.014832,1277
838.132996,1309
838.25116,1298
838.369385,1307
838.487488,1298
838.605713,1277
838.723877,1274
838.84198,1330
838.960205,1274
839.078308,1279
839.196472,1299
839.314636,1323
839.4328,1301
839.550964,1280
839.669067,1291
839.787231,1261
839.905396,1265
840.023499,1291
840.141602,1294
840.259766,1341
840.377869,1292
840.495972,1296
840.614136,1267
840.732239,1307
840.850342,1264
840.968445,1317
841.086548,1265
841.204651,1281
841.322754,1304
841.440918,1284
841.55896,1327
841.677002,1270
841.795166,1274
841.913208,1295
842.031311,1302
842.149353,1247
842.267456,1266
842.385498,1283
842.503601,1327
842.621643,1273
842.739746,1292
842.857788,1294
842.97583,1289
843.093933,1270
843.211975,1300
843.330017,1308
843.44812,1316
843.566101,1277
843.684204,1299
843.802246,1283
843.920227,1302
844.038269,1298
844.156311,1306
844.274292,1272
844.392395,1260
844.510376,1329
844.628357,1328
844.74646,1284
844.864441,1310
844.982422,1283
845.100403,1309
845.218384,1261
845.336426,1276
845.454468,1249
845.572449,1278
845.69043,1271
845.808411,1245
845.926453,1251
846.044373,1278
846.162354,1267
846.280396,1291
846.398315,1277
846.516296,1285
846.634216,1261
846.752197,1250
846.870178,1267
846.988098,1325
847.106079,1277
847.22406,1248
847.34198,1247
847.4599,1241
847.577881,1322
847.695801,1321
847.813782,1277
847.931641,1275
848.049561,1313
848.167603,1285
848.285461,1297
848.403381,1283
848.521362,1284
848.639221,1322
848.75708,1305
848.875,1294
848.99292,1318
849.110901,1308
849.22876,1288
849.34668,1316
849.464539,1299
849.582458,1300
849.700317,1301
849.818176,1302
849.936096,1302
850.053955,1294
850.171875,1275
850.289673,1271
850.407593,1325
850.525452,1324
850.643311,1312
850.761169,1324
850.878967,1261
850.996887,1287
851.114746,1292
851.232544,1294
851.350403,1298
851.468262,1309
851.58606,1297
851.703979,1305
851.821777,1280
851.939636,1260
852.057434,1273
852.175232,1272
852.293091,1279
852.410889,1330
852.528687,1300
852.646545,1325
852.764343,1298
852.88208,1306
852.999939,1310
853.117676,1294
853.235535,1325
853.353271,1268
853.471069,1346
853.588928,1252
853.706604,1293
853.824402,1270
853.9422,1289
854.059998,1304
854.177734,1321
854.295532,1308
854.413269,1300
854.531006,1291
854.648804,1286
854.766541,1307
854.884277,1287
855.002014,1282
855.119751,1298
855.237549,1265
855.355225,1287
855.473022,1262
855.590698,1291
855.708435,1302
855.826172,1264
855.943848,1326
856.061646,1324
856.179321,1308
856.296997,1295
856.414795,1345
856.53241,1307
856.650085,1277
856.767822,1336
856.885559,1310
857.003174,1331
857.120911,1299
857.238586,1363
857.356201,1305
857.473938,1280
857.591614,1324
857.709351,1273
857.826965,1314
857.944641,1269
858.062317,1315
858.179993,1300
858.297668,1306
858.415283,1269
858.532959,1261
858.650574,1322
858.768188,1324
858.885803,1318
859.003479,1338
859.121094,1305
859.23877,1306
859.356384,1300
859.473999,1289
859.591675,1299
859.709229,1309
859.826843,1312
859.944458,1293
860.062012,1302
860.179626,1292
860.297302,1300
860.414856,1295
860.532471,1276
860.650024,1265
860.767639,1292
860.885193,1284
861.002808,1289
861.120361,1327
861.237976,1315
861.35553,1302
861.473022,1290
861.590698,1312
861.708191,1303
861.825745,1288
861.943298,1281
862.060852,1309
862.178406,1321
862.295959,1315
862.413513,1316
862.531006,1323
862.64856,1311
862.766113,1303
862.883667,1311
863.00116,1287
863.118713,1305
863.236206,1289
863.353699,1276
863.471252,1268
863.588745,1293
863.706177,1296
863.82373,1338
863.941162,1300
864.058716,1274
864.176208,1295
864.29364,1333
864.411194,1321
864.528687,1286
864.646118,1305
864.763611,1288
864.881042,1310
864.998535,1313
865.116028,1287
865.233459,1307
865.350891,1322
865.468384,1316
865.585754,1320
865.703308,1307
865.820679,1281
865.938171,1299
866.055542,1300
866.173035,1316
866.290466,1307
866.407837,1301
866.52533,1338
866.6427,1274
866.760071,1294
866.877563,1299
866.994934,1300
867.112305,1360
867.229736,1300
867.347107,1313
867.464539,1281
867.58197,1302
867.699341,1314
867.81665,1299
867.934082,1310
868.051453,1286
868.168823,1303
868.286194,1302
868.403564,1310
868.520935,1314
868.638306,1326
868.755676,1313
868.872986,1312
868.990295,1303
869.107727,1290
869.225037,1333
869.342346,1323
869.459717,1339
869.577026,1286
869.694336,1324
869.811707,1334
869.929016,1344
870.046326,1328
870.163635,1320
870.280945,1322
870.398254,1296
870.515564,1319
870.632812,1303
870.750183,1339
870.867432,1325
870.984741,1295
871.102051,1320
871.219299,1317
871.336609,1383
871.453918,1336
871.571106,1307
871.688416,1318
871.805664,1325
871.922852,1301
872.040222,1351
872.157471,1324
872.274719,1326
872.391968,1324
872.509155,1314
872.626465,1310
872.743652,1310
872.860962,1345
872.978149,1303
873.095337,1335
873.212646,1312
873.329834,1323
873.44696,1314
873.564209,1324
873.681396,1341
873.798645,1340
873.915894,1321
874.03302,1328
874.150208,1319
874.267456,1336
874.384583,1312
874.501831,1353
874.618958,1329
874.736145,1346
874.853333,1328
874.970459,1350
875.087646,1323
875.204834,1327
875.32196,1305
875.439148,1343
875.556274,1322
875.673401,1297
875.790527,1301
875.907715,1341
876.024841,1343
876.141968,1354
876.259094,1347
876.376282,1321
876.493347,1314
876.610474,1357
876.7276,1344
876.844727,1348
876.961853,1321
877.078918,1344
877.195984,1311
877.313171,1375
877.430237,1291
877.547302,1310
877.664368,1318
877.781433,1341
877.898499,1334
878.015625,1380
878.13269,1289
878.249695,1382
878.366821,1331
878.483887,1299
878.600952,1342
878.717957,1319
878.834961,1358
878.952087,1305
879.069092,1327
879.186157,1352
879.303162,1352
879.420227,1328
879.537231,1367
879.654236,1286
879.77124,1365
879.888306,1323
880.005249,1302
880.122314,1351
880.239319,1353
880.356323,1300
880.473328,1345
880.590271,1381
880.707275,1328
880.824341,1318
880.941284,1338
881.058228,1352
881.175232,1361
881.292236,1327
881.40918,1366
881.526123,1339
881.643066,1284
881.760071,1305
881.877014,1355
881.993958,1344
882.11084,1346
882.227783,2534
882.344727,1293
882.46167,1347
882.578613,1335
882.695618,1392
882.812439,1358
882.929382,1361
883.046326,1319
883.163208,1346
883.280151,1361
883.397034,1387
883.513916,1311
883.630798,1328
883.747742,1311
883.864563,1334
883.981506,1327
884.098389,1328
884.21521,1322
884.332153,1359
884.448975,1318
884.565796,1359
884.682678,1354
884.7995,1336
884.916443,1354
885.033264,1342
885.150085,1336
885.266968,1362
885.383789,1364
885.500671,1373
885.617493,1369
885.734314,1385
885.851196,1345
885.967896,1356
886.084717,1350
886.201599,1380
886.318359,1333
886.435181,1352
886.552002,1353
886.668762,1382
886.785645,1368
886.902344,1392
887.019165,1344
887.135925,1366
887.252747,1387
887.369446,1395
887.486267,1328
887.603027,1335
887.719788,1389
887.836548,1418
887.953247,1348
888.070068,1388
888.186829,1338
888.303528,1323
888.420288,1371
888.536987,1315
888.653687,1331
888.770447,1338
888.887146,1364
889.003967,1354
889.120667,1361
889.237305,1387
889.354065,1386
889.470703,1402
889.587463,1385
889.704163,1353
889.820862,1390
889.937561,1360
890.054199,1336
890.170837,1393
890.287598,1386
890.404236,1332
890.520874,1301
890.637634,1408
890.754211,1336
890.87085,1361
890.987549,1382
891.104187,1330
891.220886,1365
891.337463,1380
891.454102,1365
891.57074,1379
891.687378,1352
891.804077,1377
891.920654,1330
892.037231,1391
892.15387,1408
892.270447,1366
892.387085,1351
892.503723,1342
892.6203,1386
892.736877,1367
892.853516,1355
892.970032,1387
893.08667,1360
893.203186,1352
893.319763,1382
893.43634,1383
893.552917,1369
893.669556,1373
893.786011,1384
893.902588,1396
894.019165,1370
894.135681,1404
894.252197,1357
894.368835,1395
894.485291,1363
894.601868,1388
894.718384,1381
894.8349,1374
894.951355,1384
895.067932,1351
895.184448,1402
895.300964,1382
895.417419,1365
895.533936,1379
895.650452,1388
895.766907,1380
895.883423,1386
895.999878,1362
896.116333,1386
896.232849,1342
896.349304,1409
896.465759,1382
896.582214,1376
896.698669,1362
896.815125,1410
896.931641,1414
897.048035,1401
897.164551,1382
897.280884,1409
897.397339,1366
897.513794,1364
897.630249,1403
897.746582,1388
897.863098,1359
897.979431,1435
898.095886,1376
898.212341,1383
898.328674,1397
898.445129,1375
898.561462,1370
898.677795,1383
898.794312,1438
898.910645,1342
899.026978,1423
899.143433,1366
899.259766,1345
899.37616,1422
899.492493,1394
899.608765,1365
899.725159,1361
899.841553,1378
899.957947,1381
900.07428,1387
900.190552,1433
900.306946,1379
900.423157,1400
900.53949,1398
900.655884,1381
900.772156,1384
900.888489,1363
901.004822,1391
901.121033,1387
901.237366,1398
901.353699,1378
901.46991,1446
901.586304,1387
901.702515,1364
901.818787,1366
901.93512,1385
902.051331,1424
902.167603,1403
902.283875,1459
902.400085,1382
902.516418,1371
902.632629,1418
902.74884,1388
902.865112,1418
902.981384,1373
903.097595,1405
903.213867,1413
903.330017,1406
903.446289,1413
903.5625,1411
903.67865,1381
903.794922,1412
903.911072,1452
904.027344,1417
904.143494,1436
904.259705,1458
904.375916,1386
904.492065,1403
904.608215,1375
904.724426,1407
904.840576,1407
904.956726,1429
905.072876,1398
905.189087,1429
905.305176,1413
905.421387,1395
905.537537,1404
905.653687,1404
905.769775,1382
905.885925,1422
906.002014,1420
906.118164,1388
906.234314,1404
906.350403,1426
906.466492,1409
906.582642,1415
906.69873,1377
906.814758,1433
906.930908,1410
907.046936,1446
907.163086,1432
907.279175,1401
907.395264,1364
907.511353,1436
907.62738,1397
907.743408,1398
907.859497,1412
907.975525,1379
908.091553,1465
908.207703,1389
908.32373,1438
908.439758,1423
908.555786,1383
908.671814,1412
908.787842,1435
908.90387,1460
909.019775,1413
909.135864,1391
909.251892,1452
909.367859,1433
909.483826,1389
909.599854,1364
909.715881,1430
909.831848,1437
909.947815,1393
910.063782,1409
910.179749,1445
910.295776,1395
910.411743,1423
910.527649,1441
910.643616,1408
910.759583,1388
910.875488,1429
910.991455,1436
911.107361,1421
911.223267,1402
911.339294,1423
911.4552,1482
911.571106,1403
911.687073,1429
911.802979,1427
911.918823,1403
912.034729,1438
912.150635,1427
912.266602,1456
912.382446,1389
912.498352,1396
912.614197,1427
912.730103,1438
912.846008,1410
792.44574,1751
792.56488,1686
792.68396,1754
792.80304,1654
792.92218,1657
793.041199,1604
793.160339,1627
793.279419,1607
793.398499,1638
793.517578,1618
793.636658,1620
793.755737,1652
793.874817,1640
793.993896,1655
794.112976,1589
794.232056,1575
794.351074,1576
794.470215,1641
794.589233,1614
794.708313,1578
794.827393,1548
794.946411,1584
795.065552,1576
795.18457,1583
795.303589,1559
795.422668,1538
795.541687,1551
795.660767,1530
795.779846,1545
795.898865,1587
796.017883,1544
796.136963,1560
796.255981,1560
796.375061,1493
796.49408,1533
796.613037,1569
796.732117,1510
796.851135,1545
796.970154,1539
797.089233,1552
797.208191,1526
797.327271,1541
797.446228,1545
797.565186,1573
797.684265,1513
797.803223,1550
797.922241,1473
798.04126,1494
798.160278,1516
798.279297,1489
798.398315,1538
798.517273,1508
798.636292,1512
798.75531,1506
798.874268,1526
798.993286,1504
799.112244,1505
799.231323,1486
799.350281,1484
799.469238,1531
799.588257,1522
799.707153,1539
799.826111,1517
799.945129,1516
800.064087,1500
800.183044,1487
800.302063,1553
800.421021,1513
800.539978,1527
800.658936,1495
800.777893,1492
800.896912,1529
801.015747,1513
801.134705,1478
801.253723,1521
801.37262,1514
801.491638,1491
801.610535,1514
801.729492,1476
801.84845,1474
801.967407,1513
802.086243,1485
802.205261,1512
802.324158,1509
802.443115,1497
802.562073,1480
802.680969,1476
802.799927,1484
802.918762,1466
803.037659,1492
803.156677,1487
803.275574,1509
803.39447,1483
803.513428,1510
803.632263,1502
803.751221,1494
803.870117,1461
803.989014,1493
804.107971,1474
804.226746,1458
804.345642,1518
804.4646,1474
804.583496,1536
804.702393,1445
804.821228,1515
804.940125,1490
805.059021,1503
805.177917,1488
805.296814,1497
805.415649,1518
805.534546,1480
805.653442,1497
805.772278,1517
805.891113,1502
806.01001,1542
806.128906,1466
806.247742,1526
806.366577,1488
806.485413,1518
806.604309,1472
806.723145,1479
806.84198,1485
806.960876,1469
807.079712,1521
807.198486,1465
807.317383,1472
807.436218,1465
807.554993,1475
807.673889,1473
807.792725,1466
807.91156,1430
808.030396,1469
808.14917,1460
808.268005,1495
808.386841,1487
808.505676,1482
808.624451,1500
808.743286,1425
808.862122,1494
808.980896,1479
809.099731,1487
809.218506,1437
809.337341,1468
809.456116,1481
809.57489,1476
809.693726,1491
809.8125,1464
809.931274,1475
810.050049,1489
810.168884,1481
810.287659,1480
810.406372,1455
810.525269,1469
810.643982,1463
810.762756,1495
810.881531,1487
811.000305,1462
811.11908,1461
811.237854,1490
811.356567,1502
811.475403,1481
811.594116,1438
811.71283,1457
811.831604,1467
811.950378,1442
812.069153,1462
812.187927,1492
812.30658,1425
812.425415,1428
812.544128,1466
812.662781,1471
812.781616,1458
812.900269,1538
813.019043,1447
813.137756,1443
813.256531,1428
813.375244,1447
813.493896,1415
813.612671,1459
813.731384,1468
813.850037,1467
813.96875,1497
814.087524,1398
814.206238,1464
814.324951,1462
814.443604,1429
814.562256,1420
814.68103,1462
814.799683,1473
814.918335,1471
815.037109,1436
815.155762,1433
815.274475,1470
815.393188,1428
815.511841,1475
815.630554,1461
815.749146,1435
815.867859,1425
815.986572,1434
816.105164,1420
816.223877,1435
816.342529,1409
816.461182,1434
816.579895,1460
816.698486,1426
816.817139,1430
816.935791,1419
817.054504,1433
817.173096,1445
817.291748,1440
817.4104,1443
817.529053,1406
817.647644,1407
817.766235,1437
817.884949,1400
818.00354,1410
818.122192,1451
818.240845,1455
818.359436,1416
818.478088,1403
818.59668,1386
818.715271,1394
818.833923,1408
818.952515,1397
819.071106,1368
819.189758,1390
819.30835,1409
819.426941,1388
819.545532,1410
819.664124,1363
819.782715,1408
819.901306,1413
820.019897,1353
820.138489,1425
820.25708,1360
820.375671,1354
820.494202,1357
820.612732,1381
820.731384,1374
820.849915,1385
820.968506,1382
821.087097,1369
821.205627,1369
821.324158,1373
821.442749,1324
821.561279,1351
821.679871,1346
821.798401,1391
821.916931,1319
822.035461,1381
822.154053,1362
822.272583,1395
822.391174,1370
822.509583,1400
822.628174,1343
822.746704,1371
822.865234,1346
822.983765,1316
823.102295,1327
823.220825,1355
823.339294,1341
823.457825,1323
823.576355,1364
823.694824,1345
823.813354,1356
823.931885,1368
824.050354,1381
824.168884,1351
824.287354,1346
824.405823,1366
824.524353,1369
824.642822,1349
824.761353,1349
824.879822,1346
824.998291,1346
825.116699,1329
825.235291,1350
825.353699,1326
825.472168,1363
825.590637,1350
825.709106,1352
825.827576,1369
825.946045,1361
826.064453,1354
826.182983,1388
826.301392,1333
826.4198,1347
826.53833,1365
826.656738,1357
826.775208,1322
826.893677,1342
827.012024,1346
827.130493,1326
827.248962,1307
827.36731,1340
827.485779,1314
827.604248,1334
827.722595,1301
827.841064,1310
827.959412,1358
828.077942,1289
828.196289,1288
828.314636,1284
828.433105,1328
828.551514,1338
828.669861,1306
828.78833,1318
828.906677,1314
829.025085,1298
829.143433,1327
829.261841,1308
829.38031,1316
829.498657,1338
829.617004,1314
829.735413,1306
829.85376,1317
829.972107,1331
830.090515,1323
830.208862,1328
830.327209,1287
830.445557,1316
830.563904,1349
830.682312,1332
830.800659,1320
830.919006,1374
831.037354,1301
831.155701,1358
831.274048,1346
831.392395,1274
831.51062,1366
831.629028,1307
831.747314,1338
831.865662,1333
831.984009,1320
832.102356,1294
832.220642,1309
832.338928,1328
832.457275,1321
832.575623,1320
832.693909,1288
832.812134,1333
832.930481,1341
833.048828,1310
833.167114,1328
833.2854,1324
833.403687,1311
833.521973,1318
833.640259,1327
833.758545,1330
833.876831,1296
833.995056,1292
834.113281,1323
834.231628,1315
834.349915,1311
834.468201,1318
834.586426,1338
834.704651,1304
834.822998,1300
834.941162,1337
835.059448,1305
835.177673,1270
835.295959,1317
835.414246,1328
835.53241,1314
835.650635,1288
835.768921,1283
835.887146,1302
836.005371,1314
836.123596,1294
836.241821,1305
836.360046,1297
836.478271,1329
836.596497,1315
836.714722,1353
836.832886,1315
836.95105,1296
837.069336,1311
837.1875,1307
837.305725,1297
837.423889,1289
837.542053,1334
837.660339,1338
837.778503,1335
837.896667,1297
838.014832,1310
838.132996,1306
838.25116,1306
838.369385,1344
838.487488,1276
838.605713,1319
838.723877,1339
838.84198,1298
838.960205,1317
839.078308,1338
839.196472,1288
839.314636,1324
839.4328,1319
839.550964,1298
839.669067,1314
839.787231,1303
839.905396,1315
840.023499,1262
840.141602,1319
840.259766,1332
840.377869,1296
840.495972,1331
840.614136,1314
840.732239,1298
840.850342,1282
840.968445,1317
841.086548,1251
841.204651,1306
841.322754,1313
841.440918,1296
841.55896,1304
841.677002,1259
841.795166,1318
841.913208,1307
842.031311,1298
842.149353,1282
842.267456,1325
842.385498,1313
842.503601,1298
842.621643,1326
842.739746,1322
842.857788,1322
842.97583,1294
843.093933,1340
843.211975,1300
843.330017,1263
843.44812,1326
843.566101,1294
843.684204,1279
843.802246,1278
843.920227,1277
844.038269,1275
844.156311,1342
844.274292,1323
844.392395,1283
844.510376,1331
844.628357,1273
844.74646,1319
844.864441,1320
844.982422,1291
845.100403,1316
845.218384,1279
845.336426,1286
845.454468,1330
845.572449,1271
845.69043,1297
845.808411,1277
845.926453,1268
846.044373,1264
846.162354,1291
846.280396,1283
846.398315,1284
846.516296,1303
846.634216,1341
846.752197,1269
846.870178,1305
846.988098,1250
847.106079,1330
847.22406,1319
847.34198,1297
847.4599,1313
847.577881,1276
847.695801,1272
847.813782,1290
847.931641,1327
848.049561,1306
848.167603,1280
848.285461,1287
848.403381,1276
848.521362,1274
848.639221,1322
848.75708,1314
848.875,1300
848.99292,1329
849.110901,1326
849.22876,1339
849.34668,1332
849.464539,1311
849.582458,1325
849.700317,1231
849.818176,1333
849.936096,1324
850.053955,1286
850.171875,1279
850.289673,1298
850.407593,1334
850.525452,1306
850.643311,1294
850.761169,1294
850.878967,1280
850.996887,1311
851.114746,1306
851.232544,1279
851.350403,1315
851.468262,1370
851.58606,1289
851.703979,1315
851.821777,1289
851.939636,1278
852.057434,1331
852.175232,1307
852.293091,1293
852.410889,1286
852.528687,1273
852.646545,1301
852.764343,1358
852.88208,1342
852.999939,1280
853.117676,1300
853.235535,1298
853.353271,1309
853.471069,1263
853.588928,1333
853.706604,1299
853.824402,1358
853.9422,1276
854.059998,1326
854.177734,1292
854.295532,1333
854.413269,1326
854.531006,1332
854.648804,1319
854.766541,1314
854.884277,1292
855.002014,1281
855.119751,1318
855.237549,1308
855.355225,1295
855.473022,1307
855.590698,1279
855.708435,1313
855.826172,1280
855.943848,1353
856.061646,1308
856.179321,1297
856.296997,1306
856.414795,1298
856.53241,1316
856.650085,1266
856.767822,1326
856.885559,1313
857.003174,1343
857.120911,1331
857.238586,1310
857.356201,1354
857.473938,1353
857.591614,1336
857.709351,1329
857.826965,1257
857.944641,1316
858.062317,1324
858.179993,1302
858.297668,1333
858.415283,1342
858.532959,1301
858.650574,1300
858.768188,1326
858.885803,1304
859.003479,1312
859.121094,1300
859.23877,1299
859.356384,1341
859.473999,1282
859.591675,1310
859.709229,1326
859.826843,1274
859.944458,1316
860.062012,1305
860.179626,1324
860.297302,1304
860.414856,1301
860.532471,1329
860.650024,1276
860.767639,1279
860.885193,1316
861.002808,1341
861.120361,1245
861.237976,1293
861.35553,1334
861.473022,1283
861.590698,1337
861.708191,1299
861.825745,1304
861.943298,1309
862.060852,1280
862.178406,1331
862.295959,1281
862.413513,1286
862.531006,1314
862.64856,1334
862.766113,1305
862.883667,1339
863.00116,1300
863.118713,1278
863.236206,1274
863.353699,1285
863.471252,1309
863.588745,1288
863.706177,1349
863.82373,1326
863.941162,1264
864.058716,1351
864.176208,1324
864.29364,1348
864.411194,1236
864.528687,1335
864.646118,1332
864.763611,1304
864.881042,1335
864.998535,1325
865.116028,1288
865.233459,1319
865.350891,1315
865.468384,1366
865.585754,1337
865.703308,1353
865.820679,1367
865.938171,1285
866.055542,1306
866.173035,1332
866.290466,1312
866.407837,1344
866.52533,1306
866.6427,1338
866.760071,1323
866.877563,1336
866.994934,1314
867.112305,1311
867.229736,1278
867.347107,1300
867.464539,1306
867.58197,1305
867.699341,1318
867.81665,1318
867.934082,1309
868.051453,1318
868.168823,1333
868.286194,1338
868.403564,1354
868.520935,1330
868.638306,1294
868.755676,1346
868.872986,1328
868.990295,1371
869.107727,1319
869.225037,1339
869.342346,1330
869.459717,1322
869.577026,1344
869.694336,1341
869.811707,1304
869.929016,1331
870.046326,1357
870.163635,1324
870.280945,1308
870.398254,1344
870.515564,1343
870.632812,1325
870.750183,1290
870.867432,1332
870.984741,1301
871.102051,1320
871.219299,1324
871.336609,1337
871.453918,1358
871.571106,1334
871.688416,1332
871.805664,1307
871.922852,1326
872.040222,1332
872.157471,1365
872.274719,1348
872.391968,1365
872.509155,1350
872.626465,1319
872.743652,1339
872.860962,1297
872.978149,1350
873.095337,1312
873.212646,1333
873.329834,1348
873.44696,1337
873.564209,1318
873.681396,1363
873.798645,1313
873.915894,1356
874.03302,1331
874.150208,1316
874.267456,1350
874.384583,1319
874.501831,1330
874.618958,1322
874.736145,1328
874.853333,1334
874.970459,1356
875.087646,1353
875.204834,1294
875.32196,1299
875.439148,1340
875.556274,1299
875.673401,1321
875.790527,1324
875.907715,1340
876.024841,1374
876.141968,1329
876.259094,1315
876.376282,1387
876.493347,1326
876.610474,1353
876.7276,1349
876.844727,1341
876.961853,1366
877.078918,1332
877.195984,1332
877.313171,1332
877.430237,1356
877.547302,1318
877.664368,1313
877.781433,1326
877.898499,1319
878.015625,1341
878.13269,1342
878.249695,1295
878.366821,1325
878.483887,1316
878.600952,1356
878.717957,1340
878.834961,1346
878.952087,1335
879.069092,1328
879.186157,1333
879.303162,1306
879.420227,1332
879.537231,1337
879.654236,1323
879.77124,1352
879.888306,1318
880.005249,1354
880.122314,1318
880.239319,1329
880.356323,1355
880.473328,1337
880.590271,1318
880.707275,1360
880.824341,1343
880.941284,1340
881.058228,1376
881.175232,1294
881.292236,1346
881.40918,1371
881.526123,1371
881.643066,1320
881.760071,1339
881.877014,1321
881.993958,1346
882.11084,1335
882.227783,1335
882.344727,1375
882.46167,1350
882.578613,1306
882.695618,1317
882.812439,1346
882.929382,1344
883.046326,1368
883.163208,1354
883.280151,1352
883.397034,1365
883.513916,1337
883.630798,1375
883.747742,1345
883.864563,1384
883.981506,1340
884.098389,1343
884.21521,1328
884.332153,1351
884.448975,1361
884.565796,1345
884.682678,1364
884.7995,1354
884.916443,1375
885.033264,1363
885.150085,1369
885.266968,1373
885.383789,1382
885.500671,1387
885.617493,1375
885.734314,1395
885.851196,1392
885.967896,1359
886.084717,1380
886.201599,1379
886.318359,1371
886.435181,1367
886.552002,1385
886.668762,1394
886.785645,1363
886.902344,1388
887.019165,1374
887.135925,1380
887.252747,1367
887.369446,1374
887.486267,1367
887.603027,1359
887.719788,1389
887.836548,1384
887.953247,1348
888.070068,1372
888.186829,1356
888.303528,1391
888.420288,1372
888.536987,1334
888.653687,1378
888.770447,1371
888.887146,1378
889.003967,1392
889.120667,1370
889.237305,1368
889.354065,1350
889.470703,1361
889.587463,1389
889.704163,1399
889.820862,1369
889.937561,1373
890.054199,1382
890.170837,1344
890.287598,1399
890.404236,1379
890.520874,1401
890.637634,1391
890.754211,1338
890.87085,1348
890.987549,1403
891.104187,1337
891.220886,1328
891.337463,1383
891.454102,1383
891.57074,1397
891.687378,1350
891.804077,1410
891.920654,1391
892.037231,1378
892.15387,1382
892.270447,1345
892.387085,1357
892.503723,1402
892.6203,1396
892.736877,1380
892.853516,1432
892.970032,1351
893.08667,1412
893.203186,1364
893.319763,1356
893.43634,1406
893.552917,1386
893.669556,1399
893.786011,1370
893.902588,1406
894.019165,1403
894.135681,1411
894.252197,1387
894.368835,1392
894.485291,1407
894.601868,1389
894.718384,1385
894.8349,1438
894.951355,1404
895.067932,1392
895.184448,1359
895.300964,1399
895.417419,1379
895.533936,1404
895.650452,1396
895.766907,1408
895.883423,1395
895.999878,1381
896.116333,1377
896.232849,1391
896.349304,1386
896.465759,1424
896.582214,1371
896.698669,1370
896.815125,1380
896.931641,1405
897.048035,1388
897.164551,1399
897.280884,1379
897.397339,1396
897.513794,1403
897.630249,1391
897.746582,1362
897.863098,1390
897.979431,1397
898.095886,1437
898.212341,1389
898.328674,1373
898.445129,1407
898.561462,1399
898.677795,1372
898.794312,1388
898.910645,1384
899.026978,1413
899.143433,1420
899.259766,1456
899.37616,1354
899.492493,1406
899.608765,1397
899.725159,1429
899.841553,1411
899.957947,1426
900.07428,1400
900.190552,1446
900.306946,1385
900.423157,1377
900.53949,1416
900.655884,1382
900.772156,1390
900.888489,1404
901.004822,1443
901.121033,1414
901.237366,1458
901.353699,1389
901.46991,1438
901.586304,1428
901.702515,1385
901.818787,1426
901.93512,1354
902.051331,1430
902.167603,1423
902.283875,1418
902.400085,1437
902.516418,1438
902.632629,1412
902.74884,1438
902.865112,1429
902.981384,1442
903.097595,1410
903.213867,1442
903.330017,1429
903.446289,1404
903.5625,1399
903.67865,1456
903.794922,1456
903.911072,1426
904.027344,1430
904.143494,1408
904.259705,1422
904.375916,1413
904.492065,1421
904.608215,1414
904.724426,1449
904.840576,1449
904.956726,1354
905.072876,1429
905.189087,1403
905.305176,1412
905.421387,1423
905.537537,1414
905.653687,1409
905.769775,1422
905.885925,1426
906.002014,1416
906.118164,1427
906.234314,1419
906.350403,1425
906.466492,1465
906.582642,1433
906.69873,1451
906.814758,1415
906.930908,1403
907.046936,1457
907.163086,1406
907.279175,1448
907.395264,1416
907.511353,1419
907.62738,1406
907.743408,1414
907.859497,1430
907.975525,1451
908.091553,1480
908.207703,1414
908.32373,1432
908.439758,1382
908.555786,1441
908.671814,1421
908.787842,1392
908.90387,1456
909.019775,1424
909.135864,1429
909.251892,1457
909.367859,1436
909.483826,1441
909.599854,1413
909.715881,1432
909.831848,1426
909.947815,1416
910.063782,1439
910.179749,1454
910.295776,1458
910.411743,1413
910.527649,1495
910.643616,1446
910.759583,1430
910.875488,1475
910.991455,1424
911.107361,1431
911.223267,1436
911.339294,1399
911.4552,1437
911.571106,1448
911.687073,1432
911.802979,1434
911.918823,1421
912.034729,1483
912.150635,1443
912.266602,1424
912.382446,1496
912.498352,1468
912.614197,1423
912.730103,1414
912.846008,1423
