792.44574,2141
792.56488,2152
792.68396,2111
792.80304,2112
792.92218,2061
793.041199,2030
793.160339,2059
793.279419,2068
793.398499,2044
793.517578,1975
793.636658,1983
793.755737,2048
793.874817,2002
793.993896,2030
794.112976,1968
794.232056,1958
794.351074,2011
794.470215,1995
794.589233,1943
794.708313,1900
794.827393,1954
794.946411,1948
795.065552,1930
795.18457,1965
795.303589,1934
795.422668,1993
795.541687,1912
795.660767,1942
795.779846,1922
795.898865,1919
796.017883,1926
796.136963,1970
796.255981,1915
796.375061,1940
796.49408,1920
796.613037,1927
796.732117,1913
796.851135,1896
796.970154,1833
797.089233,1914
797.208191,1852
797.327271,1901
797.446228,1946
797.565186,1878
797.684265,1914
797.803223,1867
797.922241,1829
798.04126,1861
798.160278,1877
798.279297,1907
798.398315,1857
798.517273,1911
798.636292,1909
798.75531,1917
798.874268,1886
798.993286,1882
799.112244,1875
799.231323,1868
799.350281,1884
799.469238,1888
799.588257,1901
799.707153,1887
799.826111,1928
799.945129,1862
800.064087,1858
800.183044,1835
800.302063,1848
800.421021,1909
800.539978,1887
800.658936,1889
800.777893,1915
800.896912,1851
801.015747,1922
801.134705,1909
801.253723,1897
801.37262,1929
801.491638,1962
801.610535,1893
801.729492,1936
801.84845,1919
801.967407,1953
802.086243,1969
802.205261,1900
802.324158,1944
802.443115,1919
802.562073,1945
802.680969,1936
802.799927,1965
802.918762,2006
803.037659,1985
803.156677,1969
803.275574,1972
803.39447,1977
803.513428,2010
803.632263,1933
803.751221,1964
803.870117,1988
803.989014,2019
804.107971,1928
804.226746,1977
804.345642,2031
804.4646,1991
804.583496,2020
804.702393,1993
804.821228,2014
804.940125,2030
805.059021,2029
805.177917,2069
805.296814,2016
805.415649,2051
805.534546,2031
805.653442,2056
805.772278,2084
805.891113,2032
806.01001,2019
806.128906,2105
806.247742,2027
806.366577,2092
806.485413,2098
806.604309,2085
806.723145,2061
806.84198,2081
806.960876,2070
807.079712,2080
807.198486,2087
807.317383,2048
807.436218,2074
807.554993,2057
807.673889,2112
807.792725,2088
807.91156,2063
808.030396,2124
808.14917,2040
808.268005,2105
808.386841,2134
808.505676,2114
808.624451,2120
808.743286,2106
808.862122,2122
808.980896,2137
809.099731,2113
809.218506,2193
809.337341,2071
809.456116,2150
809.57489,2179
809.693726,2115
809.8125,2180
809.931274,2208
810.050049,2141
810.168884,2145
810.287659,2154
810.406372,2201
810.525269,2142
810.643982,2154
810.762756,2148
810.881531,2206
811.000305,2129
811.11908,2227
811.237854,2140
811.356567,2174
811.475403,2148
811.594116,2163
811.71283,2189
811.831604,2210
811.950378,2193
812.069153,2167
812.187927,2181
812.30658,2158
812.425415,2177
812.544128,2177
812.662781,2170
812.781616,2142
812.900269,2154
813.019043,2158
813.137756,2160
813.256531,2187
813.375244,2145
813.493896,2162
813.612671,2151
813.731384,2175
813.850037,2177
813.96875,2209
814.087524,2151
814.206238,2161
814.324951,2149
814.443604,2156
814.562256,2181
814.68103,2110
814.799683,2175
814.918335,2127
815.037109,2192
815.155762,2080
815.274475,2127
815.393188,2117
815.511841,2111
815.630554,2119
815.749146,2088
815.867859,2042
815.986572,2048
816.105164,2065
816.223877,2020
816.342529,2045
816.461182,2038
816.579895,2044
816.698486,2094
816.817139,2169
816.935791,2103
817.054504,2057
817.173096,2060
817.291748,2064
817.4104,2068
817.529053,1948
817.647644,2004
817.766235,1986
817.884949,1931
818.00354,1854
818.122192,1836
818.240845,1798
818.359436,1789
818.478088,1798
818.59668,1734
818.715271,1673
818.833923,1662
818.952515,1639
819.071106,1657
819.189758,1620
819.30835,1588
819.426941,1567
819.545532,1548
819.664124,1580
819.782715,1538
819.901306,1538
820.019897,1518
820.138489,1531
820.25708,1524
820.375671,1509
820.494202,1535
820.612732,1575
820.731384,1483
820.849915,1502
820.968506,1496
821.087097,1498
821.205627,1536
821.324158,1494
821.442749,1479
821.561279,1487
821.679871,1492
821.798401,1503
821.916931,1440
822.035461,1472
822.154053,1442
822.272583,1473
822.391174,1400
822.509583,1488
822.628174,1466
822.746704,1506
822.865234,1459
822.983765,1432
823.102295,1450
823.220825,1402
823.339294,1462
823.457825,1426
823.576355,1469
823.694824,1471
823.813354,1432
823.931885,1448
824.050354,1452
824.168884,1474
824.287354,1476
824.405823,1507
824.524353,1470
824.642822,1458
824.761353,1487
824.879822,1463
824.998291,1518
825.116699,1471
825.235291,1429
825.353699,1491
825.472168,1437
825.590637,1476
825.709106,1466
825.827576,1387
825.946045,1398
826.064453,1414
826.182983,1423
826.301392,1427
826.4198,1441
826.53833,1421
826.656738,1374
826.775208,1422
826.893677,1408
827.012024,1354
827.130493,1390
827.248962,1417
827.36731,1387
827.485779,1378
827.604248,1366
827.722595,1366
827.841064,1366
827.959412,1356
828.077942,1363
828.196289,1364
828.314636,1352
828.433105,1357
828.551514,1339
828.669861,1313
828.78833,1349
828.906677,1339
829.025085,1321
829.143433,1345
829.261841,1331
829.38031,1337
829.498657,1333
829.617004,1329
829.735413,1354
829.85376,1337
829.972107,1342
830.090515,1356
830.208862,1312
830.327209,1341
830.445557,1354
830.563904,1373
830.682312,1358
830.800659,1324
830.919006,1380
831.037354,1323
831.155701,1375
831.274048,1350
831.392395,1336
831.51062,1346
831.629028,1329
831.747314,1342
831.865662,1329
831.984009,1322
832.102356,1384
832.220642,1279
832.338928,1330
832.457275,1362
832.575623,1336
832.693909,1304
832.812134,1366
832.930481,1298
833.048828,1344
833.167114,1340
833.2854,1275
833.403687,1396
833.521973,1365
833.640259,1356
833.758545,1356
833.876831,1331
833.995056,1342
834.113281,1344
834.231628,1382
834.349915,1355
834.468201,1360
834.586426,1336
834.704651,1329
834.822998,1335
834.941162,1351
835.059448,1319
835.177673,1385
835.295959,1342
835.414246,1365
835.53241,1383
835.650635,1350
835.768921,1367
835.887146,1374
836.005371,1440
836.123596,1367
836.241821,1378
836.360046,1410
836.478271,1395
836.596497,1418
836.714722,1384
836.832886,1387
836.95105,1431
837.069336,1400
837.1875,1405
837.305725,1398
837.423889,1462
837.542053,1428
837.660339,1433
837.778503,1397
837.896667,1417
838.014832,1436
838.132996,1422
838.25116,1408
838.369385,1433
838.487488,1392
838.605713,1412
838.723877,1447
838.84198,1381
838.960205,1403
839.078308,1427
839.196472,1397
839.314636,1422
839.4328,1393
839.550964,1440
839.669067,1373
839.787231,1373
839.905396,1371
840.023499,1417
840.141602,1352
840.259766,1393
840.377869,1403
840.495972,1402
840.614136,1399
840.732239,1378
840.850342,1384
840.968445,1390
841.086548,1343
841.204651,1363
841.322754,1410
841.440918,1368
841.55896,1358
841.677002,1387
841.795166,1358
841.913208,1363
842.031311,1347
842.149353,1357
842.267456,1371
842.385498,1335
842.503601,1350
842.621643,1335
842.739746,1346
842.857788,1301
842.97583,1308
843.093933,1337
843.211975,1323
843.330017,1280
843.44812,1292
843.566101,1334
843.684204,1288
843.802246,1323
843.920227,1352
844.038269,1341
844.156311,1311
844.274292,1326
844.392395,1328
844.510376,1335
844.628357,1275
844.74646,1293
844.864441,1307
844.982422,1278
845.100403,1292
845.218384,1312
845.336426,1319
845.454468,1349
845.572449,1278
845.69043,1330
845.808411,1311
845.926453,1321
846.044373,1283
846.162354,1305
846.280396,1310
846.398315,1311
846.516296,1302
846.634216,1274
846.752197,1304
846.870178,1307
846.988098,1304
847.106079,1332
847.22406,1315
847.34198,1319
847.4599,1348
847.577881,1316
847.695801,1313
847.813782,1302
847.931641,1296
848.049561,1293
848.167603,1278
848.285461,1298
848.403381,1352
848.521362,1318
848.639221,1340
848.75708,1292
848.875,1293
848.99292,1290
849.110901,1306
849.22876,1296
849.34668,1312
849.464539,1302
849.582458,1293
849.700317,1316
849.818176,1323
849.936096,1301
850.053955,1313
850.171875,1341
850.289673,1310
850.407593,1284
850.525452,1348
850.643311,1330
850.761169,1289
850.878967,1314
850.996887,1301
851.114746,1331
851.232544,1325
851.350403,1328
851.468262,1366
851.58606,1309
851.703979,1338
851.821777,1307
851.939636,1295
852.057434,1313
852.175232,1298
852.293091,1318
852.410889,1355
852.528687,1320
852.646545,1340
852.764343,1357
852.88208,1350
852.999939,1293
853.117676,1305
853.235535,1322
853.353271,1337
853.471069,1339
853.588928,1335
853.706604,1333
853.824402,1352
853.9422,1297
854.059998,1311
854.177734,1364
854.295532,1359
854.413269,1349
854.531006,1325
854.648804,1334
854.766541,1372
854.884277,1375
855.002014,1320
855.119751,1345
855.237549,1355
855.355225,1340
855.473022,1315
855.590698,1358
855.708435,1337
855.826172,1372
855.943848,1349
856.061646,1382
856.179321,1344
856.296997,1326
856.414795,1362
856.53241,1361
856.650085,1385
856.767822,1344
856.885559,1363
857.003174,1343
857.120911,1352
857.238586,1380
857.356201,1360
857.473938,1369
857.591614,1369
857.709351,1381
857.826965,1362
857.944641,1327
858.062317,1362
858.179993,1370
858.297668,1370
858.415283,1365
858.532959,1360
858.650574,1343
858.768188,1337
858.885803,1349
859.003479,1353
859.121094,1351
859.23877,1385
859.356384,1356
859.473999,1348
859.591675,1333
859.709229,1364
859.826843,1330
859.944458,1373
860.062012,1348
860.179626,1314
860.297302,1355
860.414856,1361
860.532471,1340
860.650024,1333
860.767639,1351
860.885193,1349
861.002808,1373
861.120361,1317
861.237976,1354
861.35553,1297
861.473022,1289
861.590698,1369
861.708191,1329
861.825745,1375
861.943298,1310
862.060852,1390
862.178406,1321
862.295959,1343
862.413513,1338
862.531006,1353
862.64856,1368
862.766113,1328
862.883667,1367
863.00116,1384
863.118713,1380
863.236206,1387
863.353699,1372
863.471252,1382
863.588745,1355
863.706177,1345
863.82373,1333
863.941162,1338
864.058716,1382
864.176208,1335
864.29364,1373
864.411194,1352
864.528687,1345
864.646118,1320
864.763611,1362
864.881042,1381
864.998535,1374
865.116028,1330
865.233459,1364
865.350891,1357
865.468384,1379
865.585754,1354
865.703308,1411
865.820679,1368
865.938171,1315
866.055542,1388
866.173035,1371
866.290466,1330
866.407837,1359
866.52533,1404
866.6427,1389
866.760071,1361
866.877563,1381
866.994934,1407
867.112305,1328
867.229736,1376
867.347107,1391
867.464539,1384
867.58197,1371
867.699341,1405
867.81665,1340
867.934082,1376
868.051453,1380
868.168823,1361
868.286194,1359
868.403564,1382
868.520935,1379
868.638306,1334
868.755676,1396
868.872986,1335
868.990295,1385
869.107727,1328
869.225037,1358
869.342346,1382
869.459717,1331
869.577026,1407
869.694336,1367
869.811707,1362
869.929016,1373
870.046326,1408
870.163635,1319
870.280945,1379
870.398254,1406
870.515564,1343
870.632812,1367
870.750183,1408
870.867432,1420
870.984741,1362
871.102051,1367
871.219299,1361
871.336609,1358
871.453918,1360
871.571106,1379
871.688416,1348
871.805664,1429
871.922852,1394
872.040222,1360
872.157471,1364
872.274719,1381
872.391968,1330
872.509155,1374
872.626465,1356
872.743652,1378
872.860962,1370
872.978149,1389
873.095337,1367
873.212646,1373
873.329834,1322
873.44696,1388
873.564209,1371
873.681396,1398
873.798645,1367
873.915894,1377
874.03302,1370
874.150208,1370
874.267456,1343
874.384583,1376
874.501831,1359
874.618958,1393
874.736145,1361
874.853333,1363
874.970459,1413
875.087646,1405
875.204834,1386
875.32196,1390
875.439148,1390
875.556274,1374
875.673401,1369
875.790527,1410
875.907715,1366
876.024841,1392
876.141968,1387
876.259094,1360
876.376282,1395
876.493347,1390
876.610474,1344
876.7276,1422
876.844727,1377
876.961853,1408
877.078918,1422
877.195984,1383
877.313171,1387
877.430237,1426
877.547302,1389
877.664368,1426
877.781433,1402
877.898499,1438
878.015625,1362
878.13269,1399
878.249695,1404
878.366821,1369
878.483887,1416
878.600952,1383
878.717957,1405
878.834961,1327
878.952087,1406
879.069092,1381
879.186157,1425
879.303162,1380
879.420227,1419
879.537231,1341
879.654236,1391
879.77124,1403
879.888306,1394
880.005249,1405
880.122314,1368
880.239319,1403
880.356323,1410
880.473328,1424
880.590271,1380
880.707275,1397
880.824341,1388
880.941284,1415
881.058228,1374
881.175232,1379
881.292236,1384
881.40918,1416
881.526123,1399
881.643066,1373
881.760071,1399
881.877014,1385
881.993958,1410
882.11084,1388
882.227783,1431
882.344727,1429
882.46167,1433
882.578613,1425
882.695618,1375
882.812439,1441
882.929382,1384
883.046326,1376
883.163208,1365
883.280151,1403
883.397034,1395
883.513916,1414
883.630798,1433
883.747742,1388
883.864563,1414
883.981506,1410
884.098389,1408
884.21521,1444
884.332153,1406
884.448975,1396
884.565796,1443
884.682678,1409
884.7995,1410
884.916443,1420
885.033264,1436
885.150085,1405
885.266968,1440
885.383789,1419
885.500671,1416
885.617493,1387
885.734314,1450
885.851196,1427
885.967896,1412
886.084717,1459
886.201599,1425
886.318359,1464
886.435181,1402
886.552002,1475
886.668762,1425
886.785645,1459
886.902344,1446
887.019165,1440
887.135925,1393
887.252747,1433
887.369446,1396
887.486267,1429
887.603027,1455
887.719788,1419
887.836548,1447
887.953247,1389
888.070068,1471
888.186829,1430
888.303528,1420
888.420288,1402
888.536987,1441
888.653687,1428
888.770447,1436
888.887146,1394
889.003967,1438
889.120667,1443
889.237305,1413
889.354065,1448
889.470703,1425
889.587463,1436
889.704163,1434
889.820862,1486
889.937561,1452
890.054199,1432
890.170837,1444
890.287598,1479
890.404236,1408
890.520874,1413
890.637634,1458
890.754211,1475
890.87085,1473
890.987549,1460
891.104187,1447
891.220886,1454
891.337463,1500
891.454102,1492
891.57074,1445
891.687378,1452
891.804077,1456
891.920654,1453
892.037231,1430
892.15387,1439
892.270447,1443
892.387085,1432
892.503723,1457
892.6203,1478
892.736877,1491
892.853516,1487
892.970032,1456
893.08667,1496
893.203186,1439
893.319763,1441
893.43634,1471
893.552917,1477
893.669556,1462
893.786011,1431
893.902588,1459
894.019165,1481
894.135681,1433
894.252197,1452
894.368835,1520
894.485291,1502
894.601868,1443
894.718384,1482
894.8349,1449
894.951355,1486
895.067932,1486
895.184448,1494
895.300964,1496
895.417419,1452
895.533936,1431
895.650452,1497
895.766907,1461
895.883423,1444
895.999878,1475
896.116333,1471
896.232849,1432
896.349304,1457
896.465759,1476
896.582214,1472
896.698669,1461
896.815125,1459
896.931641,1440
897.048035,1502
897.164551,1516
897.280884,1446
897.397339,1454
897.513794,1482
897.630249,1508
897.746582,1509
897.863098,1461
897.979431,1473
898.095886,1486
898.212341,1467
898.328674,1494
898.445129,1507
898.561462,1467
898.677795,1479
898.794312,1463
898.910645,1466
899.026978,1469
899.143433,1434
899.259766,1491
899.37616,1469
899.492493,1429
899.608765,1526
899.725159,1494
899.841553,1485
899.957947,1487
900.07428,1488
900.190552,1488
900.306946,1521
900.423157,1502
900.53949,1516
900.655884,1507
900.772156,1487
900.888489,1487
901.004822,1450
901.121033,1502
901.237366,1517
901.353699,1458
901.46991,1487
901.586304,1462
901.702515,1462
901.818787,1473
901.93512,1453
902.051331,1523
902.167603,1538
902.283875,1483
902.400085,1481
902.516418,1482
902.632629,1481
902.74884,1540
902.865112,1499
902.981384,1537
903.097595,1514
903.213867,1497
903.330017,1500
903.446289,1539
903.5625,1467
903.67865,1532
903.794922,1543
903.911072,1479
904.027344,1493
904.143494,1490
904.259705,1542
904.375916,1500
904.492065,1460
904.608215,1500
904.724426,1499
904.840576,1510
904.956726,1540
905.072876,1516
905.189087,1515
905.305176,1515
905.421387,1525
905.537537,1531
905.653687,1502
905.769775,1544
905.885925,1548
906.002014,1498
906.118164,1523
906.234314,1477
906.350403,1485
906.466492,1526
906.582642,1513
906.69873,1550
906.814758,1526
906.930908,1504
907.046936,1517
907.163086,1516
907.279175,1481
907.395264,1509
907.511353,1518
907.62738,1537
907.743408,1483
907.859497,1468
907.975525,1502
908.091553,1501
908.207703,1519
908.32373,1530
908.439758,1494
908.555786,1511
908.671814,1491
908.787842,1535
908.90387,1564
909.019775,1528
909.135864,1531
909.251892,1520
909.367859,1541
909.483826,1521
909.599854,1501
909.715881,1533
909.831848,1520
909.947815,1536
910.063782,1559
910.179749,1539
910.295776,1547
910.411743,1541
910.527649,1534
910.643616,1544
910.759583,1537
910.875488,1563
910.991455,1528
911.107361,1588
911.223267,1534
911.339294,1542
911.4552,1516
911.571106,1504
911.687073,1557
911.802979,1548
911.918823,1526
912.034729,1508
912.150635,1559
912.266602,1503
912.382446,1542
912.498352,1495
912.614197,1524
912.730103,1512
912.846008,1516
792.44574,2196
792.56488,2150
792.68396,2200
792.80304,2121
792.92218,2129
793.041199,2122
793.160339,2032
793.279419,2109
793.398499,2118
793.517578,2031
793.636658,2045
793.755737,2082
793.874817,2014
793.993896,2061
794.112976,2052
794.232056,1996
794.351074,2041
794.470215,1997
794.589233,2045
794.708313,1982
794.827393,1965
794.946411,1957
795.065552,1974
795.18457,2014
795.303589,1971
795.422668,1966
795.541687,2024
795.660767,1951
795.779846,1957
795.898865,1953
796.017883,1993
796.136963,1980
796.255981,1989
796.375061,1987
796.49408,1950
796.613037,1986
796.732117,1943
796.851135,1898
796.970154,1949
797.089233,1926
797.208191,1969
797.327271,1920
797.446228,1924
797.565186,1924
797.684265,1929
797.803223,1977
797.922241,1913
798.04126,1948
798.160278,1991
798.279297,1956
798.398315,1955
798.517273,1883
798.636292,1943
798.75531,1910
798.874268,1954
798.993286,1913
799.112244,1851
799.231323,1911
799.350281,1960
799.469238,1922
799.588257,1905
799.707153,1968
799.826111,1953
799.945129,1924
800.064087,1955
800.183044,1951
800.302063,1917
800.421021,1973
800.539978,1944
800.658936,2011
800.777893,1966
800.896912,1918
801.015747,1925
801.134705,1922
801.253723,1923
801.37262,1951
801.491638,1942
801.610535,1944
801.729492,1956
801.84845,1959
801.967407,1936
802.086243,1992
802.205261,2003
802.324158,1997
802.443115,2053
802.562073,2002
802.680969,2066
802.799927,2044
802.918762,2060
803.037659,2001
803.156677,1966
803.275574,2000
803.39447,2012
803.513428,1986
803.632263,2002
803.751221,2043
803.870117,2006
803.989014,1991
804.107971,2047
804.226746,2016
804.345642,2001
804.4646,2060
804.583496,2013
804.702393,2054
804.821228,2035
804.940125,2071
805.059021,2051
805.177917,2138
805.296814,2030
805.415649,2076
805.534546,2073
805.653442,2078
805.772278,2071
805.891113,2047
806.01001,2072
806.128906,2115
806.247742,2041
806.366577,2077
806.485413,2132
806.604309,2134
806.723145,2100
806.84198,2094
806.960876,2158
807.079712,2111
807.198486,2112
807.317383,2190
807.436218,2125
807.554993,2113
807.673889,2148
807.792725,2104
807.91156,2174
808.030396,2169
808.14917,2108
808.268005,2120
808.386841,2161
808.505676,2189
808.624451,2154
808.743286,2125
808.862122,2124
808.980896,2183
809.099731,2123
809.218506,2165
809.337341,2182
809.456116,2158
809.57489,2203
809.693726,2191
809.8125,2207
809.931274,2188
810.050049,2181
810.168884,2183
810.287659,2230
810.406372,2192
810.525269,2226
810.643982,2215
810.762756,2209
810.881531,2183
811.000305,2167
811.11908,2192
811.237854,2212
811.356567,2165
811.475403,2199
811.594116,2177
811.71283,2236
811.831604,2223
811.950378,2165
812.069153,2178
812.187927,2200
812.30658,2187
812.425415,2231
812.544128,2242
812.662781,2180
812.781616,2233
812.900269,2202
813.019043,2220
813.137756,2217
813.256531,2229
813.375244,2160
813.493896,2190
813.612671,2183
813.731384,2179
813.850037,2182
813.96875,2170
814.087524,2217
814.206238,2182
814.324951,2179
814.443604,2123
814.562256,2238
814.68103,2180
814.799683,2137
814.918335,2174
815.037109,2137
815.155762,2162
815.274475,2133
815.393188,2138
815.511841,2130
815.630554,2127
815.749146,2074
815.867859,2092
815.986572,2072
816.105164,2117
816.223877,2094
816.342529,2104
816.461182,2057
816.579895,2113
816.698486,2105
816.817139,2074
816.935791,2152
817.054504,2155
817.173096,2130
817.291748,2088
817.4104,2016
817.529053,2042
817.647644,2028
817.766235,1948
817.884949,1911
818.00354,1895
818.122192,1915
818.240845,1820
818.359436,1791
818.478088,1775
818.59668,1766
818.715271,1718
818.833923,1720
818.952515,1649
819.071106,1629
819.189758,1650
819.30835,1619
819.426941,1629
819.545532,1624
819.664124,1593
819.782715,1605
819.901306,1552
820.019897,1566
820.138489,1549
820.25708,1566
820.375671,1586
820.494202,1550
820.612732,1528
820.731384,1547
820.849915,1529
820.968506,1527
821.087097,1506
821.205627,1493
821.324158,1511
821.442749,1478
821.561279,1487
821.679871,1552
821.798401,1509
821.916931,1482
822.035461,1498
822.154053,1475
822.272583,1495
822.391174,1467
822.509583,1479
822.628174,1483
822.746704,1448
822.865234,1433
822.983765,1484
823.102295,1472
823.220825,1485
823.339294,1444
823.457825,1463
823.576355,1496
823.694824,1480
823.813354,1486
823.931885,1502
824.050354,1454
824.168884,1489
824.287354,1485
824.405823,1536
824.524353,1532
824.642822,1530
824.761353,1484
824.879822,1513
824.998291,1445
825.116699,1502
825.235291,1502
825.353699,1504
825.472168,1436
825.590637,1436
825.709106,1475
825.827576,1478
825.946045,1480
826.064453,1452
826.182983,1450
826.301392,1447
826.4198,1402
826.53833,1431
826.656738,1437
826.775208,1437
826.893677,1406
827.012024,1415
827.130493,1472
827.248962,1397
827.36731,1405
827.485779,1377
827.604248,1394
827.722595,1427
827.841064,1363
827.959412,1406
828.077942,1366
828.196289,1381
828.314636,1400
828.433105,1381
828.551514,1406
828.669861,1378
828.78833,1418
828.906677,1348
829.025085,1377
829.143433,1396
829.261841,1387
829.38031,1335
829.498657,1337
829.617004,1385
829.735413,1417
829.85376,1358
829.972107,1407
830.090515,1359
830.208862,1383
830.327209,1406
830.445557,1367
830.563904,1350
830.682312,1360
830.800659,1341
830.919006,1376
831.037354,1363
831.155701,1357
831.274048,1374
831.392395,1383
831.51062,1411
831.629028,1382
831.747314,1379
831.865662,1356
831.984009,1315
832.102356,1376
832.220642,1368
832.338928,1334
832.457275,1326
832.575623,1346
832.693909,1357
832.812134,1372
832.930481,1364
833.048828,1325
833.167114,1372
833.2854,1327
833.403687,1377
833.521973,1396
833.640259,1365
833.758545,1380
833.876831,1360
833.995056,1362
834.113281,1336
834.231628,1357
834.349915,1353
834.468201,1336
834.586426,1356
834.704651,1351
834.822998,1368
834.941162,1406
835.059448,1371
835.177673,1374
835.295959,1397
835.414246,1348
835.53241,1352
835.650635,1356
835.768921,1394
835.887146,1374
836.005371,1388
836.123596,1373
836.241821,1403
836.360046,1463
836.478271,1448
836.596497,1435
836.714722,1438
836.832886,1439
836.95105,1459
837.069336,1418
837.1875,1471
837.305725,1432
837.423889,1519
837.542053,1459
837.660339,1481
837.778503,1445
837.896667,1436
838.014832,1488
838.132996,1422
838.25116,1466
838.369385,1453
838.487488,1416
838.605713,1407
838.723877,1425
838.84198,1423
838.960205,1395
839.078308,1480
839.196472,1431
839.314636,1426
839.4328,1407
839.550964,1408
839.669067,1492
839.787231,1380
839.905396,1450
840.023499,1411
840.141602,1411
840.259766,1409
840.377869,1390
840.495972,1411
840.614136,1403
840.732239,1379
840.850342,1410
840.968445,1418
841.086548,1364
841.204651,1396
841.322754,1395
841.440918,1394
841.55896,1360
841.677002,1381
841.795166,1441
841.913208,1346
842.031311,1372
842.149353,1360
842.267456,1305
842.385498,1340
842.503601,1342
842.621643,1401
842.739746,1341
842.857788,1352
842.97583,1324
843.093933,1373
843.211975,1353
843.330017,1385
843.44812,1353
843.566101,1320
843.684204,1333
843.802246,1370
843.920227,1353
844.038269,1328
844.156311,1352
844.274292,1378
844.392395,1336
844.510376,1348
844.628357,1328
844.74646,1328
844.864441,1351
844.982422,1331
845.100403,1335
845.218384,1327
845.336426,1333
845.454468,1381
845.572449,1339
845.69043,1314
845.808411,1329
845.926453,1342
846.044373,1313
846.162354,1340
846.280396,1348
846.398315,1325
846.516296,1326
846.634216,1346
846.752197,1332
846.870178,1338
846.988098,1311
847.106079,1309
847.22406,1296
847.34198,1347
847.4599,1322
847.577881,1335
847.695801,1297
847.813782,1332
847.931641,1334
848.049561,1348
848.167603,1289
848.285461,1337
848.403381,1339
848.521362,1335
848.639221,1344
848.75708,1329
848.875,1341
848.99292,1346
849.110901,1333
849.22876,1368
849.34668,1334
849.464539,1338
849.582458,1293
849.700317,1347
849.818176,1338
849.936096,1318
850.053955,1316
850.171875,1347
850.289673,1340
850.407593,1332
850.525452,1328
850.643311,1312
850.761169,1346
850.878967,1337
850.996887,1346
851.114746,1338
851.232544,1355
851.350403,1351
851.468262,1363
851.58606,1261
851.703979,1337
851.821777,1357
851.939636,1297
852.057434,1349
852.175232,1369
852.293091,1333
852.410889,1335
852.528687,1307
852.646545,1330
852.764343,1366
852.88208,1356
852.999939,1379
853.117676,1347
853.235535,1398
853.353271,1309
853.471069,1334
853.588928,1327
853.706604,1357
853.824402,1374
853.9422,1359
854.059998,1381
854.177734,1364
854.295532,1357
854.413269,1373
854.531006,1367
854.648804,1342
854.766541,1369
854.884277,1359
855.002014,1380
855.119751,1367
855.237549,1355
855.355225,1381
855.473022,1360
855.590698,1334
855.708435,1363
855.826172,1364
855.943848,1383
856.061646,1388
856.179321,1402
856.296997,1371
856.414795,1400
856.53241,1369
856.650085,1434
856.767822,1359
856.885559,1381
857.003174,1357
857.120911,1368
857.238586,1397
857.356201,1404
857.473938,1425
857.591614,1362
857.709351,1389
857.826965,1395
857.944641,1365
858.062317,1384
858.179993,1439
858.297668,1362
858.415283,1388
858.532959,1366
858.650574,1401
858.768188,1360
858.885803,1340
859.003479,1375
859.121094,1368
859.23877,1382
859.356384,1365
859.473999,1364
859.591675,1363
859.709229,1393
859.826843,1369
859.944458,1352
860.062012,1387
860.179626,1375
860.297302,1397
860.414856,1354
860.532471,1366
860.650024,1353
860.767639,1368
860.885193,1386
861.002808,1342
861.120361,1341
861.237976,1383
861.35553,1416
861.473022,1344
861.590698,1335
861.708191,1367
861.825745,1338
861.943298,1384
862.060852,1364
862.178406,1375
862.295959,1381
862.413513,1358
862.531006,1371
862.64856,1363
862.766113,1380
862.883667,1378
863.00116,1369
863.118713,1387
863.236206,1373
863.353699,1402
863.471252,1408
863.588745,1348
863.706177,1380
863.82373,1378
863.941162,1398
864.058716,1404
864.176208,1341
864.29364,1354
864.411194,1370
864.528687,1395
864.646118,1392
864.763611,1378
864.881042,1373
864.998535,1392
865.116028,1401
865.233459,1352
865.350891,1389
865.468384,1394
865.585754,1414
865.703308,1372
865.820679,1456
865.938171,1339
866.055542,1392
866.173035,1436
866.290466,1401
866.407837,1379
866.52533,1393
866.6427,1367
866.760071,1422
866.877563,1381
866.994934,1419
867.112305,1412
867.229736,1377
867.347107,1354
867.464539,1388
867.58197,1385
867.699341,1387
867.81665,1405
867.934082,1354
868.051453,1394
868.168823,1390
868.286194,1378
868.403564,1392
868.520935,1395
868.638306,1407
868.755676,1404
868.872986,1401
868.990295,1435
869.107727,1385
869.225037,1387
869.342346,1440
869.459717,1407
869.577026,1404
869.694336,1418
869.811707,1387
869.929016,1387
870.046326,1403
870.163635,1420
870.280945,1392
870.398254,1390
870.515564,1386
870.632812,1392
870.750183,1423
870.867432,1382
870.984741,1404
871.102051,1398
871.219299,1421
871.336609,1424
871.453918,1412
871.571106,1389
871.688416,1395
871.805664,1368
871.922852,1406
872.040222,1370
872.157471,1428
872.274719,1391
872.391968,1359
872.509155,1361
872.626465,1386
872.743652,1392
872.860962,1358
872.978149,1349
873.095337,1439
873.212646,1388
873.329834,1409
873.44696,1413
873.564209,1378
873.681396,1384
873.798645,1360
873.915894,1393
874.03302,1431
874.150208,1379
874.267456,1392
874.384583,1374
874.501831,1400
874.618958,1407
874.736145,1418
874.853333,1420
874.970459,1399
875.087646,1405
875.204834,1396
875.32196,1436
875.439148,1413
875.556274,1418
875.673401,1421
875.790527,1390
875.907715,1401
876.024841,1404
876.141968,1381
876.259094,1408
876.376282,1399
876.493347,1387
876.610474,1428
876.7276,1412
876.844727,1436
876.961853,1380
877.078918,1420
877.195984,1377
877.313171,1420
877.430237,1431
877.547302,1397
877.664368,1418
877.781433,1445
877.898499,1390
878.015625,1416
878.13269,1418
878.249695,1414
878.366821,1442
878.483887,1380
878.600952,1379
878.717957,1437
878.834961,1418
878.952087,1459
879.069092,1389
879.186157,1434
879.303162,1365
879.420227,1424
879.537231,1398
879.654236,1434
879.77124,1418
879.888306,1425
880.005249,1443
880.122314,1454
880.239319,1413
880.356323,1434
880.473328,1402
880.590271,1452
880.707275,1431
880.824341,1355
880.941284,1427
881.058228,1428
881.175232,1469
881.292236,1418
881.40918,1436
881.526123,1385
881.643066,1446
881.760071,1424
881.877014,1429
881.993958,1440
882.11084,1403
882.227783,1463
882.344727,1423
882.46167,1419
882.578613,1453
882.695618,1424
882.812439,1457
882.929382,1431
883.046326,1428
883.163208,1473
883.280151,1429
883.397034,1416
883.513916,1426
883.630798,1450
883.747742,1408
883.864563,1445
883.981506,1449
884.098389,1447
884.21521,1419
884.332153,1459
884.448975,1436
884.565796,1466
884.682678,1441
884.7995,1419
884.916443,1456
885.033264,1423
885.150085,1405
885.266968,1422
885.383789,1455
885.500671,1483
885.617493,1443
885.734314,1449
885.851196,1429
885.967896,1480
886.084717,1431
886.201599,1451
886.318359,1444
886.435181,1459
886.552002,1446
886.668762,1416
886.785645,1474
886.902344,1429
887.019165,1445
887.135925,1456
887.252747,1495
887.369446,1466
887.486267,1438
887.603027,1461
887.719788,1443
887.836548,1453
887.953247,1471
888.070068,1423
888.186829,1476
888.303528,1454
888.420288,1459
888.536987,1446
888.653687,1471
888.770447,1474
888.887146,1430
889.003967,1437
889.120667,1464
889.237305,1466
889.354065,1450
889.470703,1512
889.587463,1480
889.704163,1489
889.820862,1439
889.937561,1507
890.054199,1491
890.170837,1492
890.287598,1467
890.404236,1456
890.520874,1479
890.637634,1483
890.754211,1464
890.87085,1495
890.987549,1492
891.104187,1531
891.220886,1473
891.337463,1485
891.454102,1499
891.57074,1493
891.687378,1462
891.804077,1511
891.920654,1438
892.037231,1494
892.15387,1466
892.270447,1499
892.387085,1448
892.503723,1459
892.6203,1458
892.736877,1489
892.853516,1480
892.970032,1460
893.08667,1475
893.203186,1480
893.319763,1465
893.43634,1537
893.552917,1461
893.669556,1479
893.786011,1459
893.902588,1511
894.019165,1514
894.135681,1498
894.252197,1477
894.368835,1482
894.485291,1466
894.601868,1500
894.718384,1499
894.8349,1515
894.951355,1488
895.067932,1532
895.184448,1472
895.300964,1500
895.417419,1477
895.533936,1482
895.650452,1521
895.766907,1519
895.883423,1546
895.999878,1464
896.116333,1491
896.232849,1507
896.349304,1521
896.465759,1460
896.582214,1482
896.698669,1539
896.815125,1520
896.931641,1482
897.048035,1476
897.164551,1534
897.280884,1502
897.397339,1471
897.513794,1531
897.630249,1519
897.746582,1508
897.863098,1471
897.979431,1527
898.095886,1490
898.212341,1509
898.328674,1510
898.445129,1502
898.561462,1512
898.677795,1493
898.794312,1526
898.910645,1541
899.026978,1500
899.143433,1510
899.259766,1527
899.37616,1511
899.492493,1473
899.608765,1516
899.725159,1525
899.841553,1504
899.957947,1552
900.07428,1512
900.190552,1562
900.306946,1526
900.423157,1494
900.53949,1508
900.655884,1516
900.772156,1489
900.888489,1511
901.004822,1506
901.121033,1522
901.237366,1534
901.353699,1512
901.46991,1510
901.586304,1529
901.702515,1537
901.818787,1521
901.93512,1482
902.051331,1550
902.167603,1503
902.283875,1505
902.400085,1542
902.516418,1502
902.632629,1538
902.74884,1535
902.865112,1540
902.981384,1492
903.097595,1512
903.213867,1523
903.330017,1567
903.446289,1528
903.5625,1550
903.67865,1509
903.794922,1516
903.911072,1542
904.027344,1545
904.143494,1565
904.259705,1597
904.375916,1568
904.492065,1567
904.608215,1558
904.724426,1518
904.840576,1546
904.956726,1570
905.072876,1524
905.189087,1545
905.305176,1551
905.421387,1556
905.537537,1588
905.653687,1513
905.769775,1542
905.885925,1573
906.002014,1551
906.118164,1552
906.234314,1543
906.350403,1498
906.466492,1569
906.582642,1581
906.69873,1584
906.814758,1562
906.930908,1555
907.046936,1556
907.163086,1514
907.279175,1552
907.395264,1575
907.511353,1567
907.62738,1560
907.743408,1527
907.859497,1576
907.975525,1552
908.091553,1559
908.207703,1578
908.32373,1509
908.439758,1600
908.555786,1540
908.671814,1558
908.787842,1587
908.90387,1540
909.019775,1489
909.135864,1512
909.251892,1590
909.367859,1549
909.483826,1585
909.599854,1576
909.715881,1541
909.831848,1578
909.947815,1561
910.063782,1552
910.179749,1553
910.295776,1529
910.411743,1541
910.527649,1602
910.643616,1521
910.759583,1532
910.875488,1593
910.991455,1546
911.107361,1572
911.223267,1605
911.339294,1607
911.4552,1572
911.571106,1584
911.687073,1598
911.802979,1568
911.918823,1597
912.034729,1497
912.150635,1581
912.266602,1524
912.382446,1544
912.498352,1581
912.614197,1594
912.730103,1539
912.846008,1538
792.44574,2207
792.56488,2201
792.68396,2189
792.80304,2191
792.92218,2125
793.041199,2050
793.160339,2123
793.279419,2103
793.398499,2090
793.517578,2092
793.636658,2083
793.755737,2106
793.874817,2099
793.993896,2002
794.112976,2059
794.232056,2052
794.351074,2065
794.470215,2066
794.589233,2013
794.708313,1957
794.827393,1988
794.946411,2015
795.065552,2042
795.18457,1973
795.303589,1944
795.422668,1994
795.541687,1957
795.660767,1981
795.779846,2001
795.898865,1947
796.017883,1993
796.136963,1993
796.255981,2003
796.375061,1999
796.49408,1996
796.613037,1905
796.732117,1959
796.851135,1974
796.970154,1941
797.089233,1944
797.208191,1932
797.327271,1934
797.446228,1959
797.565186,1904
797.684265,1940
797.803223,1940
797.922241,1939
798.04126,1954
798.160278,1972
798.279297,1933
798.398315,1976
798.517273,1942
798.636292,1942
798.75531,1971
798.874268,1962
798.993286,1911
799.112244,1918
799.231323,1941
799.350281,1917
799.469238,1929
799.588257,1961
799.707153,1955
799.826111,1936
799.945129,1939
800.064087,1896
800.183044,1941
800.302063,1960
800.421021,1936
800.539978,1937
800.658936,1956
800.777893,1944
800.896912,1949
801.015747,1912
801.134705,1952
801.253723,1921
801.37262,1986
801.491638,2012
801.610535,1988
801.729492,1908
801.84845,2016
801.967407,1990
802.086243,1980
802.205261,2013
802.324158,1973
802.443115,1985
802.562073,2002
802.680969,2016
802.799927,2060
802.918762,1992
803.037659,2016
803.156677,2036
803.275574,2035
803.39447,2014
803.513428,2018
803.632263,2015
803.751221,2012
803.870117,2083
803.989014,2067
804.107971,2043
804.226746,2068
804.345642,2023
804.4646,2023
804.583496,2063
804.702393,2069
804.821228,2073
804.940125,2079
805.059021,2087
805.177917,2105
805.296814,2082
805.415649,2121
805.534546,2086
805.653442,2052
805.772278,2111
805.891113,2136
806.01001,2102
806.128906,2105
806.247742,2157
806.366577,2094
806.485413,2111
806.604309,2064
806.723145,2102
806.84198,2106
806.960876,2119
807.079712,2137
807.198486,2107
807.317383,2167
807.436218,2156
807.554993,2111
807.673889,2110
807.792725,2152
807.91156,2143
808.030396,2173
808.14917,2191
808.268005,2115
808.386841,2166
808.505676,2159
808.624451,2128
808.743286,2150
808.862122,2162
808.980896,2168
809.099731,2117
809.218506,2198
809.337341,2199
809.456116,2175
809.57489,2201
809.693726,2200
809.8125,2217
809.931274,2223
810.050049,2238
810.168884,2195
810.287659,2214
810.406372,2231
810.525269,2186
810.643982,2207
810.762756,2228
810.881531,2190
811.000305,2240
811.11908,2214
811.237854,2205
811.356567,2205
811.475403,2251
811.594116,2234
811.71283,2230
811.831604,2236
811.950378,2176
812.069153,2221
812.187927,2174
812.30658,2191
812.425415,2209
812.544128,2244
812.662781,2131
812.781616,2176
812.900269,2214
813.019043,2193
813.137756,2223
813.256531,2211
813.375244,2238
813.493896,2208
813.612671,2201
813.731384,2218
813.850037,2167
813.96875,2209
814.087524,2183
814.206238,2219
814.324951,2218
814.443604,2181
814.562256,2185
814.68103,2142
814.799683,2205
814.918335,2183
815.037109,2172
815.155762,2170
815.274475,2176
815.393188,2172
815.511841,2155
815.630554,2168
815.749146,2119
815.867859,2044
815.986572,2095
816.105164,2088
816.223877,2069
816.342529,2127
816.461182,2166
816.579895,2198
816.698486,2112
816.817139,2164
816.935791,2126
817.054504,2175
817.173096,2173
817.291748,2076
817.4104,2118
817.529053,2079
817.647644,1995
817.766235,1948
817.884949,1995
818.00354,1905
818.122192,1914
818.240845,1853
818.359436,1821
818.478088,1783
818.59668,1775
818.715271,1723
818.833923,1722
818.952515,1661
819.071106,1657
819.189758,1642
819.30835,1655
819.426941,1651
819.545532,1577
819.664124,1630
819.782715,1615
819.901306,1604
820.019897,1551
820.138489,1592
820.25708,1605
820.375671,1560
820.494202,1534
820.612732,1565
820.731384,1591
820.849915,1573
820.968506,1544
821.087097,1532
821.205627,1521
821.324158,1515
821.442749,1484
821.561279,1536
821.679871,1497
821.798401,1529
821.916931,1479
822.035461,1517
822.154053,1452
822.272583,1501
822.391174,1470
822.509583,1468
822.628174,1490
822.746704,1488
822.865234,1461
822.983765,1498
823.102295,1452
823.220825,1426
823.339294,1477
823.457825,1495
823.576355,1500
823.694824,1518
823.813354,1477
823.931885,1509
824.050354,1552
824.168884,1504
824.287354,1486
824.405823,1451
824.524353,1528
824.642822,1514
824.761353,1488
824.879822,1520
824.998291,1502
825.116699,1460
825.235291,1538
825.353699,1486
825.472168,1461
825.590637,1466
825.709106,1483
825.827576,1488
825.946045,1466
826.064453,1435
826.182983,1463
826.301392,1466
826.4198,1431
826.53833,1480
826.656738,1407
826.775208,1405
826.893677,1445
827.012024,1420
827.130493,1421
827.248962,1393
827.36731,1435
827.485779,1407
827.604248,1445
827.722595,1438
827.841064,1371
827.959412,1354
828.077942,1404
828.196289,1410
828.314636,1399
828.433105,1408
828.551514,1381
828.669861,1393
828.78833,1400
828.906677,1387
829.025085,1387
829.143433,1396
829.261841,1396
829.38031,1353
829.498657,1415
829.617004,1389
829.735413,1390
829.85376,1391
829.972107,1378
830.090515,1402
830.208862,1358
830.327209,1375
830.445557,1377
830.563904,1364
830.682312,1388
830.800659,1426
830.919006,1394
831.037354,1391
831.155701,1445
831.274048,1364
831.392395,1306
831.51062,1394
831.629028,1396
831.747314,1373
831.865662,1369
831.984009,1351
832.102356,1386
832.220642,1385
832.338928,1371
832.457275,1407
832.575623,1364
832.693909,1359
832.812134,1353
832.930481,1377
833.048828,1360
833.167114,1374
833.2854,1411
833.403687,1390
833.521973,1390
833.640259,1325
833.758545,1389
833.876831,1341
833.995056,1367
834.113281,1374
834.231628,1358
834.349915,1404
834.468201,1372
834.586426,1380
834.704651,1376
834.822998,1369
834.941162,1400
835.059448,1372
835.177673,1394
835.295959,1345
835.414246,1384
835.53241,1365
835.650635,1419
835.768921,1412
835.887146,1395
836.005371,1396
836.123596,1454
836.241821,1429
836.360046,1430
836.478271,1425
836.596497,1449
836.714722,1441
836.832886,1469
836.95105,1439
837.069336,1463
837.1875,1437
837.305725,1469
837.423889,1468
837.542053,1477
837.660339,1455
837.778503,1476
837.896667,1467
838.014832,1459
838.132996,1434
838.25116,1439
838.369385,1459
838.487488,1424
838.605713,1446
838.723877,1475
838.84198,1491
838.960205,1436
839.078308,1443
839.196472,1440
839.314636,1463
839.4328,1408
839.550964,1446
839.669067,1420
839.787231,1413
839.905396,1436
840.023499,1430
840.141602,1458
840.259766,1442
840.377869,1413
840.495972,1446
840.614136,1407
840.732239,1391
840.850342,1387
840.968445,1420
841.086548,1393
841.204651,1432
841.322754,1444
841.440918,1397
841.55896,1384
841.677002,1375
841.795166,1362
841.913208,1362
842.031311,1399
842.149353,1382
842.267456,1381
842.385498,1357
842.503601,1371
842.621643,1329
842.739746,1390
842.857788,1333
842.97583,1325
843.093933,1365
843.211975,1347
843.330017,1379
843.44812,1354
843.566101,1352
843.684204,1371
843.802246,1370
843.920227,1377
844.038269,1383
844.156311,1375
844.274292,1329
844.392395,1345
844.510376,1326
844.628357,1346
844.74646,1370
844.864441,1360
844.982422,1348
845.100403,1333
845.218384,1343
845.336426,1317
845.454468,1334
845.572449,1372
845.69043,1345
845.808411,1337
845.926453,1346
846.044373,1319
846.162354,1321
846.280396,1368
846.398315,1317
846.516296,1325
846.634216,1351
846.752197,1337
846.870178,1362
846.988098,1321
847.106079,1353
847.22406,1346
847.34198,1337
847.4599,1356
847.577881,1352
847.695801,1351
847.813782,1328
847.931641,1355
848.049561,1387
848.167603,1320
848.285461,1374
848.403381,1371
848.521362,1328
848.639221,1375
848.75708,1317
848.875,1374
848.99292,1360
849.110901,1329
849.22876,1345
849.34668,1343
849.464539,1316
849.582458,1343
849.700317,1348
849.818176,1383
849.936096,1349
850.053955,1375
850.171875,1311
850.289673,1320
850.407593,1312
850.525452,1352
850.643311,1332
850.761169,1374
850.878967,1307
850.996887,1358
851.114746,1342
851.232544,1370
851.350403,1356
851.468262,1353
851.58606,1304
851.703979,1323
851.821777,1396
851.939636,1367
852.057434,1351
852.175232,1410
852.293091,1350
852.410889,1291
852.528687,1374
852.646545,1328
852.764343,1355
852.88208,1341
852.999939,1387
853.117676,1376
853.235535,1346
853.353271,1347
853.471069,1407
853.588928,1375
853.706604,1323
853.824402,1344
853.9422,1372
854.059998,1377
854.177734,1392
854.295532,1385
854.413269,1356
854.531006,1350
854.648804,1406
854.766541,1391
854.884277,1415
855.002014,1363
855.119751,1356
855.237549,1393
855.355225,1401
855.473022,1375
855.590698,1408
855.708435,1412
855.826172,1360
855.943848,1423
856.061646,1386
856.179321,1374
856.296997,1392
856.414795,1384
856.53241,1416
856.650085,1393
856.767822,1390
856.885559,1390
857.003174,1398
857.120911,1411
857.238586,1392
857.356201,1401
857.473938,1375
857.591614,1382
857.709351,1381
857.826965,1396
857.944641,1422
858.062317,1409
858.179993,1372
858.297668,1390
858.415283,1374
858.532959,1402
858.650574,1330
858.768188,1377
858.885803,1375
859.003479,1345
859.121094,1377
859.23877,1353
859.356384,1384
859.473999,1402
859.591675,1359
859.709229,1400
859.826843,1377
859.944458,1361
860.062012,1390
860.179626,1410
860.297302,1363
860.414856,1391
860.532471,1370
860.650024,1364
860.767639,1385
860.885193,1378
861.002808,1403
861.120361,1362
861.237976,1402
861.35553,1380
861.473022,1338
861.590698,1378
861.708191,1353
861.825745,1371
861.943298,1353
862.060852,1385
862.178406,1406
862.295959,1383
862.413513,1349
862.531006,1363
862.64856,1387
862.766113,1349
862.883667,1363
863.00116,1393
863.118713,1375
863.236206,1412
863.353699,1379
863.471252,1367
863.588745,1383
863.706177,1393
863.82373,1401
863.941162,1406
864.058716,1383
864.176208,1383
864.29364,1429
864.411194,1405
864.528687,1409
864.646118,1391
864.763611,1386
864.881042,1399
864.998535,1403
865.116028,1399
865.233459,1414
865.350891,1374
865.468384,1412
865.585754,1392
865.703308,1374
865.820679,1383
865.938171,1383
866.055542,1421
866.173035,1420
866.290466,1353
866.407837,1430
866.52533,1427
866.6427,1362
866.760071,1444
866.877563,1424
866.994934,1422
867.112305,1429
867.229736,1415
867.347107,1427
867.464539,1424
867.58197,1413
867.699341,1388
867.81665,1396
867.934082,1472
868.051453,1427
868.168823,1405
868.286194,1404
868.403564,1390
868.520935,1409
868.638306,1409
868.755676,1403
868.872986,1434
868.990295,1435
869.107727,1454
869.225037,1407
869.342346,1406
869.459717,1435
869.577026,1407
869.694336,1411
869.811707,1456
869.929016,1428
870.046326,1401
870.163635,1451
870.280945,1433
870.398254,1428
870.515564,1398
870.632812,1388
870.750183,1409
870.867432,1452
870.984741,1387
871.102051,1442
871.219299,1401
871.336609,1398
871.453918,1414
871.571106,1407
871.688416,1418
871.805664,1413
871.922852,1425
872.040222,1383
872.157471,1426
872.274719,1384
872.391968,1402
872.509155,1385
872.626465,1408
872.743652,1406
872.860962,1847
872.978149,2114
873.095337,1382
873.212646,1420
873.329834,1393
873.44696,1435
873.564209,1401
873.681396,1390
873.798645,1433
873.915894,1409
874.03302,1440
874.150208,1441
874.267456,1376
874.384583,1434
874.501831,1379
874.618958,1413
874.736145,1397
874.853333,1400
874.970459,1412
875.087646,1401
875.204834,1414
875.32196,1411
875.439148,1473
875.556274,1391
875.673401,1408
875.790527,1437
875.907715,1431
876.024841,1403
876.141968,1436
876.259094,1390
876.376282,1438
876.493347,1380
876.610474,1423
876.7276,1485
876.844727,1433
876.961853,1432
877.078918,1467
877.195984,1415
877.313171,1442
877.430237,1440
877.547302,1442
877.664368,1430
877.781433,1466
877.898499,1465
878.015625,1438
878.13269,1407
878.249695,1442
878.366821,1412
878.483887,1436
878.600952,1420
878.717957,1466
878.834961,1400
878.952087,1438
879.069092,1447
879.186157,1429
879.303162,1439
879.420227,1426
879.537231,1450
879.654236,1449
879.77124,1439
879.888306,1423
880.005249,1438
880.122314,1417
880.239319,1459
880.356323,1441
880.473328,1444
880.590271,1433
880.707275,1490
880.824341,1435
880.941284,1424
881.058228,1455
881.175232,1464
881.292236,1410
881.40918,1397
881.526123,1411
881.643066,1481
881.760071,1422
881.877014,1409
881.993958,1422
882.11084,1423
882.227783,1464
882.344727,1431
882.46167,1428
882.578613,1426
882.695618,1434
882.812439,1428
882.929382,1422
883.046326,1450
883.163208,1454
883.280151,1447
883.397034,1451
883.513916,1409
883.630798,1484
883.747742,1455
883.864563,1475
883.981506,1441
884.098389,1438
884.21521,1445
884.332153,1424
884.448975,1438
884.565796,1439
884.682678,1478
884.7995,1460
884.916443,1442
885.033264,1456
885.150085,1475
885.266968,1445
885.383789,1456
885.500671,1433
885.617493,1499
885.734314,1456
885.851196,1455
885.967896,1406
886.084717,1485
886.201599,1426
886.318359,1484
886.435181,1461
886.552002,1501
886.668762,1487
886.785645,1497
886.902344,1417
887.019165,1516
887.135925,1440
887.252747,1458
887.369446,1480
887.486267,1496
887.603027,1498
887.719788,1499
887.836548,1463
887.953247,1481
888.070068,1469
888.186829,1432
888.303528,1494
888.420288,1477
888.536987,1446
888.653687,1517
888.770447,1485
888.887146,1506
889.003967,1481
889.120667,1494
889.237305,1481
889.354065,1514
889.470703,1451
889.587463,1485
889.704163,1493
889.820862,1461
889.937561,1477
890.054199,1495
890.170837,1495
890.287598,1487
890.404236,1465
890.520874,1501
890.637634,1476
890.754211,1469
890.87085,1489
890.987549,1500
891.104187,1477
891.220886,1477
891.337463,1485
891.454102,1464
891.57074,1524
891.687378,1490
891.804077,1518
891.920654,1543
892.037231,1502
892.15387,1559
892.270447,1437
892.387085,1484
892.503723,1480
892.6203,1487
892.736877,1465
892.853516,1479
892.970032,1488
893.08667,1521
893.203186,1507
893.319763,1430
893.43634,1551
893.552917,1505
893.669556,1489
893.786011,1494
893.902588,1516
894.019165,1517
894.135681,1507
894.252197,1531
894.368835,1537
894.485291,1488
894.601868,1530
894.718384,1537
894.8349,1514
894.951355,1516
895.067932,1507
895.184448,1488
895.300964,1527
895.417419,1521
895.533936,1535
895.650452,1489
895.766907,1524
895.883423,1561
895.999878,1538
896.116333,1520
896.232849,1493
896.349304,1500
896.465759,1511
896.582214,1500
896.698669,1514
896.815125,1489
896.931641,1513
897.048035,1526
897.164551,1566
897.280884,1560
897.397339,1518
897.513794,1564
897.630249,1506
897.746582,1484
897.863098,1524
897.979431,1572
898.095886,1509
898.212341,1504
898.328674,1560
898.445129,1552
898.561462,1477
898.677795,1512
898.794312,1548
898.910645,1490
899.026978,1483
899.143433,1548
899.259766,1512
899.37616,1527
899.492493,1530
899.608765,1524
899.725159,1507
899.841553,1536
899.957947,1522
900.07428,1517
900.190552,1525
900.306946,1574
900.423157,1560
900.53949,1551
900.655884,1565
900.772156,1521
900.888489,1549
901.004822,1521
901.121033,1575
901.237366,1520
901.353699,1510
901.46991,1534
901.586304,1537
901.702515,1562
901.818787,1542
901.93512,1498
902.051331,1573
902.167603,1524
902.283875,1565
902.400085,1512
902.516418,1547
902.632629,1566
902.74884,1605
902.865112,1595
902.981384,1552
903.097595,1554
903.213867,1569
903.330017,1564
903.446289,1510
903.5625,1550
903.67865,1538
903.794922,1616
903.911072,1595
904.027344,1574
904.143494,1574
904.259705,1559
904.375916,1560
904.492065,1535
904.608215,1585
904.724426,1526
904.840576,1567
904.956726,1545
905.072876,1565
905.189087,1591
905.305176,1580
905.421387,1580
905.537537,1577
905.653687,1570
905.769775,1584
905.885925,1580
906.002014,1571
906.118164,1583
906.234314,1573
906.350403,1572
906.466492,1590
906.582642,1563
906.69873,1580
906.814758,1561
906.930908,1597
907.046936,1553
907.163086,1544
907.279175,1582
907.395264,1581
907.511353,1573
907.62738,1551
907.743408,1567
907.859497,1598
907.975525,1605
908.091553,1617
908.207703,1594
908.32373,1559
908.439758,1576
908.555786,1594
908.671814,1639
908.787842,1536
908.90387,1585
909.019775,1576
909.135864,1579
909.251892,1602
909.367859,1641
909.483826,1591
909.599854,1573
909.715881,1571
909.831848,1547
909.947815,1599
910.063782,1604
910.179749,1567
910.295776,1519
910.411743,1558
910.527649,1593
910.643616,1550
910.759583,1606
910.875488,1608
910.991455,1605
911.107361,1556
911.223267,1563
911.339294,1558
911.4552,1568
911.571106,1603
911.687073,1587
911.802979,1595
911.918823,1562
912.034729,1606
912.150635,1569
912.266602,1575
912.382446,1613
912.498352,1573
912.614197,1609
912.730103,1608
912.846008,1579
