792.44574,2247
792.56488,2137
792.68396,2206
792.80304,2138
792.92218,2116
793.041199,2056
793.160339,2078
793.279419,2052
793.398499,2012
793.517578,1993
793.636658,1947
793.755737,1900
793.874817,2012
793.993896,1952
794.112976,1955
794.232056,1902
794.351074,1869
794.470215,1898
794.589233,1857
794.708313,1806
794.827393,1821
794.946411,1848
795.065552,1838
795.18457,1798
795.303589,1850
795.422668,1821
795.541687,1802
795.660767,1796
795.779846,1798
795.898865,1763
796.017883,1775
796.136963,1726
796.255981,1734
796.375061,1755
796.49408,1762
796.613037,1731
796.732117,1733
796.851135,1694
796.970154,1670
797.089233,1668
797.208191,1653
797.327271,1668
797.446228,1647
797.565186,1680
797.684265,1691
797.803223,1647
797.922241,1678
798.04126,1629
798.160278,1714
798.279297,1662
798.398315,1644
798.517273,1643
798.636292,1690
798.75531,1675
798.874268,1681
798.993286,1646
799.112244,1665
799.231323,1586
799.350281,1624
799.469238,1629
799.588257,1639
799.707153,1611
799.826111,1625
799.945129,1598
800.064087,1612
800.183044,1643
800.302063,1631
800.421021,1632
800.539978,1634
800.658936,1631
800.777893,1610
800.896912,1593
801.015747,1611
801.134705,1588
801.253723,1605
801.37262,1598
801.491638,1628
801.610535,1597
801.729492,1636
801.84845,1589
801.967407,1601
802.086243,1573
802.205261,1592
802.324158,1609
802.443115,1652
802.562073,1602
802.680969,1524
802.799927,1545
802.918762,1615
803.037659,1534
803.156677,1577
803.275574,1541
803.39447,1607
803.513428,1599
803.632263,1563
803.751221,1538
803.870117,1570
803.989014,1525
804.107971,1619
804.226746,1528
804.345642,1599
804.4646,1565
804.583496,1565
804.702393,1515
804.821228,1567
804.940125,1590
805.059021,1523
805.177917,1590
805.296814,1561
805.415649,1585
805.534546,1556
805.653442,1595
805.772278,1564
805.891113,1538
806.01001,1537
806.128906,1505
806.247742,1546
806.366577,1528
806.485413,1559
806.604309,1508
806.723145,1589
806.84198,1566
806.960876,1531
807.079712,1507
807.198486,1492
807.317383,1566
807.436218,1564
807.554993,1570
807.673889,1553
807.792725,1537
807.91156,1551
808.030396,1540
808.14917,1580
808.268005,1545
808.386841,1531
808.505676,1507
808.624451,1526
808.743286,1538
808.862122,1551
808.980896,1524
809.099731,1581
809.218506,1539
809.337341,1531
809.456116,1514
809.57489,1544
809.693726,1538
809.8125,1499
809.931274,1537
810.050049,1565
810.168884,1572
810.287659,1522
810.406372,1537
810.525269,1615
810.643982,1536
810.762756,1536
810.881531,1518
811.000305,1551
811.11908,1513
811.237854,1505
811.356567,1524
811.475403,1530
811.594116,1512
811.71283,1549
811.831604,1529
811.950378,1578
812.069153,1564
812.187927,1535
812.30658,1546
812.425415,1510
812.544128,1543
812.662781,1510
812.781616,1573
812.900269,1577
813.019043,1541
813.137756,1508
813.256531,1578
813.375244,1562
813.493896,1503
813.612671,1533
813.731384,1530
813.850037,1547
813.96875,1509
814.087524,1525
814.206238,1526
814.324951,1536
814.443604,1499
814.562256,1543
814.68103,1527
814.799683,1536
814.918335,1508
815.037109,1519
815.155762,1533
815.274475,1550
815.393188,1510
815.511841,1450
815.630554,1524
815.749146,1541
815.867859,1503
815.986572,1509
816.105164,1487
816.223877,1472
816.342529,1493
816.461182,1531
816.579895,1471
816.698486,1506
816.817139,1480
816.935791,1488
817.054504,1535
817.173096,1513
817.291748,1493
817.4104,1510
817.529053,1490
817.647644,1508
817.766235,1453
817.884949,1475
818.00354,1480
818.122192,1476
818.240845,1431
818.359436,1455
818.478088,1471
818.59668,1429
818.715271,1452
818.833923,1469
818.952515,1457
819.071106,1427
819.189758,1402
819.30835,1431
819.426941,1407
819.545532,1461
819.664124,1430
819.782715,1389
819.901306,1417
820.019897,1413
820.138489,1427
820.25708,1377
820.375671,1425
820.494202,1441
820.612732,1432
820.731384,1439
820.849915,1402
820.968506,1416
821.087097,1402
821.205627,1421
821.324158,1385
821.442749,1426
821.561279,1410
821.679871,1412
821.798401,1385
821.916931,1353
822.035461,1396
822.154053,1377
822.272583,1361
822.391174,1371
822.509583,1391
822.628174,1386
822.746704,1400
822.865234,1401
822.983765,1381
823.102295,1379
823.220825,1355
823.339294,1372
823.457825,1347
823.576355,1376
823.694824,1381
823.813354,1335
823.931885,1384
824.050354,1406
824.168884,1376
824.287354,1403
824.405823,1371
824.524353,1382
824.642822,1358
824.761353,1371
824.879822,1349
824.998291,1370
825.116699,1387
825.235291,1368
825.353699,1384
825.472168,1349
825.590637,1371
825.709106,1378
825.827576,1372
825.946045,1365
826.064453,1375
826.182983,1371
826.301392,1341
826.4198,1365
826.53833,1364
826.656738,1344
826.775208,1353
826.893677,1372
827.012024,1326
827.130493,1337
827.248962,1355
827.36731,1345
827.485779,1346
827.604248,1358
827.722595,1350
827.841064,1331
827.959412,1337
828.077942,1328
828.196289,1340
828.314636,1321
828.433105,1320
828.551514,1348
828.669861,1329
828.78833,1371
828.906677,1332
829.025085,1343
829.143433,1330
829.261841,1317
829.38031,1355
829.498657,1342
829.617004,1301
829.735413,1385
829.85376,1303
829.972107,1326
830.090515,1316
830.208862,1312
830.327209,1360
830.445557,1327
830.563904,1333
830.682312,1353
830.800659,1383
830.919006,1334
831.037354,1385
831.155701,1355
831.274048,1374
831.392395,1359
831.51062,1342
831.629028,1307
831.747314,1323
831.865662,1329
831.984009,1354
832.102356,1339
832.220642,1322
832.338928,1371
832.457275,1316
832.575623,1339
832.693909,1342
832.812134,1330
832.930481,1363
833.048828,1362
833.167114,1344
833.2854,1319
833.403687,1357
833.521973,1373
833.640259,1315
833.758545,1314
833.876831,1315
833.995056,1343
834.113281,1372
834.231628,1371
834.349915,1310
834.468201,1335
834.586426,1334
834.704651,1374
834.822998,1283
834.941162,1328
835.059448,1318
835.177673,1322
835.295959,1316
835.414246,1343
835.53241,1342
835.650635,1355
835.768921,1301
835.887146,1357
836.005371,1328
836.123596,1340
836.241821,1345
836.360046,1301
836.478271,1364
836.596497,1329
836.714722,1316
836.832886,1337
836.95105,1338
837.069336,1321
837.1875,1357
837.305725,1344
837.423889,1341
837.542053,1356
837.660339,1345
837.778503,1342
837.896667,1316
838.014832,1345
838.132996,1332
838.25116,1353
838.369385,1348
838.487488,1393
838.605713,1350
838.723877,1304
838.84198,1360
838.960205,1343
839.078308,1342
839.196472,1281
839.314636,1346
839.4328,1349
839.550964,1319
839.669067,1317
839.787231,1358
839.905396,1354
840.023499,1354
840.141602,1355
840.259766,1387
840.377869,1328
840.495972,1369
840.614136,1320
840.732239,1381
840.850342,1343
840.968445,1383
841.086548,1350
841.204651,1347
841.322754,1365
841.440918,1340
841.55896,1376
841.677002,1395
841.795166,1341
841.913208,1357
842.031311,1360
842.149353,1346
842.267456,1359
842.385498,1355
842.503601,1361
842.621643,1298
842.739746,1349
842.857788,1335
842.97583,1361
843.093933,1343
843.211975,1373
843.330017,1409
843.44812,1316
843.566101,1355
843.684204,1373
843.802246,1352
843.920227,1370
844.038269,1356
844.156311,1346
844.274292,1317
844.392395,1377
844.510376,1329
844.628357,1357
844.74646,1373
844.864441,1306
844.982422,1365
845.100403,1343
845.218384,1363
845.336426,1356
845.454468,1381
845.572449,1363
845.69043,1335
845.808411,1311
845.926453,1343
846.044373,1370
846.162354,1345
846.280396,1333
846.398315,1380
846.516296,1371
846.634216,1342
846.752197,1342
846.870178,1345
846.988098,1360
847.106079,1344
847.22406,1366
847.34198,1338
847.4599,1340
847.577881,1378
847.695801,1354
847.813782,1369
847.931641,1339
848.049561,1359
848.167603,1378
848.285461,1321
848.403381,1378
848.521362,1372
848.639221,1343
848.75708,1396
848.875,1405
848.99292,1410
849.110901,1406
849.22876,1376
849.34668,1371
849.464539,1345
849.582458,1378
849.700317,1310
849.818176,1362
849.936096,1367
850.053955,1364
850.171875,1378
850.289673,1409
850.407593,1415
850.525452,1359
850.643311,1373
850.761169,1364
850.878967,1394
850.996887,1378
851.114746,1397
851.232544,1416
851.350403,1298
851.468262,1387
851.58606,1362
851.703979,1354
851.821777,1365
851.939636,1378
852.057434,1360
852.175232,1373
852.293091,1328
852.410889,1383
852.528687,1353
852.646545,1412
852.764343,1388
852.88208,1392
852.999939,1389
853.117676,1425
853.235535,1336
853.353271,1399
853.471069,1369
853.588928,1324
853.706604,1367
853.824402,1359
853.9422,1354
854.059998,1353
854.177734,1351
854.295532,1341
854.413269,1403
854.531006,1329
854.648804,1348
854.766541,1307
854.884277,1362
855.002014,1356
855.119751,1373
855.237549,1339
855.355225,1369
855.473022,1375
855.590698,1370
855.708435,1370
855.826172,1339
855.943848,1387
856.061646,1365
856.179321,1308
856.296997,1322
856.414795,1342
856.53241,1378
856.650085,1352
856.767822,1346
856.885559,1415
857.003174,1346
857.120911,1398
857.238586,1376
857.356201,1379
857.473938,1368
857.591614,1335
857.709351,1367
857.826965,1380
857.944641,1364
858.062317,1364
858.179993,1362
858.297668,1363
858.415283,1368
858.532959,1404
858.650574,1395
858.768188,1400
858.885803,1401
859.003479,1400
859.121094,1402
859.23877,1386
859.356384,1331
859.473999,1358
859.591675,1355
859.709229,1372
859.826843,1347
859.944458,1365
860.062012,1361
860.179626,1308
860.297302,1334
860.414856,1321
860.532471,1349
860.650024,1346
860.767639,1394
860.885193,1371
861.002808,1351
861.120361,1385
861.237976,1359
861.35553,1366
861.473022,1364
861.590698,1357
861.708191,1337
861.825745,1353
861.943298,1359
862.060852,1363
862.178406,1345
862.295959,1346
862.413513,1322
862.531006,1330
862.64856,1352
862.766113,1352
862.883667,1362
863.00116,1333
863.118713,1299
863.236206,1358
863.353699,1380
863.471252,1320
863.588745,1316
863.706177,1306
863.82373,1328
863.941162,1401
864.058716,1376
864.176208,1364
864.29364,1347
864.411194,1350
864.528687,1336
864.646118,1359
864.763611,1342
864.881042,1339
864.998535,1341
865.116028,1331
865.233459,1342
865.350891,1335
865.468384,1377
865.585754,1375
865.703308,1318
865.820679,1366
865.938171,1332
866.055542,1337
866.173035,1337
866.290466,1341
866.407837,1340
866.52533,1329
866.6427,1387
866.760071,1370
866.877563,1359
866.994934,1319
867.112305,1360
867.229736,1355
867.347107,1393
867.464539,1329
867.58197,1369
867.699341,1375
867.81665,1322
867.934082,1369
868.051453,1347
868.168823,1312
868.286194,1369
868.403564,1387
868.520935,1332
868.638306,1366
868.755676,1360
868.872986,1391
868.990295,1357
869.107727,1358
869.225037,1321
869.342346,1358
869.459717,1361
869.577026,1355
869.694336,1363
869.811707,1369
869.929016,1357
870.046326,1382
870.163635,1424
870.280945,1377
870.398254,1371
870.515564,1403
870.632812,1381
870.750183,1392
870.867432,1409
870.984741,1381
871.102051,1378
871.219299,1387
871.336609,1395
871.453918,1411
871.571106,1416
871.688416,1409
871.805664,1408
871.922852,1413
872.040222,1437
872.157471,1387
872.274719,1361
872.391968,1402
872.509155,1380
872.626465,1395
872.743652,1388
872.860962,1386
872.978149,1442
873.095337,1369
873.212646,1432
873.329834,1384
873.44696,1384
873.564209,1348
873.681396,1348
873.798645,1432
873.915894,1404
874.03302,1370
874.150208,1430
874.267456,1413
874.384583,1401
874.501831,1443
874.618958,1404
874.736145,1453
874.853333,1426
874.970459,1384
875.087646,1440
875.204834,1365
875.32196,1411
875.439148,1369
875.556274,1359
875.673401,1382
875.790527,1363
875.907715,1370
876.024841,1378
876.141968,1426
876.259094,1439
876.376282,1367
876.493347,1451
876.610474,1383
876.7276,1412
876.844727,1393
876.961853,1351
877.078918,1418
877.195984,1365
877.313171,1399
877.430237,1412
877.547302,1385
877.664368,1371
877.781433,1377
877.898499,1393
878.015625,1367
878.13269,1368
878.249695,1351
878.366821,1365
878.483887,1390
878.600952,1365
878.717957,1352
878.834961,1379
878.952087,1380
879.069092,1359
879.186157,1376
879.303162,1369
879.420227,1341
879.537231,1360
879.654236,1332
879.77124,1342
879.888306,1354
880.005249,1335
880.122314,1364
880.239319,1331
880.356323,1422
880.473328,1328
880.590271,1384
880.707275,1344
880.824341,1375
880.941284,1383
881.058228,1373
881.175232,1378
881.292236,1345
881.40918,1356
881.526123,1377
881.643066,1373
881.760071,1364
881.877014,1340
881.993958,1358
882.11084,1290
882.227783,1374
882.344727,1343
882.46167,1342
882.578613,1363
882.695618,1369
882.812439,1358
882.929382,1362
883.046326,1339
883.163208,1371
883.280151,1338
883.397034,1386
883.513916,1377
883.630798,1399
883.747742,1387
883.864563,1377
883.981506,1390
884.098389,1414
884.21521,1378
884.332153,1388
884.448975,1354
884.565796,1419
884.682678,1399
884.7995,1427
884.916443,1450
885.033264,1462
885.150085,1514
885.266968,1532
885.383789,1465
885.500671,1552
885.617493,1491
885.734314,1524
885.851196,1480
885.967896,1456
886.084717,1490
886.201599,1516
886.318359,1469
886.435181,1505
886.552002,1461
886.668762,1489
886.785645,1461
886.902344,1486
887.019165,1443
887.135925,1447
887.252747,1462
887.369446,1417
887.486267,1390
887.603027,1382
887.719788,1418
887.836548,1376
887.953247,1394
888.070068,1395
888.186829,1383
888.303528,1412
888.420288,1373
888.536987,1401
888.653687,1358
888.770447,1391
888.887146,1372
889.003967,1381
889.120667,1383
889.237305,1357
889.354065,1357
889.470703,1345
889.587463,1322
889.704163,1412
889.820862,1347
889.937561,1361
890.054199,1385
890.170837,1385
890.287598,1371
890.404236,1393
890.520874,1397
890.637634,1389
890.754211,1366
890.87085,1379
890.987549,1343
891.104187,1371
891.220886,1368
891.337463,1396
891.454102,1383
891.57074,1338
891.687378,1438
891.804077,1443
891.920654,1352
892.037231,1390
892.15387,1397
892.270447,1411
892.387085,1384
892.503723,1374
892.6203,1366
892.736877,1352
892.853516,1320
892.970032,1376
893.08667,1358
893.203186,1371
893.319763,1355
893.43634,1390
893.552917,1372
893.669556,1363
893.786011,1360
893.902588,1401
894.019165,1345
894.135681,1376
894.252197,1397
894.368835,1404
894.485291,1347
894.601868,1363
894.718384,1385
894.8349,1354
894.951355,1432
895.067932,1332
895.184448,1392
895.300964,1382
895.417419,1358
895.533936,1368
895.650452,1355
895.766907,1396
895.883423,1347
895.999878,1371
896.116333,1384
896.232849,1398
896.349304,1384
896.465759,1444
896.582214,1386
896.698669,1398
896.815125,1359
896.931641,1394
897.048035,1422
897.164551,1407
897.280884,1390
897.397339,1357
897.513794,1403
897.630249,1395
897.746582,1362
897.863098,1393
897.979431,1378
898.095886,1364
898.212341,1405
898.328674,1379
898.445129,1377
898.561462,1387
898.677795,1402
898.794312,1402
898.910645,1380
899.026978,1384
899.143433,1435
899.259766,1370
899.37616,1382
899.492493,1389
899.608765,1389
899.725159,1446
899.841553,1377
899.957947,1389
900.07428,1403
900.190552,1374
900.306946,1442
900.423157,1411
900.53949,1409
900.655884,1387
900.772156,1422
900.888489,1367
901.004822,1387
901.121033,1427
901.237366,1391
901.353699,1386
901.46991,1425
901.586304,1437
901.702515,1360
901.818787,1440
901.93512,1394
902.051331,1429
902.167603,1464
902.283875,1471
902.400085,1418
902.516418,1439
902.632629,1469
902.74884,1465
902.865112,1501
902.981384,1493
903.097595,1508
903.213867,1497
903.330017,1432
903.446289,1451
903.5625,1458
903.67865,1442
903.794922,1458
903.911072,1444
904.027344,1441
904.143494,1408
904.259705,1440
904.375916,1432
904.492065,1457
904.608215,1472
904.724426,1402
904.840576,1396
904.956726,1385
905.072876,1442
905.189087,1415
905.305176,1407
905.421387,1392
905.537537,1414
905.653687,1383
905.769775,1438
905.885925,1417
906.002014,1412
906.118164,1419
906.234314,1389
906.350403,1411
906.466492,1413
906.582642,1437
906.69873,1398
906.814758,1402
906.930908,1425
907.046936,1409
907.163086,1437
907.279175,1410
907.395264,1387
907.511353,1407
907.62738,1411
907.743408,1406
907.859497,1399
907.975525,1425
908.091553,1408
908.207703,1413
908.32373,1418
908.439758,1406
908.555786,1407
908.671814,1440
908.787842,1426
908.90387,1446
909.019775,1396
909.135864,1399
909.251892,1442
909.367859,1420
909.483826,1386
909.599854,1392
909.715881,1397
909.831848,1410
909.947815,1385
910.063782,1455
910.179749,1405
910.295776,1427
910.411743,1410
910.527649,1455
910.643616,1414
910.759583,1446
910.875488,1415
910.991455,1447
911.107361,1426
911.223267,1442
911.339294,1421
911.4552,1383
911.571106,1393
911.687073,1400
911.802979,1409
911.918823,1455
912.034729,1414
912.150635,1363
912.266602,1424
912.382446,1394
912.498352,1402
912.614197,1408
912.730103,1360
912.846008,1375
792.44574,2217
792.56488,2206
792.68396,2218
792.80304,2163
792.92218,2102
793.041199,2001
793.160339,2068
793.279419,2062
793.398499,2039
793.517578,2014
793.636658,2001
793.755737,1983
793.874817,1965
793.993896,1960
794.112976,1934
794.232056,1888
794.351074,1894
794.470215,1903
794.589233,1878
794.708313,1855
794.827393,1848
794.946411,1840
795.065552,1875
795.18457,1807
795.303589,1849
795.422668,1824
795.541687,1818
795.660767,1794
795.779846,1769
795.898865,1835
796.017883,1760
796.136963,1766
796.255981,1749
796.375061,1789
796.49408,1748
796.613037,1766
796.732117,1733
796.851135,1728
796.970154,1795
797.089233,1756
797.208191,1745
797.327271,1710
797.446228,1716
797.565186,1723
797.684265,1703
797.803223,1735
797.922241,1700
798.04126,1688
798.160278,1687
798.279297,1672
798.398315,1693
798.517273,1693
798.636292,1708
798.75531,1717
798.874268,1689
798.993286,1708
799.112244,1674
799.231323,1655
799.350281,1670
799.469238,1631
799.588257,1732
799.707153,1657
799.826111,1640
799.945129,1639
800.064087,1692
800.183044,1669
800.302063,1645
800.421021,1652
800.539978,1671
800.658936,1633
800.777893,1625
800.896912,1645
801.015747,1627
801.134705,1640
801.253723,1615
801.37262,1582
801.491638,1607
801.610535,1593
801.729492,1640
801.84845,1632
801.967407,1659
802.086243,1599
802.205261,1603
802.324158,1634
802.443115,1621
802.562073,1620
802.680969,1621
802.799927,1637
802.918762,1609
803.037659,1620
803.156677,1599
803.275574,1584
803.39447,1582
803.513428,1570
803.632263,1584
803.751221,1580
803.870117,1622
803.989014,1587
804.107971,1582
804.226746,1601
804.345642,1600
804.4646,1556
804.583496,1571
804.702393,1561
804.821228,1578
804.940125,1593
805.059021,1554
805.177917,1599
805.296814,1545
805.415649,1576
805.534546,1614
805.653442,1593
805.772278,1580
805.891113,1566
806.01001,1588
806.128906,1590
806.247742,1567
806.366577,1554
806.485413,1561
806.604309,1634
806.723145,1569
806.84198,1566
806.960876,1600
807.079712,1521
807.198486,1570
807.317383,1538
807.436218,1583
807.554993,1612
807.673889,1591
807.792725,1575
807.91156,1553
808.030396,1582
808.14917,1612
808.268005,1582
808.386841,1569
808.505676,1604
808.624451,1553
808.743286,1556
808.862122,1560
808.980896,1583
809.099731,1555
809.218506,1591
809.337341,1580
809.456116,1541
809.57489,1615
809.693726,1587
809.8125,1534
809.931274,1595
810.050049,1554
810.168884,1579
810.287659,1613
810.406372,1567
810.525269,1611
810.643982,1570
810.762756,1569
810.881531,1512
811.000305,1538
811.11908,1610
811.237854,1586
811.356567,1521
811.475403,1567
811.594116,1524
811.71283,1552
811.831604,1533
811.950378,1564
812.069153,1565
812.187927,1612
812.30658,1595
812.425415,1546
812.544128,1568
812.662781,1584
812.781616,1568
812.900269,1625
813.019043,1540
813.137756,1503
813.256531,1606
813.375244,1579
813.493896,1593
813.612671,1571
813.731384,1552
813.850037,1526
813.96875,1547
814.087524,1541
814.206238,1553
814.324951,1544
814.443604,1564
814.562256,1566
814.68103,1545
814.799683,1540
814.918335,1540
815.037109,1534
815.155762,1574
815.274475,1540
815.393188,1521
815.511841,1535
815.630554,1498
815.749146,1524
815.867859,1489
815.986572,1511
816.105164,1529
816.223877,1476
816.342529,1496
816.461182,1581
816.579895,1511
816.698486,1540
816.817139,1535
816.935791,1528
817.054504,1500
817.173096,1508
817.291748,1543
817.4104,1510
817.529053,1519
817.647644,1491
817.766235,1480
817.884949,1478
818.00354,1523
818.122192,1520
818.240845,1487
818.359436,1477
818.478088,1468
818.59668,1482
818.715271,1476
818.833923,1445
818.952515,1508
819.071106,1420
819.189758,1440
819.30835,1420
819.426941,1429
819.545532,1416
819.664124,1445
819.782715,1421
819.901306,1453
820.019897,1422
820.138489,1426
820.25708,1413
820.375671,1432
820.494202,1464
820.612732,1469
820.731384,1424
820.849915,1440
820.968506,1436
821.087097,1398
821.205627,1447
821.324158,1417
821.442749,1431
821.561279,1455
821.679871,1413
821.798401,1395
821.916931,1450
822.035461,1417
822.154053,1437
822.272583,1405
822.391174,1403
822.509583,1432
822.628174,1404
822.746704,1433
822.865234,1412
822.983765,1394
823.102295,1393
823.220825,1399
823.339294,1407
823.457825,1397
823.576355,1403
823.694824,1388
823.813354,1443
823.931885,1375
824.050354,1433
824.168884,1395
824.287354,1398
824.405823,1387
824.524353,1424
824.642822,1403
824.761353,1397
824.879822,1394
824.998291,1400
825.116699,1380
825.235291,1425
825.353699,1426
825.472168,1394
825.590637,1434
825.709106,1423
825.827576,1417
825.946045,1360
826.064453,1438
826.182983,1331
826.301392,1393
826.4198,1358
826.53833,1439
826.656738,1377
826.775208,1367
826.893677,1399
827.012024,1329
827.130493,1395
827.248962,1380
827.36731,1391
827.485779,1391
827.604248,1360
827.722595,1357
827.841064,1341
827.959412,1355
828.077942,1361
828.196289,1315
828.314636,1340
828.433105,1386
828.551514,1342
828.669861,1387
828.78833,1343
828.906677,1352
829.025085,1378
829.143433,1378
829.261841,1327
829.38031,1379
829.498657,1364
829.617004,1359
829.735413,1351
829.85376,1324
829.972107,1346
830.090515,1362
830.208862,1373
830.327209,1339
830.445557,1369
830.563904,1340
830.682312,1346
830.800659,1382
830.919006,1358
831.037354,1324
831.155701,1411
831.274048,1401
831.392395,1342
831.51062,1341
831.629028,1412
831.747314,1364
831.865662,1324
831.984009,1331
832.102356,1362
832.220642,1337
832.338928,1381
832.457275,1386
832.575623,1383
832.693909,1391
832.812134,1398
832.930481,1366
833.048828,1383
833.167114,1341
833.2854,1361
833.403687,1316
833.521973,1347
833.640259,1385
833.758545,1341
833.876831,1376
833.995056,1341
834.113281,1361
834.231628,1389
834.349915,1372
834.468201,1326
834.586426,1328
834.704651,1379
834.822998,1361
834.941162,1394
835.059448,1360
835.177673,1357
835.295959,1372
835.414246,1362
835.53241,1328
835.650635,1370
835.768921,1345
835.887146,1356
836.005371,1341
836.123596,1350
836.241821,1343
836.360046,1319
836.478271,1345
836.596497,1367
836.714722,1352
836.832886,1339
836.95105,1364
837.069336,1361
837.1875,1375
837.305725,1338
837.423889,1328
837.542053,1383
837.660339,1418
837.778503,1366
837.896667,1372
838.014832,1364
838.132996,1381
838.25116,1349
838.369385,1374
838.487488,1350
838.605713,1401
838.723877,1355
838.84198,1375
838.960205,1381
839.078308,1382
839.196472,1371
839.314636,1320
839.4328,1380
839.550964,1372
839.669067,1335
839.787231,1354
839.905396,1400
840.023499,1415
840.141602,1411
840.259766,1349
840.377869,1395
840.495972,1392
840.614136,1377
840.732239,1377
840.850342,1354
840.968445,1383
841.086548,1353
841.204651,1379
841.322754,1403
841.440918,1392
841.55896,1383
841.677002,1379
841.795166,1407
841.913208,1354
842.031311,1402
842.149353,1351
842.267456,1412
842.385498,1382
842.503601,1398
842.621643,1362
842.739746,1375
842.857788,1401
842.97583,1367
843.093933,1371
843.211975,1397
843.330017,1389
843.44812,1405
843.566101,1377
843.684204,1424
843.802246,1385
843.920227,1399
844.038269,1436
844.156311,1394
844.274292,1358
844.392395,1426
844.510376,1358
844.628357,1393
844.74646,1393
844.864441,1365
844.982422,1412
845.100403,1386
845.218384,1352
845.336426,1344
845.454468,1374
845.572449,1390
845.69043,1344
845.808411,1367
845.926453,1366
846.044373,1348
846.162354,1383
846.280396,1387
846.398315,1361
846.516296,1400
846.634216,1378
846.752197,1369
846.870178,1426
846.988098,1374
847.106079,1414
847.22406,1374
847.34198,1393
847.4599,1330
847.577881,1355
847.695801,1349
847.813782,1379
847.931641,1335
848.049561,1377
848.167603,1336
848.285461,1388
848.403381,1383
848.521362,1393
848.639221,1351
848.75708,1400
848.875,1399
848.99292,1399
849.110901,1397
849.22876,1385
849.34668,1383
849.464539,1423
849.582458,1342
849.700317,1423
849.818176,1402
849.936096,1367
850.053955,1426
850.171875,1367
850.289673,1389
850.407593,1381
850.525452,1392
850.643311,1322
850.761169,1384
850.878967,1385
850.996887,1382
851.114746,1371
851.232544,1410
851.350403,1393
851.468262,1366
851.58606,1369
851.703979,1391
851.821777,1400
851.939636,1409
852.057434,1340
852.175232,1406
852.293091,1403
852.410889,1399
852.528687,1407
852.646545,1438
852.764343,1419
852.88208,1384
852.999939,1404
853.117676,1366
853.235535,1377
853.353271,1440
853.471069,1392
853.588928,1365
853.706604,1391
853.824402,1364
853.9422,1387
854.059998,1359
854.177734,1387
854.295532,1383
854.413269,1370
854.531006,1345
854.648804,1409
854.766541,1375
854.884277,1384
855.002014,1376
855.119751,1332
855.237549,1398
855.355225,1378
855.473022,1374
855.590698,1436
855.708435,1386
855.826172,1357
855.943848,1423
856.061646,1321
856.179321,1332
856.296997,1356
856.414795,1392
856.53241,1357
856.650085,1412
856.767822,1403
856.885559,1404
857.003174,1403
857.120911,1395
857.238586,1389
857.356201,1404
857.473938,1411
857.591614,1384
857.709351,1398
857.826965,1384
857.944641,1378
858.062317,1389
858.179993,1421
858.297668,1355
858.415283,1398
858.532959,1400
858.650574,1419
858.768188,1424
858.885803,1406
859.003479,1423
859.121094,1402
859.23877,1425
859.356384,1375
859.473999,1367
859.591675,1374
859.709229,1368
859.826843,1391
859.944458,1378
860.062012,1372
860.179626,1357
860.297302,1390
860.414856,1345
860.532471,1397
860.650024,1370
860.767639,1364
860.885193,1399
861.002808,1347
861.120361,1325
861.237976,1375
861.35553,1365
861.473022,1401
861.590698,1419
861.708191,1419
861.825745,1360
861.943298,1364
862.060852,1351
862.178406,1398
862.295959,1344
862.413513,1389
862.531006,1322
862.64856,1345
862.766113,1387
862.883667,1312
863.00116,1346
863.118713,1371
863.236206,1345
863.353699,1374
863.471252,1353
863.588745,1377
863.706177,1379
863.82373,1341
863.941162,1390
864.058716,1351
864.176208,1406
864.29364,1371
864.411194,1401
864.528687,1367
864.646118,1380
864.763611,1391
864.881042,1350
864.998535,1327
865.116028,1374
865.233459,1386
865.350891,1340
865.468384,1370
865.585754,1359
865.703308,1407
865.820679,1355
865.938171,1368
866.055542,1370
866.173035,1382
866.290466,1344
866.407837,1393
866.52533,1338
866.6427,1368
866.760071,1403
866.877563,1351
866.994934,1402
867.112305,1404
867.229736,1354
867.347107,1357
867.464539,1388
867.58197,1399
867.699341,1404
867.81665,1359
867.934082,1356
868.051453,1365
868.168823,1388
868.286194,1384
868.403564,1370
868.520935,1351
868.638306,1391
868.755676,1381
868.872986,1386
868.990295,1390
869.107727,1360
869.225037,1398
869.342346,1383
869.459717,1355
869.577026,1399
869.694336,1408
869.811707,1400
869.929016,1378
870.046326,1401
870.163635,1404
870.280945,1426
870.398254,1377
870.515564,1395
870.632812,1387
870.750183,1391
870.867432,1424
870.984741,1422
871.102051,1394
871.219299,1407
871.336609,1411
871.453918,1431
871.571106,1414
871.688416,1384
871.805664,1414
871.922852,1437
872.040222,1421
872.157471,1437
872.274719,1403
872.391968,1425
872.509155,1432
872.626465,1433
872.743652,1378
872.860962,1419
872.978149,1419
873.095337,1393
873.212646,1419
873.329834,1414
873.44696,1403
873.564209,1415
873.681396,1400
873.798645,1407
873.915894,1400
874.03302,1412
874.150208,1429
874.267456,1418
874.384583,1406
874.501831,1484
874.618958,1442
874.736145,1433
874.853333,1382
874.970459,1471
875.087646,1435
875.204834,1432
875.32196,1433
875.439148,1400
875.556274,1413
875.673401,1406
875.790527,1392
875.907715,1400
876.024841,1385
876.141968,1416
876.259094,1391
876.376282,1415
876.493347,1445
876.610474,1412
876.7276,1387
876.844727,1397
876.961853,1401
877.078918,1409
877.195984,1408
877.313171,1387
877.430237,1398
877.547302,1415
877.664368,1403
877.781433,1412
877.898499,1416
878.015625,1369
878.13269,1407
878.249695,1427
878.366821,1370
878.483887,1371
878.600952,1377
878.717957,1384
878.834961,1437
878.952087,1374
879.069092,1373
879.186157,1376
879.303162,1395
879.420227,1373
879.537231,1389
879.654236,1359
879.77124,1364
879.888306,1372
880.005249,1408
880.122314,1388
880.239319,1358
880.356323,1369
880.473328,1352
880.590271,1398
880.707275,1382
880.824341,1406
880.941284,1383
881.058228,1402
881.175232,1422
881.292236,1377
881.40918,1381
881.526123,1365
881.643066,1351
881.760071,1407
881.877014,1388
881.993958,1359
882.11084,1385
882.227783,1362
882.344727,1374
882.46167,1406
882.578613,1405
882.695618,1398
882.812439,1397
882.929382,1382
883.046326,1371
883.163208,1398
883.280151,1375
883.397034,1379
883.513916,1416
883.630798,1397
883.747742,1371
883.864563,1349
883.981506,1380
884.098389,1381
884.21521,1382
884.332153,1416
884.448975,1426
884.565796,1379
884.682678,1425
884.7995,1440
884.916443,1463
885.033264,1504
885.150085,1525
885.266968,1522
885.383789,1458
885.500671,1486
885.617493,1557
885.734314,1533
885.851196,1508
885.967896,1481
886.084717,1489
886.201599,1496
886.318359,1480
886.435181,1459
886.552002,1531
886.668762,1521
886.785645,1506
886.902344,1452
887.019165,1468
887.135925,1479
887.252747,1444
887.369446,1482
887.486267,1444
887.603027,1430
887.719788,1445
887.836548,1479
887.953247,1409
888.070068,1442
888.186829,1415
888.303528,1429
888.420288,1406
888.536987,1446
888.653687,1407
888.770447,1436
888.887146,1410
889.003967,1417
889.120667,1393
889.237305,1389
889.354065,1391
889.470703,1406
889.587463,1354
889.704163,1378
889.820862,1369
889.937561,1401
890.054199,1401
890.170837,1407
890.287598,1368
890.404236,1425
890.520874,1319
890.637634,1383
890.754211,1417
890.87085,1397
890.987549,1422
891.104187,1414
891.220886,1391
891.337463,1435
891.454102,1339
891.57074,1402
891.687378,1416
891.804077,1409
891.920654,1442
892.037231,1428
892.15387,1454
892.270447,1403
892.387085,1446
892.503723,1411
892.6203,1406
892.736877,1416
892.853516,1398
892.970032,1400
893.08667,1415
893.203186,1411
893.319763,1393
893.43634,1401
893.552917,1414
893.669556,1417
893.786011,1388
893.902588,1408
894.019165,1385
894.135681,1397
894.252197,1417
894.368835,1424
894.485291,1395
894.601868,1402
894.718384,1423
894.8349,1444
894.951355,1414
895.067932,1429
895.184448,1444
895.300964,1382
895.417419,1399
895.533936,1364
895.650452,1427
895.766907,1412
895.883423,1397
895.999878,1401
896.116333,1414
896.232849,1420
896.349304,1376
896.465759,1450
896.582214,1437
896.698669,1407
896.815125,1395
896.931641,1396
897.048035,1404
897.164551,1399
897.280884,1429
897.397339,1388
897.513794,1429
897.630249,1433
897.746582,1425
897.863098,1449
897.979431,1412
898.095886,1416
898.212341,1418
898.328674,1432
898.445129,1445
898.561462,1438
898.677795,1436
898.794312,1445
898.910645,1398
899.026978,1451
899.143433,1432
899.259766,1400
899.37616,1388
899.492493,1405
899.608765,1442
899.725159,1446
899.841553,1421
899.957947,1451
900.07428,1416
900.190552,1415
900.306946,1414
900.423157,1428
900.53949,1414
900.655884,1456
900.772156,1411
900.888489,1445
901.004822,1440
901.121033,1429
901.237366,1457
901.353699,1394
901.46991,1429
901.586304,1442
901.702515,1438
901.818787,1423
901.93512,1485
902.051331,1478
902.167603,1475
902.283875,1490
902.400085,1475
902.516418,1470
902.632629,1483
902.74884,1485
902.865112,1499
902.981384,1490
903.097595,1458
903.213867,1462
903.330017,1542
903.446289,1475
903.5625,1493
903.67865,1476
903.794922,1498
903.911072,1496
904.027344,1505
904.143494,1450
904.259705,1498
904.375916,1434
904.492065,1415
904.608215,1442
904.724426,1457
904.840576,1450
904.956726,1462
905.072876,1466
905.189087,1436
905.305176,1452
905.421387,1459
905.537537,1432
905.653687,1446
905.769775,1449
905.885925,1432
906.002014,1409
906.118164,1461
906.234314,1420
906.350403,1435
906.466492,1455
906.582642,1414
906.69873,1488
906.814758,1433
906.930908,1432
907.046936,1449
907.163086,1444
907.279175,1453
907.395264,1438
907.511353,1439
907.62738,1444
907.743408,1463
907.859497,1433
907.975525,1422
908.091553,1475
908.207703,1449
908.32373,1482
908.439758,1451
908.555786,1430
908.671814,1432
908.787842,1459
908.90387,1475
909.019775,1404
909.135864,1458
909.251892,1467
909.367859,1480
909.483826,1469
909.599854,1484
909.715881,1435
909.831848,1431
909.947815,1473
910.063782,1422
910.179749,1474
910.295776,1444
910.411743,1476
910.527649,1437
910.643616,1455
910.759583,1453
910.875488,1503
910.991455,1412
911.107361,1424
911.223267,1433
911.339294,1432
911.4552,1438
911.571106,1426
911.687073,1478
911.802979,1458
911.918823,1448
912.034729,1450
912.150635,1429
912.266602,1479
912.382446,1463
912.498352,1453
912.614197,1405
912.730103,1411
912.846008,1425
792.44574,2245
792.56488,2223
792.68396,2220
792.80304,2138
792.92218,2073
793.041199,2097
793.160339,2041
793.279419,2087
793.398499,2089
793.517578,1961
793.636658,1963
793.755737,1987
793.874817,2038
793.993896,1939
794.112976,1926
794.232056,1957
794.351074,1878
794.470215,1910
794.589233,1877
794.708313,1892
794.827393,1848
794.946411,1841
795.065552,1845
795.18457,1866
795.303589,1835
795.422668,1887
795.541687,1868
795.660767,1836
795.779846,1825
795.898865,1790
796.017883,1800
796.136963,1785
796.255981,1791
796.375061,1738
796.49408,1781
796.613037,1782
796.732117,1738
796.851135,1769
796.970154,1734
797.089233,1757
797.208191,1721
797.327271,1730
797.446228,1736
797.565186,1710
797.684265,1752
797.803223,1721
797.922241,1655
798.04126,1729
798.160278,1696
798.279297,1741
798.398315,1726
798.517273,1695
798.636292,1665
798.75531,1673
798.874268,1670
798.993286,1746
799.112244,1640
799.231323,1689
799.350281,1679
799.469238,1650
799.588257,1635
799.707153,1669
799.826111,1654
799.945129,1661
800.064087,1666
800.183044,1655
800.302063,1672
800.421021,1713
800.539978,1662
800.658936,1633
800.777893,1637
800.896912,1641
801.015747,1669
801.134705,1653
801.253723,1656
801.37262,1641
801.491638,1654
801.610535,1634
801.729492,1602
801.84845,1606
801.967407,1582
802.086243,1590
802.205261,1621
802.324158,1585
802.443115,1603
802.562073,1607
802.680969,1615
802.799927,1621
802.918762,1618
803.037659,1613
803.156677,1613
803.275574,1592
803.39447,1592
803.513428,1616
803.632263,1602
803.751221,1609
803.870117,1642
803.989014,1600
804.107971,1576
804.226746,1619
804.345642,1589
804.4646,1583
804.583496,1589
804.702393,1609
804.821228,1567
804.940125,1608
805.059021,1588
805.177917,1578
805.296814,1605
805.415649,1620
805.534546,1629
805.653442,1541
805.772278,1579
805.891113,1611
806.01001,1628
806.128906,1603
806.247742,1602
806.366577,1570
806.485413,1603
806.604309,1600
806.723145,1615
806.84198,1599
806.960876,1553
807.079712,1580
807.198486,1647
807.317383,1574
807.436218,1599
807.554993,1593
807.673889,1601
807.792725,1544
807.91156,1575
808.030396,1546
808.14917,1563
808.268005,1561
808.386841,1571
808.505676,1537
808.624451,1586
808.743286,1582
808.862122,1564
808.980896,1586
809.099731,1569
809.218506,1561
809.337341,1531
809.456116,1606
809.57489,1570
809.693726,1583
809.8125,1591
809.931274,1560
810.050049,1544
810.168884,1532
810.287659,1618
810.406372,1562
810.525269,1580
810.643982,1609
810.762756,1541
810.881531,1583
811.000305,1615
811.11908,1542
811.237854,1522
811.356567,1527
811.475403,1615
811.594116,1578
811.71283,1558
811.831604,1548
811.950378,1589
812.069153,1570
812.187927,1615
812.30658,1566
812.425415,1574
812.544128,1552
812.662781,1573
812.781616,1584
812.900269,1590
813.019043,1558
813.137756,1619
813.256531,1582
813.375244,1607
813.493896,1530
813.612671,1585
813.731384,1541
813.850037,1549
813.96875,1553
814.087524,1572
814.206238,1564
814.324951,1559
814.443604,1506
814.562256,1565
814.68103,1566
814.799683,1553
814.918335,1559
815.037109,1581
815.155762,1571
815.274475,1531
815.393188,1509
815.511841,1541
815.630554,1527
815.749146,1568
815.867859,1519
815.986572,1521
816.105164,1522
816.223877,1497
816.342529,1532
816.461182,1540
816.579895,1522
816.698486,1533
816.817139,1596
816.935791,1489
817.054504,1565
817.173096,1532
817.291748,1530
817.4104,1512
817.529053,1506
817.647644,1543
817.766235,1495
817.884949,1498
818.00354,1506
818.122192,1473
818.240845,1493
818.359436,1466
818.478088,1494
818.59668,1510
818.715271,1471
818.833923,1485
818.952515,1444
819.071106,1435
819.189758,1473
819.30835,1443
819.426941,1443
819.545532,1400
819.664124,1401
819.782715,1437
819.901306,1398
820.019897,1469
820.138489,1456
820.25708,1426
820.375671,1408
820.494202,1433
820.612732,1437
820.731384,1433
820.849915,1455
820.968506,1424
821.087097,1435
821.205627,1412
821.324158,1426
821.442749,1436
821.561279,1434
821.679871,1395
821.798401,1406
821.916931,1407
822.035461,1471
822.154053,1446
822.272583,1399
822.391174,1410
822.509583,1455
822.628174,1409
822.746704,1436
822.865234,1428
822.983765,1396
823.102295,1431
823.220825,1405
823.339294,1395
823.457825,1377
823.576355,1398
823.694824,1372
823.813354,1428
823.931885,1427
824.050354,1421
824.168884,1383
824.287354,1413
824.405823,1392
824.524353,1417
824.642822,1423
824.761353,1392
824.879822,1388
824.998291,1424
825.116699,1397
825.235291,1396
825.353699,1435
825.472168,1397
825.590637,1432
825.709106,1389
825.827576,1391
825.946045,1395
826.064453,1402
826.182983,1408
826.301392,1413
826.4198,1358
826.53833,1364
826.656738,1377
826.775208,1351
826.893677,1330
827.012024,1406
827.130493,1368
827.248962,1418
827.36731,1357
827.485779,1404
827.604248,1402
827.722595,1372
827.841064,1374
827.959412,1356
828.077942,1373
828.196289,1397
828.314636,1391
828.433105,1374
828.551514,1380
828.669861,1341
828.78833,1389
828.906677,1378
829.025085,1355
829.143433,1323
829.261841,1378
829.38031,1355
829.498657,1355
829.617004,1337
829.735413,1370
829.85376,1343
829.972107,1355
830.090515,1368
830.208862,1395
830.327209,1376
830.445557,1353
830.563904,1385
830.682312,1367
830.800659,1357
830.919006,1384
831.037354,1352
831.155701,1394
831.274048,1399
831.392395,1391
831.51062,1354
831.629028,1314
831.747314,1376
831.865662,1366
831.984009,1383
832.102356,1366
832.220642,1367
832.338928,1383
832.457275,1369
832.575623,1355
832.693909,1345
832.812134,1395
832.930481,1367
833.048828,1376
833.167114,1370
833.2854,1410
833.403687,1393
833.521973,1384
833.640259,1352
833.758545,1370
833.876831,1367
833.995056,1329
834.113281,1350
834.231628,1320
834.349915,1371
834.468201,1367
834.586426,1368
834.704651,1360
834.822998,1322
834.941162,1401
835.059448,1357
835.177673,1361
835.295959,1418
835.414246,1342
835.53241,1407
835.650635,1390
835.768921,1326
835.887146,1360
836.005371,1360
836.123596,1362
836.241821,1343
836.360046,1348
836.478271,1370
836.596497,1339
836.714722,1367
836.832886,1365
836.95105,1336
837.069336,1385
837.1875,1358
837.305725,1390
837.423889,1381
837.542053,1391
837.660339,1392
837.778503,1386
837.896667,1369
838.014832,1375
838.132996,1343
838.25116,1383
838.369385,1366
838.487488,1354
838.605713,1366
838.723877,1349
838.84198,1362
838.960205,1362
839.078308,1340
839.196472,1357
839.314636,1369
839.4328,1350
839.550964,1373
839.669067,1381
839.787231,1386
839.905396,1373
840.023499,1378
840.141602,1391
840.259766,1380
840.377869,1361
840.495972,1377
840.614136,1424
840.732239,1363
840.850342,1395
840.968445,1408
841.086548,1378
841.204651,1409
841.322754,1413
841.440918,1408
841.55896,1381
841.677002,1358
841.795166,1404
841.913208,1367
842.031311,1393
842.149353,1414
842.267456,1380
842.385498,1380
842.503601,1451
842.621643,1407
842.739746,1381
842.857788,1387
842.97583,1411
843.093933,1382
843.211975,1405
843.330017,1390
843.44812,1391
843.566101,1398
843.684204,1381
843.802246,1341
843.920227,1407
844.038269,1398
844.156311,1399
844.274292,1390
844.392395,1435
844.510376,1380
844.628357,1408
844.74646,1364
844.864441,1352
844.982422,1375
845.100403,1400
845.218384,1366
845.336426,1401
845.454468,1350
845.572449,1368
845.69043,1373
845.808411,1339
845.926453,1334
846.044373,1346
846.162354,1331
846.280396,1354
846.398315,1388
846.516296,1400
846.634216,1375
846.752197,1380
846.870178,1375
846.988098,1378
847.106079,1402
847.22406,1368
847.34198,1380
847.4599,1372
847.577881,1380
847.695801,1353
847.813782,1381
847.931641,1358
848.049561,1384
848.167603,1356
848.285461,1365
848.403381,1378
848.521362,1364
848.639221,1437
848.75708,1424
848.875,1374
848.99292,1398
849.110901,1422
849.22876,1357
849.34668,1375
849.464539,1408
849.582458,1353
849.700317,1402
849.818176,1372
849.936096,1379
850.053955,1430
850.171875,1409
850.289673,1387
850.407593,1384
850.525452,1376
850.643311,1384
850.761169,1375
850.878967,1403
850.996887,1411
851.114746,1388
851.232544,1421
851.350403,1368
851.468262,1414
851.58606,1414
851.703979,1376
851.821777,1365
851.939636,1397
852.057434,1397
852.175232,1366
852.293091,1399
852.410889,1405
852.528687,1358
852.646545,1485
852.764343,1411
852.88208,1425
852.999939,1399
853.117676,1405
853.235535,1400
853.353271,1395
853.471069,1364
853.588928,1398
853.706604,1358
853.824402,1382
853.9422,1366
854.059998,1368
854.177734,1449
854.295532,1361
854.413269,1377
854.531006,1393
854.648804,1393
854.766541,1411
854.884277,1364
855.002014,1403
855.119751,1376
855.237549,1358
855.355225,1370
855.473022,1420
855.590698,1323
855.708435,1346
855.826172,1407
855.943848,1397
856.061646,1343
856.179321,1388
856.296997,1367
856.414795,1391
856.53241,1308
856.650085,1379
856.767822,1382
856.885559,1380
857.003174,1402
857.120911,1387
857.238586,1414
857.356201,1412
857.473938,1404
857.591614,1393
857.709351,1400
857.826965,1390
857.944641,1393
858.062317,1425
858.179993,1432
858.297668,1388
858.415283,1383
858.532959,1413
858.650574,1392
858.768188,1420
858.885803,1413
859.003479,1367
859.121094,1413
859.23877,1362
859.356384,1410
859.473999,1388
859.591675,1421
859.709229,1394
859.826843,1398
859.944458,1386
860.062012,1375
860.179626,1386
860.297302,1366
860.414856,1373
860.532471,1368
860.650024,1391
860.767639,1382
860.885193,1376
861.002808,1344
861.120361,1391
861.237976,1365
861.35553,1417
861.473022,1358
861.590698,1362
861.708191,1359
861.825745,1382
861.943298,1385
862.060852,1361
862.178406,1403
862.295959,1372
862.413513,1370
862.531006,1360
862.64856,1374
862.766113,1384
862.883667,1385
863.00116,1393
863.118713,1370
863.236206,1391
863.353699,1340
863.471252,1385
863.588745,1307
863.706177,1430
863.82373,1392
863.941162,1370
864.058716,1390
864.176208,1372
864.29364,1357
864.411194,1374
864.528687,1384
864.646118,1394
864.763611,1384
864.881042,1362
864.998535,1400
865.116028,1376
865.233459,1341
865.350891,1377
865.468384,1367
865.585754,1391
865.703308,1371
865.820679,1398
865.938171,1338
866.055542,1331
866.173035,1366
866.290466,1390
866.407837,1360
866.52533,1351
866.6427,1360
866.760071,1392
866.877563,1377
866.994934,1368
867.112305,1383
867.229736,1360
867.347107,1366
867.464539,1405
867.58197,1382
867.699341,1352
867.81665,1406
867.934082,1380
868.051453,1394
868.168823,1371
868.286194,1342
868.403564,1411
868.520935,1385
868.638306,1403
868.755676,1399
868.872986,1411
868.990295,1359
869.107727,1411
869.225037,1358
869.342346,1375
869.459717,1381
869.577026,1449
869.694336,1374
869.811707,1362
869.929016,1368
870.046326,1398
870.163635,1393
870.280945,1435
870.398254,1395
870.515564,1452
870.632812,1394
870.750183,1416
870.867432,1377
870.984741,1409
871.102051,1375
871.219299,1451
871.336609,1442
871.453918,1399
871.571106,1439
871.688416,1412
871.805664,1412
871.922852,1437
872.040222,1432
872.157471,1404
872.274719,1437
872.391968,1444
872.509155,1440
872.626465,1424
872.743652,1402
872.860962,1436
872.978149,1432
873.095337,1466
873.212646,1409
873.329834,1422
873.44696,1411
873.564209,1422
873.681396,1461
873.798645,1431
873.915894,1435
874.03302,1403
874.150208,1434
874.267456,1456
874.384583,1482
874.501831,1419
874.618958,1460
874.736145,1477
874.853333,1417
874.970459,1449
875.087646,1457
875.204834,1430
875.32196,1401
875.439148,1405
875.556274,1474
875.673401,1427
875.790527,1455
875.907715,1429
876.024841,1447
876.141968,1430
876.259094,1415
876.376282,1399
876.493347,1431
876.610474,1382
876.7276,1437
876.844727,1409
876.961853,1392
877.078918,1436
877.195984,1392
877.313171,1408
877.430237,1402
877.547302,1421
877.664368,1400
877.781433,1410
877.898499,1422
878.015625,1425
878.13269,1401
878.249695,1401
878.366821,1376
878.483887,1408
878.600952,1410
878.717957,1418
878.834961,1429
878.952087,1385
879.069092,1402
879.186157,1390
879.303162,1376
879.420227,1417
879.537231,1373
879.654236,1406
879.77124,1388
879.888306,1391
880.005249,1400
880.122314,1351
880.239319,1411
880.356323,1430
880.473328,1441
880.590271,1347
880.707275,1403
880.824341,1340
880.941284,1379
881.058228,1383
881.175232,1404
881.292236,1391
881.40918,1322
881.526123,1381
881.643066,1391
881.760071,1366
881.877014,1338
881.993958,1395
882.11084,1406
882.227783,1379
882.344727,1413
882.46167,1431
882.578613,1379
882.695618,1417
882.812439,1409
882.929382,1380
883.046326,1421
883.163208,1386
883.280151,1405
883.397034,1427
883.513916,1440
883.630798,1402
883.747742,1410
883.864563,1426
883.981506,1409
884.098389,1432
884.21521,1409
884.332153,1430
884.448975,1395
884.565796,1468
884.682678,1437
884.7995,1475
884.916443,1443
885.033264,1497
885.150085,1502
885.266968,1500
885.383789,1519
885.500671,1550
885.617493,1556
885.734314,1509
885.851196,1534
885.967896,1494
886.084717,1549
886.201599,1549
886.318359,1507
886.435181,1509
886.552002,1479
886.668762,1487
886.785645,1482
886.902344,1447
887.019165,1465
887.135925,1495
887.252747,1514
887.369446,1497
887.486267,1453
887.603027,1422
887.719788,1510
887.836548,1452
887.953247,1438
888.070068,1431
888.186829,1440
888.303528,1433
888.420288,1412
888.536987,1442
888.653687,1346
888.770447,1413
888.887146,1430
889.003967,1406
889.120667,1491
889.237305,1389
889.354065,1432
889.470703,1416
889.587463,1391
889.704163,1404
889.820862,1390
889.937561,1409
890.054199,1384
890.170837,1449
890.287598,1398
890.404236,1351
890.520874,1386
890.637634,1406
890.754211,1392
890.87085,1434
890.987549,1451
891.104187,1386
891.220886,1432
891.337463,1429
891.454102,1433
891.57074,1417
891.687378,1404
891.804077,1464
891.920654,1374
892.037231,1456
892.15387,1425
892.270447,1405
892.387085,1441
892.503723,1366
892.6203,1441
892.736877,1461
892.853516,1461
892.970032,1419
893.08667,1414
893.203186,1417
893.319763,1396
893.43634,1396
893.552917,1434
893.669556,1436
893.786011,1442
893.902588,1449
894.019165,1388
894.135681,1401
894.252197,1404
894.368835,1470
894.485291,1411
894.601868,1425
894.718384,1453
894.8349,1428
894.951355,1435
895.067932,1445
895.184448,1425
895.300964,1411
895.417419,1419
895.533936,1420
895.650452,1396
895.766907,1479
895.883423,1400
895.999878,1388
896.116333,1426
896.232849,1446
896.349304,1458
896.465759,1388
896.582214,1468
896.698669,1433
896.815125,1400
896.931641,1457
897.048035,1398
897.164551,1404
897.280884,1437
897.397339,1424
897.513794,1416
897.630249,1442
897.746582,1413
897.863098,1465
897.979431,1405
898.095886,1440
898.212341,1437
898.328674,1413
898.445129,1464
898.561462,1425
898.677795,1440
898.794312,1453
898.910645,1427
899.026978,1427
899.143433,1461
899.259766,1408
899.37616,1376
899.492493,1448
899.608765,1407
899.725159,1444
899.841553,1400
899.957947,1417
900.07428,1431
900.190552,1444
900.306946,1415
900.423157,1458
900.53949,1415
900.655884,1440
900.772156,1447
900.888489,1444
901.004822,1445
901.121033,1452
901.237366,1419
901.353699,1455
901.46991,1471
901.586304,1463
901.702515,1471
901.818787,1458
901.93512,1479
902.051331,1484
902.167603,1483
902.283875,1456
902.400085,1472
902.516418,1562
902.632629,1498
902.74884,1477
902.865112,1509
902.981384,1529
903.097595,1515
903.213867,1536
903.330017,1530
903.446289,1509
903.5625,1462
903.67865,1488
903.794922,1489
903.911072,1515
904.027344,1458
904.143494,1509
904.259705,1477
904.375916,1455
904.492065,1478
904.608215,1425
904.724426,1486
904.840576,1456
904.956726,1438
905.072876,1416
905.189087,1506
905.305176,1465
905.421387,1422
905.537537,1502
905.653687,1447
905.769775,1435
905.885925,1436
906.002014,1459
906.118164,1453
906.234314,1475
906.350403,1435
906.466492,1422
906.582642,1420
906.69873,1447
906.814758,1427
906.930908,1506
907.046936,1435
907.163086,1435
907.279175,1457
907.395264,1495
907.511353,1474
907.62738,1455
907.743408,1436
907.859497,1441
907.975525,1456
908.091553,1467
908.207703,1421
908.32373,1491
908.439758,1421
908.555786,1483
908.671814,1458
908.787842,1461
908.90387,1440
909.019775,1422
909.135864,1450
909.251892,1483
909.367859,1462
909.483826,1460
909.599854,1459
909.715881,1468
909.831848,1458
909.947815,1466
910.063782,1480
910.179749,1446
910.295776,1485
910.411743,1443
910.527649,1486
910.643616,1493
910.759583,1444
910.875488,1468
910.991455,1439
911.107361,1490
911.223267,1470
911.339294,1478
911.4552,1462
911.571106,1434
911.687073,1488
911.802979,1451
911.918823,1435
912.034729,1450
912.150635,1456
912.266602,1446
912.382446,1444
912.498352,1434
912.614197,1469
912.730103,1420
912.846008,1464
