792.44574,1551
792.56488,1549
792.68396,1567
792.80304,1572
792.92218,1481
793.041199,1511
793.160339,1516
793.279419,1517
793.398499,1477
793.517578,1492
793.636658,1492
793.755737,1501
793.874817,1535
793.993896,1515
794.112976,1496
794.232056,1437
794.351074,1512
794.470215,1474
794.589233,1463
794.708313,1453
794.827393,1463
794.946411,1463
795.065552,1459
795.18457,1454
795.303589,1478
795.422668,1457
795.541687,1448
795.660767,1432
795.779846,1454
795.898865,1401
796.017883,1439
796.136963,1425
796.255981,1448
796.375061,1463
796.49408,1417
796.613037,1482
796.732117,1463
796.851135,1471
796.970154,1379
797.089233,1434
797.208191,1420
797.327271,1436
797.446228,1450
797.565186,1464
797.684265,1452
797.803223,1424
797.922241,1459
798.04126,1440
798.160278,1411
798.279297,1453
798.398315,1424
798.517273,1448
798.636292,1434
798.75531,1424
798.874268,1467
798.993286,1457
799.112244,1418
799.231323,1449
799.350281,1459
799.469238,1408
799.588257,1412
799.707153,1410
799.826111,1454
799.945129,1401
800.064087,1415
800.183044,1450
800.302063,1441
800.421021,1438
800.539978,1438
800.658936,1377
800.777893,1408
800.896912,1429
801.015747,1403
801.134705,1419
801.253723,1407
801.37262,1373
801.491638,1416
801.610535,1386
801.729492,1396
801.84845,1438
801.967407,1430
802.086243,1410
802.205261,1406
802.324158,1402
802.443115,1448
802.562073,1383
802.680969,1433
802.799927,1446
802.918762,1385
803.037659,1369
803.156677,1431
803.275574,1451
803.39447,1419
803.513428,1375
803.632263,1436
803.751221,1404
803.870117,1433
803.989014,1418
804.107971,1399
804.226746,1376
804.345642,1407
804.4646,1367
804.583496,1357
804.702393,1417
804.821228,1393
804.940125,1398
805.059021,1363
805.177917,1409
805.296814,1394
805.415649,1416
805.534546,1413
805.653442,1372
805.772278,1419
805.891113,1446
806.01001,1408
806.128906,1423
806.247742,1396
806.366577,1434
806.485413,1419
806.604309,1402
806.723145,1391
806.84198,1399
806.960876,1403
807.079712,1395
807.198486,1416
807.317383,1359
807.436218,1396
807.554993,1398
807.673889,1368
807.792725,1362
807.91156,1384
808.030396,1412
808.14917,1353
808.268005,1390
808.386841,1431
808.505676,1344
808.624451,1375
808.743286,1373
808.862122,1408
808.980896,1381
809.099731,1374
809.218506,1407
809.337341,1376
809.456116,1400
809.57489,1378
809.693726,1412
809.8125,1358
809.931274,1426
810.050049,1392
810.168884,1399
810.287659,1382
810.406372,1356
810.525269,1415
810.643982,1427
810.762756,1376
810.881531,1397
811.000305,1415
811.11908,1355
811.237854,1358
811.356567,1387
811.475403,1366
811.594116,1371
811.71283,1374
811.831604,1411
811.950378,1341
812.069153,1382
812.187927,1392
812.30658,1426
812.425415,1400
812.544128,1406
812.662781,1381
812.781616,1358
812.900269,1374
813.019043,1404
813.137756,1388
813.256531,1344
813.375244,1372
813.493896,1390
813.612671,1370
813.731384,1370
813.850037,1347
813.96875,1390
814.087524,1354
814.206238,1356
814.324951,1346
814.443604,1355
814.562256,1377
814.68103,1355
814.799683,1379
814.918335,1374
815.037109,1372
815.155762,1359
815.274475,1394
815.393188,1328
815.511841,1347
815.630554,1293
815.749146,1381
815.867859,1374
815.986572,1364
816.105164,1376
816.223877,1389
816.342529,1347
816.461182,1411
816.579895,1339
816.698486,1352
816.817139,1362
816.935791,1372
817.054504,1373
817.173096,1337
817.291748,1365
817.4104,1359
817.529053,1351
817.647644,1355
817.766235,1327
817.884949,1350
818.00354,1335
818.122192,1378
818.240845,1352
818.359436,1369
818.478088,1384
818.59668,1285
818.715271,1325
818.833923,1328
818.952515,1337
819.071106,1311
819.189758,1318
819.30835,1327
819.426941,1315
819.545532,1350
819.664124,1345
819.782715,1299
819.901306,1319
820.019897,1325
820.138489,1284
820.25708,1352
820.375671,1286
820.494202,1342
820.612732,1312
820.731384,1299
820.849915,1297
820.968506,1332
821.087097,1291
821.205627,1303
821.324158,1295
821.442749,1271
821.561279,1291
821.679871,1324
821.798401,1318
821.916931,1331
822.035461,1313
822.154053,1334
822.272583,1280
822.391174,1331
822.509583,1279
822.628174,1283
822.746704,1336
822.865234,1300
822.983765,1286
823.102295,1308
823.220825,1281
823.339294,1316
823.457825,1292
823.576355,1303
823.694824,1286
823.813354,1284
823.931885,1269
824.050354,1319
824.168884,1291
824.287354,1272
824.405823,1278
824.524353,1312
824.642822,1298
824.761353,1342
824.879822,1297
824.998291,1269
825.116699,1315
825.235291,1310
825.353699,1311
825.472168,1271
825.590637,1303
825.709106,1294
825.827576,1279
825.946045,1266
826.064453,1294
826.182983,1313
826.301392,1295
826.4198,1293
826.53833,1293
826.656738,1281
826.775208,1296
826.893677,1290
827.012024,1259
827.130493,1293
827.248962,1272
827.36731,1298
827.485779,1299
827.604248,1302
827.722595,1270
827.841064,1247
827.959412,1254
828.077942,1294
828.196289,1297
828.314636,1240
828.433105,1266
828.551514,1246
828.669861,1266
828.78833,1245
828.906677,1247
829.025085,1323
829.143433,1261
829.261841,1280
829.38031,1305
829.498657,1315
829.617004,1287
829.735413,1253
829.85376,1288
829.972107,1268
830.090515,1288
830.208862,1345
830.327209,1275
830.445557,1244
830.563904,1240
830.682312,1251
830.800659,1255
830.919006,1268
831.037354,1263
831.155701,1268
831.274048,1258
831.392395,1302
831.51062,1271
831.629028,1274
831.747314,1271
831.865662,1240
831.984009,1252
832.102356,1235
832.220642,1229
832.338928,1253
832.457275,1263
832.575623,1300
832.693909,1276
832.812134,1264
832.930481,1225
833.048828,1246
833.167114,1278
833.2854,1250
833.403687,1287
833.521973,1302
833.640259,1244
833.758545,1229
833.876831,1268
833.995056,1264
834.113281,1255
834.231628,1253
834.349915,1300
834.468201,1272
834.586426,1236
834.704651,1261
834.822998,1303
834.941162,1288
835.059448,1233
835.177673,1264
835.295959,1317
835.414246,1254
835.53241,1285
835.650635,1257
835.768921,1278
835.887146,1244
836.005371,1270
836.123596,1217
836.241821,1291
836.360046,1267
836.478271,1264
836.596497,1241
836.714722,1220
836.832886,1283
836.95105,1256
837.069336,1257
837.1875,1242
837.305725,1246
837.423889,1266
837.542053,1261
837.660339,1254
837.778503,1241
837.896667,1291
838.014832,1254
838.132996,1230
838.25116,1267
838.369385,1272
838.487488,1270
838.605713,1258
838.723877,1250
838.84198,1282
838.960205,1241
839.078308,1247
839.196472,1244
839.314636,1250
839.4328,1268
839.550964,1257
839.669067,1268
839.787231,1254
839.905396,1256
840.023499,1287
840.141602,1249
840.259766,1241
840.377869,1250
840.495972,1262
840.614136,1221
840.732239,1263
840.850342,1254
840.968445,1273
841.086548,1231
841.204651,1262
841.322754,1230
841.440918,1229
841.55896,1252
841.677002,1238
841.795166,1276
841.913208,1261
842.031311,1256
842.149353,1227
842.267456,1280
842.385498,1234
842.503601,1222
842.621643,1268
842.739746,1277
842.857788,1275
842.97583,1265
843.093933,1256
843.211975,1206
843.330017,1253
843.44812,1248
843.566101,1259
843.684204,1238
843.802246,1204
843.920227,1234
844.038269,1271
844.156311,1219
844.274292,1247
844.392395,1269
844.510376,1257
844.628357,1242
844.74646,1260
844.864441,1236
844.982422,1213
845.100403,1246
845.218384,1266
845.336426,1262
845.454468,1270
845.572449,1213
845.69043,1252
845.808411,1221
845.926453,1254
846.044373,1238
846.162354,1260
846.280396,1254
846.398315,1217
846.516296,1285
846.634216,1290
846.752197,1269
846.870178,1223
846.988098,1273
847.106079,1232
847.22406,1249
847.34198,1234
847.4599,1216
847.577881,1235
847.695801,1273
847.813782,1270
847.931641,1253
848.049561,1234
848.167603,1202
848.285461,1243
848.403381,1253
848.521362,1283
848.639221,1280
848.75708,1262
848.875,1233
848.99292,1253
849.110901,1261
849.22876,1280
849.34668,1233
849.464539,1209
849.582458,1247
849.700317,1256
849.818176,1262
849.936096,1261
850.053955,1260
850.171875,1283
850.289673,1240
850.407593,1228
850.525452,1248
850.643311,1255
850.761169,1246
850.878967,1294
850.996887,1236
851.114746,1233
851.232544,1228
851.350403,1229
851.468262,1283
851.58606,1257
851.703979,1246
851.821777,1205
851.939636,1251
852.057434,1234
852.175232,1276
852.293091,1271
852.410889,1264
852.528687,1243
852.646545,1255
852.764343,1265
852.88208,1269
852.999939,1268
853.117676,1255
853.235535,1235
853.353271,1235
853.471069,1255
853.588928,1238
853.706604,1248
853.824402,1272
853.9422,1217
854.059998,1249
854.177734,1215
854.295532,1303
854.413269,1263
854.531006,1269
854.648804,1269
854.766541,1243
854.884277,1261
855.002014,1221
855.119751,1250
855.237549,1255
855.355225,1282
855.473022,1205
855.590698,1251
855.708435,1255
855.826172,1275
855.943848,1219
856.061646,1272
856.179321,1251
856.296997,1191
856.414795,1286
856.53241,1235
856.650085,1251
856.767822,1258
856.885559,1282
857.003174,1258
857.120911,1259
857.238586,1248
857.356201,1264
857.473938,1251
857.591614,1265
857.709351,1264
857.826965,1264
857.944641,1241
858.062317,1253
858.179993,1288
858.297668,1226
858.415283,1254
858.532959,1236
858.650574,1285
858.768188,1313
858.885803,1269
859.003479,1293
859.121094,1235
859.23877,1241
859.356384,1242
859.473999,1240
859.591675,1283
859.709229,1245
859.826843,1243
859.944458,1245
860.062012,1258
860.179626,1250
860.297302,1259
860.414856,1260
860.532471,1281
860.650024,1251
860.767639,1248
860.885193,1286
861.002808,1237
861.120361,1248
861.237976,1257
861.35553,1292
861.473022,1278
861.590698,1293
861.708191,1258
861.825745,1282
861.943298,1291
862.060852,1235
862.178406,1245
862.295959,1252
862.413513,1248
862.531006,1245
862.64856,1236
862.766113,1230
862.883667,1292
863.00116,1242
863.118713,1264
863.236206,1244
863.353699,1254
863.471252,1264
863.588745,1271
863.706177,1234
863.82373,1252
863.941162,1250
864.058716,1246
864.176208,1285
864.29364,1221
864.411194,1254
864.528687,1244
864.646118,1252
864.763611,1252
864.881042,1252
864.998535,1280
865.116028,1265
865.233459,1245
865.350891,1322
865.468384,1259
865.585754,1288
865.703308,1265
865.820679,1274
865.938171,1244
866.055542,1281
866.173035,1255
866.290466,1275
866.407837,1241
866.52533,1280
866.6427,1277
866.760071,1245
866.877563,1276
866.994934,1288
867.112305,1238
867.229736,1271
867.347107,1227
867.464539,1285
867.58197,1258
867.699341,1274
867.81665,1226
867.934082,1243
868.051453,1272
868.168823,1252
868.286194,1263
868.403564,1232
868.520935,1272
868.638306,1220
868.755676,1259
868.872986,1231
868.990295,1256
869.107727,1329
869.225037,1279
869.342346,1266
869.459717,1291
869.577026,1246
869.694336,1263
869.811707,1246
869.929016,1204
870.046326,1254
870.163635,1273
870.280945,1300
870.398254,1271
870.515564,1262
870.632812,1305
870.750183,1246
870.867432,1268
870.984741,1256
871.102051,1294
871.219299,1272
871.336609,1298
871.453918,1271
871.571106,1258
871.688416,1289
871.805664,1233
871.922852,1256
872.040222,1275
872.157471,1264
872.274719,1272
872.391968,1270
872.509155,1244
872.626465,1288
872.743652,1285
872.860962,1286
872.978149,1276
873.095337,1277
873.212646,1280
873.329834,1253
873.44696,1254
873.564209,1262
873.681396,1299
873.798645,1248
873.915894,1322
874.03302,1271
874.150208,1314
874.267456,1298
874.384583,1280
874.501831,1246
874.618958,1303
874.736145,1278
874.853333,1263
874.970459,1274
875.087646,1298
875.204834,1304
875.32196,1240
875.439148,1294
875.556274,1259
875.673401,1269
875.790527,1280
875.907715,1247
876.024841,1288
876.141968,1293
876.259094,1270
876.376282,1267
876.493347,1304
876.610474,1276
876.7276,1275
876.844727,1275
876.961853,1232
877.078918,1316
877.195984,1286
877.313171,1302
877.430237,1220
877.547302,1310
877.664368,1269
877.781433,1309
877.898499,1284
878.015625,1252
878.13269,1263
878.249695,1267
878.366821,1263
878.483887,1292
878.600952,1274
878.717957,1276
878.834961,1289
878.952087,1269
879.069092,1283
879.186157,1281
879.303162,1260
879.420227,1291
879.537231,1277
879.654236,1328
879.77124,1295
879.888306,1270
880.005249,1272
880.122314,1294
880.239319,1285
880.356323,1253
880.473328,1303
880.590271,1280
880.707275,1302
880.824341,1274
880.941284,1263
881.058228,1295
881.175232,1345
881.292236,1279
881.40918,1306
881.526123,1265
881.643066,1319
881.760071,1268
881.877014,1321
881.993958,1307
882.11084,1285
882.227783,1265
882.344727,1241
882.46167,1279
882.578613,1283
882.695618,1284
882.812439,1308
882.929382,1289
883.046326,1290
883.163208,1300
883.280151,1283
883.397034,1281
883.513916,1294
883.630798,1312
883.747742,1279
883.864563,1302
883.981506,1276
884.098389,1301
884.21521,1268
884.332153,1269
884.448975,1281
884.565796,1297
884.682678,1290
884.7995,1323
884.916443,1308
885.033264,1295
885.150085,1298
885.266968,1321
885.383789,1296
885.500671,1315
885.617493,1300
885.734314,1303
885.851196,1282
885.967896,1269
886.084717,1285
886.201599,1309
886.318359,1295
886.435181,1244
886.552002,1294
886.668762,1353
886.785645,1291
886.902344,1307
887.019165,1301
887.135925,1320
887.252747,1328
887.369446,1318
887.486267,1276
887.603027,1305
887.719788,1306
887.836548,1309
887.953247,1274
888.070068,1324
888.186829,1309
888.303528,1344
888.420288,1283
888.536987,1278
888.653687,1313
888.770447,1312
888.887146,1276
889.003967,1298
889.120667,1310
889.237305,1318
889.354065,1316
889.470703,1305
889.587463,1300
889.704163,1345
889.820862,1306
889.937561,1315
890.054199,1318
890.170837,1300
890.287598,1296
890.404236,1340
890.520874,1309
890.637634,1355
890.754211,1312
890.87085,1346
890.987549,1349
891.104187,1306
891.220886,1318
891.337463,1327
891.454102,1314
891.57074,1327
891.687378,1313
891.804077,1346
891.920654,1298
892.037231,1302
892.15387,1318
892.270447,1302
892.387085,1318
892.503723,1288
892.6203,1369
892.736877,1274
892.853516,1308
892.970032,1313
893.08667,1304
893.203186,1309
893.319763,1294
893.43634,1314
893.552917,1318
893.669556,1365
893.786011,1322
893.902588,1334
894.019165,1320
894.135681,1313
894.252197,1318
894.368835,1316
894.485291,1328
894.601868,1355
894.718384,1356
894.8349,1322
894.951355,1370
895.067932,1321
895.184448,1331
895.300964,1343
895.417419,1331
895.533936,1335
895.650452,1312
895.766907,1346
895.883423,1315
895.999878,1313
896.116333,1337
896.232849,1314
896.349304,1354
896.465759,1350
896.582214,1347
896.698669,1299
896.815125,1332
896.931641,1337
897.048035,1318
897.164551,1301
897.280884,1334
897.397339,1313
897.513794,1359
897.630249,1318
897.746582,1317
897.863098,1332
897.979431,1312
898.095886,1315
898.212341,1341
898.328674,1335
898.445129,1339
898.561462,1303
898.677795,1328
898.794312,1322
898.910645,1319
899.026978,1367
899.143433,1276
899.259766,1325
899.37616,1359
899.492493,1347
899.608765,1318
899.725159,1340
899.841553,1315
899.957947,1331
900.07428,1359
900.190552,1384
900.306946,1352
900.423157,1359
900.53949,1362
900.655884,1353
900.772156,1328
900.888489,1328
901.004822,1325
901.121033,1316
901.237366,1322
901.353699,1356
901.46991,1337
901.586304,1344
901.702515,1352
901.818787,1317
901.93512,1349
902.051331,1369
902.167603,1316
902.283875,1354
902.400085,1328
902.516418,1307
902.632629,1339
902.74884,1362
902.865112,1325
902.981384,1351
903.097595,1333
903.213867,1344
903.330017,1335
903.446289,1377
903.5625,1338
903.67865,1390
903.794922,1333
903.911072,1366
904.027344,1330
904.143494,1360
904.259705,1344
904.375916,1320
904.492065,1287
904.608215,1371
904.724426,1359
904.840576,1316
904.956726,1346
905.072876,1372
905.189087,1353
905.305176,1360
905.421387,1353
905.537537,1345
905.653687,1399
905.769775,1339
905.885925,1361
906.002014,1372
906.118164,1313
906.234314,1350
906.350403,1388
906.466492,1369
906.582642,1369
906.69873,1317
906.814758,1374
906.930908,1383
907.046936,1366
907.163086,1376
907.279175,1419
907.395264,1360
907.511353,1357
907.62738,1372
907.743408,1347
907.859497,1394
907.975525,1361
908.091553,1361
908.207703,1371
908.32373,1336
908.439758,1419
908.555786,1382
908.671814,1348
908.787842,1361
908.90387,1342
909.019775,1383
909.135864,1365
909.251892,1364
909.367859,1378
909.483826,1373
909.599854,1340
909.715881,1357
909.831848,1327
909.947815,1351
910.063782,1358
910.179749,1365
910.295776,1381
910.411743,1326
910.527649,1377
910.643616,1390
910.759583,1348
910.875488,1382
910.991455,1400
911.107361,1381
911.223267,1356
911.339294,1403
911.4552,1395
911.571106,1365
911.687073,1360
911.802979,1408
911.918823,1374
912.034729,1405
912.150635,1378
912.266602,1394
912.382446,1340
912.498352,1337
912.614197,1340
912.730103,1387
912.846008,1411
792.44574,1575
792.56488,1595
792.68396,1622
792.80304,1605
792.92218,1539
793.041199,1505
793.160339,1539
793.279419,1507
793.398499,1554
793.517578,1540
793.636658,1530
793.755737,1547
793.874817,1561
793.993896,1548
794.112976,1532
794.232056,1512
794.351074,1510
794.470215,1496
794.589233,1560
794.708313,1493
794.827393,1516
794.946411,1489
795.065552,1494
795.18457,1459
795.303589,1476
795.422668,1535
795.541687,1484
795.660767,1515
795.779846,1474
795.898865,1445
796.017883,1460
796.136963,1485
796.255981,1487
796.375061,1476
796.49408,1484
796.613037,1484
796.732117,1478
796.851135,1449
796.970154,1479
797.089233,1468
797.208191,1429
797.327271,1484
797.446228,1439
797.565186,1471
797.684265,1487
797.803223,1471
797.922241,1455
798.04126,1461
798.160278,1467
798.279297,1466
798.398315,1495
798.517273,1457
798.636292,1443
798.75531,1476
798.874268,1402
798.993286,1476
799.112244,1438
799.231323,1456
799.350281,1458
799.469238,1444
799.588257,1495
799.707153,1482
799.826111,1442
799.945129,1431
800.064087,1491
800.183044,1442
800.302063,1491
800.421021,1405
800.539978,1474
800.658936,1457
800.777893,1430
800.896912,1444
801.015747,1429
801.134705,1484
801.253723,1456
801.37262,1491
801.491638,1444
801.610535,1450
801.729492,1431
801.84845,1443
801.967407,1429
802.086243,1461
802.205261,1435
802.324158,1466
802.443115,1441
802.562073,1455
802.680969,1436
802.799927,1403
802.918762,1426
803.037659,1441
803.156677,1483
803.275574,1425
803.39447,1448
803.513428,1432
803.632263,1422
803.751221,1450
803.870117,1441
803.989014,1419
804.107971,1468
804.226746,1424
804.345642,1431
804.4646,1445
804.583496,1402
804.702393,1434
804.821228,1440
804.940125,1436
805.059021,1462
805.177917,1377
805.296814,1486
805.415649,1410
805.534546,1413
805.653442,1445
805.772278,1429
805.891113,1451
806.01001,1498
806.128906,1417
806.247742,1398
806.366577,1415
806.485413,1443
806.604309,1452
806.723145,1436
806.84198,1420
806.960876,1426
807.079712,1405
807.198486,1433
807.317383,1411
807.436218,1428
807.554993,1411
807.673889,1442
807.792725,1430
807.91156,1472
808.030396,1409
808.14917,1449
808.268005,1359
808.386841,1448
808.505676,1411
808.624451,1411
808.743286,1417
808.862122,1406
808.980896,1436
809.099731,1459
809.218506,1407
809.337341,1459
809.456116,1421
809.57489,1439
809.693726,1470
809.8125,1445
809.931274,1399
810.050049,1441
810.168884,1463
810.287659,1421
810.406372,1402
810.525269,1452
810.643982,1403
810.762756,1424
810.881531,1370
811.000305,1426
811.11908,1435
811.237854,1421
811.356567,1396
811.475403,1421
811.594116,1406
811.71283,1444
811.831604,1427
811.950378,1420
812.069153,1417
812.187927,1354
812.30658,1396
812.425415,1403
812.544128,1370
812.662781,1393
812.781616,1386
812.900269,1462
813.019043,1417
813.137756,1387
813.256531,1428
813.375244,1397
813.493896,1387
813.612671,1421
813.731384,1436
813.850037,1397
813.96875,1413
814.087524,1398
814.206238,1405
814.324951,1359
814.443604,1391
814.562256,1381
814.68103,1389
814.799683,1411
814.918335,1454
815.037109,1417
815.155762,1365
815.274475,1375
815.393188,1397
815.511841,1401
815.630554,1405
815.749146,1337
815.867859,1378
815.986572,1407
816.105164,1373
816.223877,1409
816.342529,1427
816.461182,1463
816.579895,1392
816.698486,1426
816.817139,1353
816.935791,1396
817.054504,1368
817.173096,1391
817.291748,1375
817.4104,1362
817.529053,1338
817.647644,1378
817.766235,1370
817.884949,1350
818.00354,1335
818.122192,1380
818.240845,1367
818.359436,1386
818.478088,1355
818.59668,1346
818.715271,1384
818.833923,1356
818.952515,1343
819.071106,1346
819.189758,1353
819.30835,1319
819.426941,1400
819.545532,1321
819.664124,1371
819.782715,1332
819.901306,1370
820.019897,1328
820.138489,1333
820.25708,1334
820.375671,1371
820.494202,1329
820.612732,1369
820.731384,1308
820.849915,1359
820.968506,1359
821.087097,1303
821.205627,1367
821.324158,1354
821.442749,1348
821.561279,1307
821.679871,1354
821.798401,1345
821.916931,1289
822.035461,1346
822.154053,1347
822.272583,1337
822.391174,1385
822.509583,1284
822.628174,1316
822.746704,1320
822.865234,1328
822.983765,1352
823.102295,1322
823.220825,1297
823.339294,1341
823.457825,1311
823.576355,1374
823.694824,1284
823.813354,1318
823.931885,1339
824.050354,1335
824.168884,1314
824.287354,1333
824.405823,1309
824.524353,1324
824.642822,1293
824.761353,1323
824.879822,1325
824.998291,1341
825.116699,1328
825.235291,1318
825.353699,1321
825.472168,1303
825.590637,1354
825.709106,1325
825.827576,1308
825.946045,1331
826.064453,1305
826.182983,1344
826.301392,1316
826.4198,1373
826.53833,1323
826.656738,1330
826.775208,1331
826.893677,1346
827.012024,1351
827.130493,1321
827.248962,1322
827.36731,1350
827.485779,1314
827.604248,1287
827.722595,1258
827.841064,1253
827.959412,1313
828.077942,1302
828.196289,1322
828.314636,1320
828.433105,1287
828.551514,1293
828.669861,1310
828.78833,1285
828.906677,1264
829.025085,1296
829.143433,1292
829.261841,1320
829.38031,1321
829.498657,1296
829.617004,1357
829.735413,1337
829.85376,1293
829.972107,1322
830.090515,1322
830.208862,1326
830.327209,1300
830.445557,1287
830.563904,1318
830.682312,1279
830.800659,1298
830.919006,1284
831.037354,1310
831.155701,1294
831.274048,1297
831.392395,1285
831.51062,1271
831.629028,1297
831.747314,1282
831.865662,1280
831.984009,1288
832.102356,1295
832.220642,1269
832.338928,1303
832.457275,1326
832.575623,1278
832.693909,1286
832.812134,1306
832.930481,1303
833.048828,1314
833.167114,1230
833.2854,1291
833.403687,1246
833.521973,1285
833.640259,1311
833.758545,1291
833.876831,1289
833.995056,1309
834.113281,1298
834.231628,1298
834.349915,1259
834.468201,1297
834.586426,1287
834.704651,1325
834.822998,1283
834.941162,1289
835.059448,1320
835.177673,1292
835.295959,1272
835.414246,1294
835.53241,1305
835.650635,1316
835.768921,1312
835.887146,1297
836.005371,1283
836.123596,1265
836.241821,1330
836.360046,1289
836.478271,1279
836.596497,1288
836.714722,1310
836.832886,1303
836.95105,1269
837.069336,1293
837.1875,1275
837.305725,1273
837.423889,1325
837.542053,1291
837.660339,1276
837.778503,1279
837.896667,1310
838.014832,1260
838.132996,1302
838.25116,1256
838.369385,1306
838.487488,1297
838.605713,1279
838.723877,1296
838.84198,1270
838.960205,1276
839.078308,1301
839.196472,1311
839.314636,1286
839.4328,1283
839.550964,1285
839.669067,1262
839.787231,1270
839.905396,1277
840.023499,1282
840.141602,1306
840.259766,1272
840.377869,1298
840.495972,1289
840.614136,1315
840.732239,1312
840.850342,1306
840.968445,1300
841.086548,1308
841.204651,1287
841.322754,1289
841.440918,1279
841.55896,1279
841.677002,1267
841.795166,1285
841.913208,1295
842.031311,1287
842.149353,1246
842.267456,1289
842.385498,1274
842.503601,1293
842.621643,1287
842.739746,1290
842.857788,1268
842.97583,1258
843.093933,1278
843.211975,1265
843.330017,1336
843.44812,1264
843.566101,1292
843.684204,1296
843.802246,1299
843.920227,1284
844.038269,1234
844.156311,1292
844.274292,1280
844.392395,1280
844.510376,1308
844.628357,1280
844.74646,1231
844.864441,1273
844.982422,1275
845.100403,1276
845.218384,1269
845.336426,1278
845.454468,1260
845.572449,1310
845.69043,1282
845.808411,1293
845.926453,1259
846.044373,1234
846.162354,1271
846.280396,1267
846.398315,1279
846.516296,1266
846.634216,1209
846.752197,1245
846.870178,1230
846.988098,1257
847.106079,1265
847.22406,1265
847.34198,1240
847.4599,1252
847.577881,1293
847.695801,1256
847.813782,1273
847.931641,1293
848.049561,1283
848.167603,1256
848.285461,1251
848.403381,1260
848.521362,1307
848.639221,1289
848.75708,1286
848.875,1255
848.99292,1297
849.110901,1276
849.22876,1250
849.34668,1311
849.464539,1286
849.582458,1284
849.700317,1293
849.818176,1264
849.936096,1267
850.053955,1331
850.171875,1260
850.289673,1255
850.407593,1280
850.525452,1301
850.643311,1299
850.761169,1237
850.878967,1295
850.996887,1291
851.114746,1256
851.232544,1295
851.350403,1262
851.468262,1304
851.58606,1283
851.703979,1276
851.821777,1235
851.939636,1263
852.057434,1283
852.175232,1280
852.293091,1249
852.410889,1254
852.528687,1276
852.646545,1285
852.764343,1261
852.88208,1298
852.999939,1282
853.117676,1286
853.235535,1310
853.353271,1294
853.471069,1276
853.588928,1255
853.706604,1292
853.824402,1270
853.9422,1315
854.059998,1273
854.177734,1289
854.295532,1290
854.413269,1261
854.531006,1293
854.648804,1269
854.766541,1293
854.884277,1265
855.002014,1252
855.119751,1286
855.237549,1265
855.355225,1288
855.473022,1290
855.590698,1254
855.708435,1293
855.826172,1281
855.943848,1278
856.061646,1235
856.179321,1261
856.296997,1277
856.414795,1286
856.53241,1277
856.650085,1285
856.767822,1275
856.885559,1272
857.003174,1294
857.120911,1292
857.238586,1296
857.356201,1256
857.473938,1248
857.591614,1296
857.709351,1271
857.826965,1233
857.944641,1311
858.062317,1279
858.179993,1275
858.297668,1308
858.415283,1284
858.532959,1292
858.650574,1266
858.768188,1268
858.885803,1285
859.003479,1277
859.121094,1242
859.23877,1306
859.356384,1295
859.473999,1282
859.591675,1320
859.709229,1274
859.826843,1270
859.944458,1301
860.062012,1249
860.179626,1284
860.297302,1296
860.414856,1278
860.532471,1283
860.650024,1285
860.767639,1306
860.885193,1334
861.002808,1260
861.120361,1279
861.237976,1336
861.35553,1282
861.473022,1298
861.590698,1287
861.708191,1245
861.825745,1271
861.943298,1273
862.060852,1259
862.178406,1293
862.295959,1287
862.413513,1269
862.531006,1302
862.64856,1270
862.766113,1279
862.883667,1300
863.00116,1251
863.118713,1329
863.236206,1264
863.353699,1263
863.471252,1296
863.588745,1324
863.706177,1286
863.82373,1275
863.941162,1281
864.058716,1296
864.176208,1292
864.29364,1283
864.411194,1298
864.528687,1241
864.646118,1306
864.763611,1275
864.881042,1300
864.998535,1270
865.116028,1334
865.233459,1304
865.350891,1280
865.468384,1300
865.585754,1270
865.703308,1294
865.820679,1273
865.938171,1285
866.055542,1266
866.173035,1292
866.290466,1283
866.407837,1279
866.52533,1296
866.6427,1251
866.760071,1322
866.877563,1251
866.994934,1297
867.112305,1261
867.229736,1302
867.347107,1344
867.464539,1304
867.58197,1281
867.699341,1290
867.81665,1311
867.934082,1299
868.051453,1323
868.168823,1266
868.286194,1305
868.403564,1288
868.520935,1271
868.638306,1276
868.755676,1296
868.872986,1288
868.990295,1286
869.107727,1281
869.225037,1296
869.342346,1320
869.459717,1294
869.577026,1320
869.694336,1300
869.811707,1313
869.929016,1288
870.046326,1298
870.163635,1307
870.280945,1323
870.398254,1267
870.515564,1320
870.632812,1300
870.750183,1260
870.867432,1289
870.984741,1292
871.102051,1302
871.219299,1290
871.336609,1312
871.453918,1299
871.571106,1312
871.688416,1298
871.805664,1296
871.922852,1278
872.040222,1332
872.157471,1288
872.274719,1331
872.391968,1283
872.509155,1308
872.626465,1305
872.743652,1344
872.860962,1280
872.978149,1259
873.095337,1298
873.212646,1292
873.329834,1305
873.44696,1281
873.564209,1292
873.681396,1291
873.798645,1312
873.915894,1294
874.03302,1315
874.150208,1333
874.267456,1352
874.384583,1308
874.501831,1290
874.618958,1271
874.736145,1297
874.853333,1299
874.970459,1278
875.087646,1355
875.204834,1283
875.32196,1297
875.439148,1285
875.556274,1314
875.673401,1297
875.790527,1312
875.907715,1276
876.024841,1287
876.141968,1278
876.259094,1275
876.376282,1306
876.493347,1300
876.610474,1358
876.7276,1274
876.844727,1341
876.961853,1273
877.078918,1299
877.195984,1303
877.313171,1291
877.430237,1297
877.547302,1322
877.664368,1311
877.781433,1290
877.898499,1291
878.015625,1321
878.13269,1259
878.249695,1316
878.366821,1313
878.483887,1341
878.600952,1307
878.717957,1292
878.834961,1284
878.952087,1306
879.069092,1334
879.186157,1320
879.303162,1315
879.420227,1295
879.537231,1323
879.654236,1280
879.77124,1319
879.888306,1318
880.005249,1295
880.122314,1295
880.239319,1299
880.356323,1357
880.473328,1353
880.590271,1290
880.707275,1298
880.824341,1322
880.941284,1348
881.058228,1333
881.175232,1339
881.292236,1324
881.40918,1293
881.526123,1313
881.643066,1322
881.760071,1318
881.877014,1310
881.993958,1343
882.11084,1303
882.227783,1319
882.344727,1312
882.46167,1312
882.578613,1310
882.695618,1319
882.812439,1340
882.929382,1330
883.046326,1321
883.163208,1336
883.280151,1316
883.397034,1301
883.513916,1308
883.630798,1289
883.747742,1316
883.864563,1294
883.981506,1319
884.098389,1326
884.21521,1345
884.332153,1358
884.448975,1323
884.565796,1303
884.682678,1274
884.7995,1354
884.916443,1302
885.033264,1305
885.150085,1283
885.266968,1377
885.383789,1320
885.500671,1365
885.617493,1323
885.734314,1334
885.851196,1359
885.967896,1365
886.084717,1361
886.201599,1321
886.318359,1350
886.435181,1335
886.552002,1307
886.668762,1351
886.785645,1309
886.902344,1347
887.019165,1303
887.135925,1294
887.252747,1356
887.369446,1385
887.486267,1368
887.603027,1350
887.719788,1331
887.836548,1383
887.953247,1318
888.070068,1343
888.186829,1302
888.303528,1315
888.420288,1337
888.536987,1361
888.653687,1308
888.770447,1319
888.887146,1356
889.003967,1324
889.120667,1345
889.237305,1339
889.354065,1328
889.470703,1365
889.587463,1362
889.704163,1380
889.820862,1340
889.937561,1356
890.054199,1381
890.170837,1334
890.287598,1344
890.404236,1325
890.520874,1352
890.637634,1337
890.754211,1351
890.87085,1307
890.987549,1374
891.104187,1348
891.220886,1332
891.337463,1355
891.454102,1407
891.57074,1359
891.687378,1337
891.804077,1360
891.920654,1343
892.037231,1361
892.15387,1370
892.270447,1337
892.387085,1350
892.503723,1366
892.6203,1341
892.736877,1348
892.853516,1342
892.970032,1344
893.08667,1341
893.203186,1370
893.319763,1361
893.43634,1336
893.552917,1350
893.669556,1374
893.786011,1389
893.902588,1370
894.019165,1335
894.135681,1355
894.252197,1373
894.368835,1300
894.485291,1388
894.601868,1369
894.718384,1391
894.8349,1369
894.951355,1349
895.067932,1386
895.184448,1385
895.300964,1353
895.417419,1373
895.533936,1382
895.650452,1361
895.766907,1364
895.883423,1343
895.999878,1407
896.116333,1347
896.232849,1407
896.349304,1343
896.465759,1363
896.582214,1354
896.698669,1363
896.815125,1377
896.931641,1358
897.048035,1347
897.164551,1351
897.280884,1386
897.397339,1361
897.513794,1350
897.630249,1378
897.746582,1408
897.863098,1357
897.979431,1393
898.095886,1397
898.212341,1367
898.328674,1411
898.445129,1368
898.561462,1364
898.677795,1358
898.794312,1360
898.910645,1405
899.026978,1404
899.143433,1380
899.259766,1375
899.37616,1376
899.492493,1354
899.608765,1391
899.725159,1380
899.841553,1367
899.957947,1381
900.07428,1355
900.190552,1364
900.306946,1321
900.423157,1381
900.53949,1343
900.655884,1374
900.772156,1365
900.888489,1375
901.004822,1369
901.121033,1370
901.237366,1392
901.353699,1349
901.46991,1423
901.586304,1373
901.702515,1372
901.818787,1376
901.93512,1391
902.051331,1371
902.167603,1349
902.283875,1405
902.400085,1359
902.516418,1384
902.632629,1328
902.74884,1386
902.865112,1388
902.981384,1376
903.097595,1366
903.213867,1386
903.330017,1386
903.446289,1403
903.5625,1374
903.67865,1372
903.794922,1382
903.911072,1430
904.027344,1359
904.143494,1404
904.259705,1386
904.375916,1373
904.492065,1383
904.608215,1397
904.724426,1397
904.840576,1394
904.956726,1376
905.072876,1397
905.189087,1363
905.305176,1401
905.421387,1430
905.537537,1363
905.653687,1420
905.769775,1394
905.885925,1423
906.002014,1401
906.118164,1401
906.234314,1405
906.350403,1398
906.466492,1402
906.582642,1373
906.69873,1382
906.814758,1388
906.930908,1430
907.046936,1411
907.163086,1403
907.279175,1403
907.395264,1376
907.511353,1422
907.62738,1376
907.743408,1402
907.859497,1415
907.975525,1397
908.091553,1373
908.207703,1380
908.32373,1389
908.439758,1408
908.555786,1429
908.671814,1434
908.787842,1389
908.90387,1451
909.019775,1386
909.135864,1389
909.251892,1420
909.367859,1463
909.483826,1413
909.599854,1393
909.715881,1409
909.831848,1399
909.947815,1434
910.063782,1431
910.179749,1423
910.295776,1385
910.411743,1431
910.527649,1410
910.643616,1429
910.759583,1396
910.875488,1395
910.991455,1384
911.107361,1366
911.223267,1464
911.339294,1408
911.4552,1400
911.571106,1439
911.687073,1424
911.802979,1447
911.918823,1334
912.034729,1422
912.150635,1353
912.266602,1419
912.382446,1390
912.498352,1387
912.614197,1394
912.730103,1403
912.846008,1391
792.44574,1628
792.56488,1618
792.68396,1619
792.80304,1556
792.92218,1547
793.041199,1505
793.160339,1549
793.279419,1552
793.398499,1506
793.517578,1550
793.636658,1543
793.755737,1533
793.874817,1534
793.993896,1587
794.112976,1526
794.232056,1540
794.351074,1513
794.470215,1527
794.589233,1554
794.708313,1497
794.827393,1493
794.946411,1509
795.065552,1523
795.18457,1478
795.303589,1536
795.422668,1498
795.541687,1517
795.660767,1511
795.779846,1497
795.898865,1505
796.017883,1489
796.136963,1481
796.255981,1525
796.375061,1513
796.49408,1529
796.613037,1478
796.732117,1538
796.851135,1490
796.970154,1507
797.089233,1454
797.208191,1540
797.327271,1480
797.446228,1434
797.565186,1461
797.684265,1444
797.803223,1469
797.922241,1489
798.04126,1450
798.160278,1472
798.279297,1471
798.398315,1506
798.517273,1480
798.636292,1431
798.75531,1493
798.874268,1476
798.993286,1468
799.112244,1473
799.231323,1434
799.350281,1487
799.469238,1469
799.588257,1469
799.707153,1453
799.826111,1450
799.945129,1505
800.064087,1499
800.183044,1443
800.302063,1423
800.421021,1487
800.539978,1449
800.658936,1464
800.777893,1498
800.896912,1427
801.015747,1458
801.134705,1485
801.253723,1461
801.37262,1456
801.491638,1459
801.610535,1459
801.729492,1439
801.84845,1442
801.967407,1439
802.086243,1471
802.205261,1455
802.324158,1432
802.443115,1462
802.562073,1453
802.680969,1415
802.799927,1485
802.918762,1444
803.037659,1442
803.156677,1409
803.275574,1446
803.39447,1439
803.513428,1435
803.632263,1443
803.751221,1486
803.870117,1448
803.989014,1446
804.107971,1479
804.226746,1449
804.345642,1476
804.4646,1470
804.583496,1462
804.702393,1457
804.821228,1469
804.940125,1490
805.059021,1447
805.177917,1446
805.296814,1462
805.415649,1462
805.534546,1456
805.653442,1463
805.772278,1449
805.891113,1433
806.01001,1496
806.128906,1453
806.247742,1421
806.366577,1461
806.485413,1436
806.604309,1445
806.723145,1438
806.84198,1445
806.960876,1435
807.079712,1431
807.198486,1468
807.317383,1423
807.436218,1414
807.554993,1454
807.673889,1424
807.792725,1440
807.91156,1440
808.030396,1438
808.14917,1439
808.268005,1418
808.386841,1437
808.505676,1442
808.624451,1460
808.743286,1458
808.862122,1411
808.980896,1404
809.099731,1376
809.218506,1401
809.337341,1446
809.456116,1418
809.57489,1405
809.693726,1435
809.8125,1451
809.931274,1416
810.050049,1473
810.168884,1410
810.287659,1414
810.406372,1386
810.525269,1394
810.643982,1394
810.762756,1434
810.881531,1459
811.000305,1443
811.11908,1366
811.237854,1413
811.356567,1388
811.475403,1420
811.594116,1400
811.71283,1446
811.831604,1409
811.950378,1423
812.069153,1433
812.187927,1414
812.30658,1415
812.425415,1440
812.544128,1360
812.662781,1449
812.781616,1432
812.900269,1416
813.019043,1441
813.137756,1376
813.256531,1389
813.375244,1446
813.493896,1410
813.612671,1409
813.731384,1390
813.850037,1406
813.96875,1443
814.087524,1372
814.206238,1405
814.324951,1381
814.443604,1428
814.562256,1420
814.68103,1405
814.799683,1438
814.918335,1381
815.037109,1389
815.155762,1427
815.274475,1367
815.393188,1408
815.511841,1415
815.630554,1403
815.749146,1396
815.867859,1373
815.986572,1364
816.105164,1425
816.223877,1456
816.342529,1378
816.461182,1423
816.579895,1381
816.698486,1358
816.817139,1394
816.935791,1389
817.054504,1375
817.173096,1385
817.291748,1412
817.4104,1403
817.529053,1379
817.647644,1408
817.766235,1359
817.884949,1425
818.00354,1398
818.122192,1353
818.240845,1367
818.359436,1364
818.478088,1388
818.59668,1401
818.715271,1405
818.833923,1339
818.952515,1368
819.071106,1375
819.189758,1392
819.30835,1357
819.426941,1359
819.545532,1358
819.664124,1373
819.782715,1372
819.901306,1315
820.019897,1373
820.138489,1333
820.25708,1326
820.375671,1356
820.494202,1354
820.612732,1381
820.731384,1351
820.849915,1323
820.968506,1344
821.087097,1349
821.205627,1385
821.324158,1338
821.442749,1328
821.561279,1340
821.679871,1329
821.798401,1321
821.916931,1333
822.035461,1388
822.154053,1352
822.272583,1335
822.391174,1359
822.509583,1324
822.628174,1355
822.746704,1325
822.865234,1357
822.983765,1356
823.102295,1330
823.220825,1315
823.339294,1332
823.457825,1348
823.576355,1356
823.694824,1330
823.813354,1333
823.931885,1351
824.050354,1342
824.168884,1312
824.287354,1354
824.405823,1328
824.524353,1324
824.642822,1307
824.761353,1368
824.879822,1313
824.998291,1299
825.116699,1304
825.235291,1332
825.353699,1314
825.472168,1305
825.590637,1351
825.709106,1317
825.827576,1346
825.946045,1326
826.064453,1322
826.182983,1305
826.301392,1329
826.4198,1377
826.53833,1319
826.656738,1357
826.775208,1372
826.893677,1343
827.012024,1325
827.130493,1310
827.248962,1363
827.36731,1298
827.485779,1321
827.604248,1332
827.722595,1334
827.841064,1292
827.959412,1312
828.077942,1289
828.196289,1315
828.314636,1298
828.433105,1318
828.551514,1289
828.669861,1327
828.78833,1320
828.906677,1285
829.025085,1301
829.143433,1305
829.261841,1293
829.38031,1303
829.498657,1306
829.617004,1299
829.735413,1338
829.85376,1294
829.972107,1294
830.090515,1292
830.208862,1299
830.327209,1331
830.445557,1312
830.563904,1320
830.682312,1324
830.800659,1294
830.919006,1306
831.037354,1279
831.155701,1297
831.274048,1295
831.392395,1304
831.51062,1326
831.629028,1291
831.747314,1281
831.865662,1327
831.984009,1330
832.102356,1280
832.220642,1314
832.338928,1277
832.457275,1260
832.575623,1276
832.693909,1276
832.812134,1275
832.930481,1293
833.048828,1311
833.167114,1298
833.2854,1317
833.403687,1333
833.521973,1321
833.640259,1314
833.758545,1334
833.876831,1274
833.995056,1304
834.113281,1270
834.231628,1276
834.349915,1330
834.468201,1305
834.586426,1324
834.704651,1329
834.822998,1281
834.941162,1277
835.059448,1304
835.177673,1302
835.295959,1272
835.414246,1301
835.53241,1324
835.650635,1306
835.768921,1295
835.887146,1298
836.005371,1292
836.123596,1296
836.241821,1305
836.360046,1284
836.478271,1310
836.596497,1264
836.714722,1278
836.832886,1237
836.95105,1280
837.069336,1309
837.1875,1299
837.305725,1293
837.423889,1303
837.542053,1284
837.660339,1303
837.778503,1281
837.896667,1293
838.014832,1311
838.132996,1274
838.25116,1300
838.369385,1329
838.487488,1311
838.605713,1324
838.723877,1312
838.84198,1313
838.960205,1323
839.078308,1313
839.196472,1280
839.314636,1269
839.4328,1299
839.550964,1290
839.669067,1261
839.787231,1254
839.905396,1275
840.023499,1310
840.141602,1269
840.259766,1290
840.377869,1295
840.495972,1307
840.614136,1267
840.732239,1274
840.850342,1285
840.968445,1269
841.086548,1279
841.204651,1296
841.322754,1289
841.440918,1289
841.55896,1274
841.677002,1277
841.795166,1278
841.913208,1297
842.031311,1274
842.149353,1268
842.267456,1290
842.385498,1303
842.503601,1265
842.621643,1301
842.739746,1226
842.857788,1297
842.97583,1261
843.093933,1296
843.211975,1288
843.330017,1296
843.44812,1259
843.566101,1259
843.684204,1275
843.802246,1266
843.920227,1299
844.038269,1280
844.156311,1277
844.274292,1294
844.392395,1278
844.510376,1338
844.628357,1259
844.74646,1287
844.864441,1285
844.982422,1262
845.100403,1366
845.218384,1275
845.336426,1239
845.454468,1290
845.572449,1271
845.69043,1266
845.808411,1261
845.926453,1299
846.044373,1271
846.162354,1262
846.280396,1255
846.398315,1257
846.516296,1310
846.634216,1295
846.752197,1260
846.870178,1290
846.988098,1277
847.106079,1300
847.22406,1287
847.34198,1271
847.4599,1263
847.577881,1312
847.695801,1251
847.813782,1232
847.931641,1284
848.049561,1270
848.167603,1267
848.285461,1287
848.403381,1260
848.521362,1285
848.639221,1305
848.75708,1282
848.875,1275
848.99292,1309
849.110901,1257
849.22876,1310
849.34668,1245
849.464539,1304
849.582458,1295
849.700317,1307
849.818176,1298
849.936096,1286
850.053955,1259
850.171875,1293
850.289673,1256
850.407593,1285
850.525452,1275
850.643311,1285
850.761169,1274
850.878967,1312
850.996887,1276
851.114746,1318
851.232544,1245
851.350403,1257
851.468262,1274
851.58606,1270
851.703979,1302
851.821777,1295
851.939636,1280
852.057434,1288
852.175232,1299
852.293091,1293
852.410889,1306
852.528687,1324
852.646545,1289
852.764343,1338
852.88208,1332
852.999939,1268
853.117676,1287
853.235535,1266
853.353271,1288
853.471069,1276
853.588928,1278
853.706604,1285
853.824402,1320
853.9422,1302
854.059998,1262
854.177734,1282
854.295532,1279
854.413269,1310
854.531006,1315
854.648804,1299
854.766541,1287
854.884277,1304
855.002014,1306
855.119751,1277
855.237549,1317
855.355225,1268
855.473022,1299
855.590698,1287
855.708435,1293
855.826172,1941
855.943848,2266
856.061646,2011
856.179321,1306
856.296997,1277
856.414795,1270
856.53241,1273
856.650085,1297
856.767822,1336
856.885559,1346
857.003174,1299
857.120911,1262
857.238586,1270
857.356201,1276
857.473938,1307
857.591614,1290
857.709351,1268
857.826965,1297
857.944641,1271
858.062317,1305
858.179993,1275
858.297668,1250
858.415283,1288
858.532959,1276
858.650574,1287
858.768188,1306
858.885803,1274
859.003479,1308
859.121094,1315
859.23877,1327
859.356384,1237
859.473999,1274
859.591675,1278
859.709229,1309
859.826843,1294
859.944458,1286
860.062012,1285
860.179626,1290
860.297302,1321
860.414856,1305
860.532471,1294
860.650024,1287
860.767639,1268
860.885193,1306
861.002808,1324
861.120361,1291
861.237976,1277
861.35553,1271
861.473022,1288
861.590698,1284
861.708191,1273
861.825745,1291
861.943298,1289
862.060852,1292
862.178406,1314
862.295959,1238
862.413513,1301
862.531006,1285
862.64856,1268
862.766113,1310
862.883667,1312
863.00116,1274
863.118713,1312
863.236206,1339
863.353699,1280
863.471252,1306
863.588745,1302
863.706177,1292
863.82373,1260
863.941162,1327
864.058716,1277
864.176208,1260
864.29364,1295
864.411194,1296
864.528687,1291
864.646118,1267
864.763611,1313
864.881042,1294
864.998535,1291
865.116028,1297
865.233459,1303
865.350891,1294
865.468384,1327
865.585754,1335
865.703308,1295
865.820679,1268
865.938171,1259
866.055542,1294
866.173035,1311
866.290466,1285
866.407837,1307
866.52533,1292
866.6427,1299
866.760071,1312
866.877563,1306
866.994934,1281
867.112305,1327
867.229736,1298
867.347107,1305
867.464539,1286
867.58197,1360
867.699341,1274
867.81665,1348
867.934082,1314
868.051453,1278
868.168823,1319
868.286194,1284
868.403564,1305
868.520935,1326
868.638306,1294
868.755676,1300
868.872986,1313
868.990295,1294
869.107727,1332
869.225037,1305
869.342346,1277
869.459717,1275
869.577026,1310
869.694336,1320
869.811707,1329
869.929016,1305
870.046326,1313
870.163635,1332
870.280945,1349
870.398254,1299
870.515564,1310
870.632812,1311
870.750183,1317
870.867432,1309
870.984741,1325
871.102051,1287
871.219299,1290
871.336609,1331
871.453918,1308
871.571106,1297
871.688416,1284
871.805664,1305
871.922852,1305
872.040222,1344
872.157471,1299
872.274719,1300
872.391968,1278
872.509155,1314
872.626465,1312
872.743652,1318
872.860962,1297
872.978149,1289
873.095337,1328
873.212646,1310
873.329834,1295
873.44696,1268
873.564209,1301
873.681396,1343
873.798645,1316
873.915894,1334
874.03302,1274
874.150208,1276
874.267456,1327
874.384583,1280
874.501831,1322
874.618958,1294
874.736145,1294
874.853333,1321
874.970459,1320
875.087646,1335
875.204834,1316
875.32196,1319
875.439148,1334
875.556274,1312
875.673401,1324
875.790527,1306
875.907715,1345
876.024841,1304
876.141968,1324
876.259094,1353
876.376282,1322
876.493347,1336
876.610474,1341
876.7276,1331
876.844727,1342
876.961853,1299
877.078918,1336
877.195984,1298
877.313171,1342
877.430237,1299
877.547302,1321
877.664368,1290
877.781433,1349
877.898499,1284
878.015625,1312
878.13269,1269
878.249695,1323
878.366821,1260
878.483887,1314
878.600952,1302
878.717957,1346
878.834961,1317
878.952087,1301
879.069092,1285
879.186157,1307
879.303162,1319
879.420227,1337
879.537231,1298
879.654236,1325
879.77124,1309
879.888306,1348
880.005249,1332
880.122314,1314
880.239319,1339
880.356323,1337
880.473328,1313
880.590271,1324
880.707275,1302
880.824341,1306
880.941284,1356
881.058228,1349
881.175232,1321
881.292236,1321
881.40918,1304
881.526123,1342
881.643066,1306
881.760071,1339
881.877014,1327
881.993958,1300
882.11084,1370
882.227783,1326
882.344727,1345
882.46167,1318
882.578613,1325
882.695618,1323
882.812439,1338
882.929382,1329
883.046326,1325
883.163208,1341
883.280151,1336
883.397034,1354
883.513916,1341
883.630798,1358
883.747742,1291
883.864563,1313
883.981506,1339
884.098389,1317
884.21521,1348
884.332153,1346
884.448975,1342
884.565796,1338
884.682678,1339
884.7995,1339
884.916443,1344
885.033264,1319
885.150085,1319
885.266968,1309
885.383789,1341
885.500671,1344
885.617493,1326
885.734314,1345
885.851196,1379
885.967896,1378
886.084717,1356
886.201599,1367
886.318359,1358
886.435181,1333
886.552002,1370
886.668762,1322
886.785645,1341
886.902344,1354
887.019165,1311
887.135925,1381
887.252747,1365
887.369446,1378
887.486267,1304
887.603027,1376
887.719788,1333
887.836548,1361
887.953247,1407
888.070068,1341
888.186829,1353
888.303528,1339
888.420288,1357
888.536987,1353
888.653687,1316
888.770447,1382
888.887146,1313
889.003967,1343
889.120667,1375
889.237305,1359
889.354065,1331
889.470703,1379
889.587463,1329
889.704163,1364
889.820862,1341
889.937561,1347
890.054199,1369
890.170837,1317
890.287598,1386
890.404236,1368
890.520874,1395
890.637634,1344
890.754211,1371
890.87085,1302
890.987549,1357
891.104187,1387
891.220886,1384
891.337463,1379
891.454102,1381
891.57074,1352
891.687378,1361
891.804077,1354
891.920654,1389
892.037231,1324
892.15387,1386
892.270447,1382
892.387085,1376
892.503723,1372
892.6203,1349
892.736877,1359
892.853516,1373
892.970032,1368
893.08667,1425
893.203186,1349
893.319763,1347
893.43634,1355
893.552917,1350
893.669556,1360
893.786011,1379
893.902588,1349
894.019165,1374
894.135681,1320
894.252197,1356
894.368835,1387
894.485291,1335
894.601868,1355
894.718384,1385
894.8349,1383
894.951355,1372
895.067932,1367
895.184448,1373
895.300964,1361
895.417419,1392
895.533936,1364
895.650452,1369
895.766907,1336
895.883423,1402
895.999878,1341
896.116333,1365
896.232849,1377
896.349304,1387
896.465759,1376
896.582214,1368
896.698669,1386
896.815125,1387
896.931641,1380
897.048035,1345
897.164551,1350
897.280884,1410
897.397339,1335
897.513794,1347
897.630249,1416
897.746582,1393
897.863098,1395
897.979431,1389
898.095886,1372
898.212341,1418
898.328674,1406
898.445129,1349
898.561462,1410
898.677795,1421
898.794312,1388
898.910645,1409
899.026978,1349
899.143433,1382
899.259766,1413
899.37616,1429
899.492493,1416
899.608765,1395
899.725159,1411
899.841553,1404
899.957947,1413
900.07428,1403
900.190552,1397
900.306946,1384
900.423157,1388
900.53949,1429
900.655884,1372
900.772156,1427
900.888489,1382
901.004822,1393
901.121033,1358
901.237366,1411
901.353699,1348
901.46991,1431
901.586304,1351
901.702515,1398
901.818787,1334
901.93512,1399
902.051331,1404
902.167603,1417
902.283875,1414
902.400085,1411
902.516418,1450
902.632629,1381
902.74884,1371
902.865112,1366
902.981384,1429
903.097595,1414
903.213867,1389
903.330017,1384
903.446289,1375
903.5625,1426
903.67865,1380
903.794922,1400
903.911072,1409
904.027344,1418
904.143494,1389
904.259705,1408
904.375916,1415
904.492065,1382
904.608215,1354
904.724426,1416
904.840576,1397
904.956726,1427
905.072876,1393
905.189087,1374
905.305176,1391
905.421387,1386
905.537537,1414
905.653687,1381
905.769775,1453
905.885925,1410
906.002014,1404
906.118164,1385
906.234314,1416
906.350403,1405
906.466492,1376
906.582642,1428
906.69873,1417
906.814758,1435
906.930908,1415
907.046936,1407
907.163086,1426
907.279175,1431
907.395264,1418
907.511353,1405
907.62738,1406
907.743408,1409
907.859497,1426
907.975525,1421
908.091553,1440
908.207703,1391
908.32373,1424
908.439758,1438
908.555786,1409
908.671814,1396
908.787842,1433
908.90387,1378
909.019775,1434
909.135864,1409
909.251892,1385
909.367859,1428
909.483826,1418
909.599854,1379
909.715881,1439
909.831848,1398
909.947815,1434
910.063782,1437
910.179749,1433
910.295776,1408
910.411743,1417
910.527649,1405
910.643616,1429
910.759583,1404
910.875488,1412
910.991455,1466
911.107361,1412
911.223267,1433
911.339294,1420
911.4552,1467
911.571106,1428
911.687073,1406
911.802979,1460
911.918823,1432
912.034729,1401
912.150635,1434
912.266602,1408
912.382446,1437
912.498352,1396
912.614197,1388
912.730103,1443
912.846008,1419
