792.44574,2244
792.56488,2161
792.68396,2159
792.80304,2156
792.92218,2041
793.041199,2047
793.160339,2053
793.279419,2075
793.398499,2017
793.517578,2003
793.636658,2012
793.755737,1986
793.874817,2044
793.993896,1997
794.112976,1970
794.232056,1991
794.351074,1925
794.470215,2002
794.589233,1921
794.708313,1937
794.827393,1921
794.946411,1924
795.065552,1938
795.18457,1905
795.303589,1939
795.422668,1953
795.541687,1884
795.660767,1860
795.779846,1874
795.898865,1893
796.017883,1884
796.136963,1820
796.255981,1863
796.375061,1845
796.49408,1848
796.613037,1857
796.732117,1880
796.851135,1831
796.970154,1837
797.089233,1870
797.208191,1836
797.327271,1796
797.446228,1807
797.565186,1846
797.684265,1781
797.803223,1798
797.922241,1792
798.04126,1862
798.160278,1808
798.279297,1827
798.398315,1880
798.517273,1807
798.636292,1782
798.75531,1814
798.874268,1751
798.993286,1805
799.112244,1780
799.231323,1785
799.350281,1803
799.469238,1837
799.588257,1813
799.707153,1813
799.826111,1815
799.945129,1802
800.064087,1811
800.183044,1818
800.302063,1815
800.421021,1820
800.539978,1793
800.658936,1854
800.777893,1810
800.896912,1825
801.015747,1807
801.134705,1800
801.253723,1823
801.37262,1779
801.491638,1806
801.610535,1806
801.729492,1807
801.84845,1831
801.967407,1817
802.086243,1845
802.205261,1808
802.324158,1835
802.443115,1799
802.562073,1867
802.680969,1797
802.799927,1873
802.918762,1843
803.037659,1843
803.156677,1827
803.275574,1852
803.39447,1880
803.513428,1823
803.632263,1875
803.751221,1874
803.870117,1858
803.989014,1849
804.107971,1877
804.226746,1855
804.345642,1857
804.4646,1830
804.583496,1836
804.702393,1879
804.821228,1845
804.940125,1904
805.059021,1861
805.177917,1838
805.296814,1892
805.415649,1838
805.534546,1910
805.653442,1871
805.772278,1857
805.891113,1878
806.01001,1898
806.128906,1894
806.247742,1893
806.366577,1943
806.485413,1884
806.604309,1934
806.723145,1874
806.84198,1865
806.960876,1910
807.079712,1876
807.198486,1909
807.317383,1858
807.436218,1999
807.554993,1841
807.673889,1937
807.792725,1912
807.91156,1898
808.030396,1916
808.14917,1864
808.268005,1902
808.386841,1864
808.505676,1913
808.624451,1907
808.743286,1945
808.862122,1931
808.980896,1967
809.099731,1976
809.218506,1940
809.337341,1908
809.456116,1906
809.57489,1958
809.693726,1939
809.8125,1989
809.931274,1963
810.050049,1939
810.168884,1932
810.287659,1951
810.406372,1923
810.525269,1959
810.643982,1941
810.762756,1993
810.881531,1926
811.000305,1995
811.11908,1943
811.237854,1950
811.356567,1974
811.475403,1999
811.594116,1910
811.71283,1925
811.831604,1962
811.950378,1960
812.069153,2001
812.187927,1969
812.30658,1986
812.425415,1948
812.544128,1993
812.662781,1973
812.781616,1961
812.900269,1937
813.019043,1899
813.137756,1946
813.256531,1942
813.375244,1908
813.493896,1999
813.612671,2002
813.731384,1893
813.850037,1981
813.96875,1940
814.087524,1991
814.206238,1944
814.324951,1927
814.443604,1902
814.562256,1945
814.68103,1906
814.799683,1877
814.918335,1895
815.037109,1909
815.155762,1910
815.274475,1975
815.393188,1884
815.511841,1914
815.630554,1892
815.749146,1887
815.867859,1857
815.986572,1859
816.105164,1814
816.223877,1898
816.342529,1925
816.461182,1865
816.579895,1899
816.698486,1916
816.817139,1903
816.935791,1864
817.054504,1917
817.173096,1916
817.291748,1878
817.4104,1878
817.529053,1819
817.647644,1789
817.766235,1759
817.884949,1750
818.00354,1739
818.122192,1673
818.240845,1692
818.359436,1714
818.478088,1662
818.59668,1660
818.715271,1583
818.833923,1598
818.952515,1610
819.071106,1611
819.189758,1535
819.30835,1498
819.426941,1500
819.545532,1512
819.664124,1551
819.782715,1504
819.901306,1507
820.019897,1482
820.138489,1536
820.25708,1513
820.375671,1491
820.494202,1494
820.612732,1475
820.731384,1523
820.849915,1447
820.968506,1459
821.087097,1448
821.205627,1468
821.324158,1458
821.442749,1478
821.561279,1456
821.679871,1471
821.798401,1428
821.916931,1459
822.035461,1416
822.154053,1434
822.272583,1406
822.391174,1423
822.509583,1370
822.628174,1444
822.746704,1413
822.865234,1413
822.983765,1413
823.102295,1420
823.220825,1415
823.339294,1428
823.457825,1419
823.576355,1434
823.694824,1413
823.813354,1444
823.931885,1417
824.050354,1425
824.168884,1444
824.287354,1461
824.405823,1489
824.524353,1410
824.642822,1480
824.761353,1455
824.879822,1439
824.998291,1383
825.116699,1435
825.235291,1400
825.353699,1415
825.472168,1394
825.590637,1417
825.709106,1374
825.827576,1359
825.946045,1342
826.064453,1423
826.182983,1386
826.301392,1394
826.4198,1433
826.53833,1404
826.656738,1365
826.775208,1364
826.893677,1400
827.012024,1342
827.130493,1358
827.248962,1381
827.36731,1358
827.485779,1354
827.604248,1408
827.722595,1341
827.841064,1308
827.959412,1320
828.077942,1390
828.196289,1356
828.314636,1338
828.433105,1364
828.551514,1353
828.669861,1329
828.78833,1346
828.906677,1369
829.025085,1330
829.143433,1324
829.261841,1354
829.38031,1329
829.498657,1322
829.617004,1344
829.735413,1327
829.85376,1361
829.972107,1363
830.090515,1328
830.208862,1288
830.327209,1318
830.445557,1326
830.563904,1356
830.682312,1343
830.800659,1344
830.919006,1315
831.037354,1324
831.155701,1330
831.274048,1313
831.392395,1332
831.51062,1308
831.629028,1328
831.747314,1335
831.865662,1349
831.984009,1287
832.102356,1336
832.220642,1325
832.338928,1321
832.457275,1338
832.575623,1319
832.693909,1316
832.812134,1333
832.930481,1333
833.048828,1331
833.167114,1349
833.2854,1315
833.403687,1327
833.521973,1338
833.640259,1322
833.758545,1354
833.876831,1307
833.995056,1365
834.113281,1347
834.231628,1363
834.349915,1338
834.468201,1361
834.586426,1335
834.704651,1308
834.822998,1318
834.941162,1346
835.059448,1352
835.177673,1348
835.295959,1321
835.414246,1330
835.53241,1343
835.650635,1326
835.768921,1342
835.887146,1364
836.005371,1318
836.123596,1352
836.241821,1354
836.360046,1366
836.478271,1413
836.596497,1362
836.714722,1426
836.832886,1384
836.95105,1386
837.069336,1358
837.1875,1433
837.305725,1428
837.423889,1383
837.542053,1439
837.660339,1370
837.778503,1356
837.896667,1418
838.014832,1377
838.132996,1385
838.25116,1360
838.369385,1419
838.487488,1393
838.605713,1370
838.723877,1373
838.84198,1384
838.960205,1370
839.078308,1378
839.196472,1367
839.314636,1358
839.4328,1365
839.550964,1392
839.669067,1331
839.787231,1357
839.905396,1369
840.023499,1393
840.141602,1358
840.259766,1363
840.377869,1341
840.495972,1372
840.614136,1367
840.732239,1341
840.850342,1336
840.968445,1382
841.086548,1356
841.204651,1424
841.322754,1369
841.440918,1410
841.55896,1367
841.677002,1337
841.795166,1343
841.913208,1322
842.031311,1366
842.149353,1321
842.267456,1321
842.385498,1357
842.503601,1331
842.621643,1316
842.739746,1308
842.857788,1361
842.97583,1355
843.093933,1348
843.211975,1370
843.330017,1356
843.44812,1375
843.566101,1326
843.684204,1355
843.802246,1307
843.920227,1332
844.038269,1338
844.156311,1330
844.274292,1332
844.392395,1334
844.510376,1338
844.628357,1348
844.74646,1349
844.864441,1337
844.982422,1274
845.100403,1320
845.218384,1317
845.336426,1322
845.454468,1314
845.572449,1358
845.69043,1330
845.808411,1331
845.926453,1332
846.044373,1317
846.162354,1313
846.280396,1301
846.398315,1308
846.516296,1353
846.634216,1306
846.752197,1348
846.870178,1325
846.988098,1314
847.106079,1305
847.22406,1310
847.34198,1332
847.4599,1331
847.577881,1348
847.695801,1307
847.813782,1366
847.931641,1334
848.049561,1345
848.167603,1321
848.285461,1322
848.403381,1322
848.521362,1334
848.639221,1303
848.75708,1302
848.875,1323
848.99292,1361
849.110901,1325
849.22876,1336
849.34668,1319
849.464539,1329
849.582458,1324
849.700317,1370
849.818176,1363
849.936096,1331
850.053955,1382
850.171875,1352
850.289673,1357
850.407593,1345
850.525452,1362
850.643311,1341
850.761169,1312
850.878967,1342
850.996887,1327
851.114746,1335
851.232544,1345
851.350403,1349
851.468262,1342
851.58606,1363
851.703979,1358
851.821777,1403
851.939636,1379
852.057434,1347
852.175232,1301
852.293091,1354
852.410889,1355
852.528687,1339
852.646545,1344
852.764343,1322
852.88208,1357
852.999939,1337
853.117676,1332
853.235535,1299
853.353271,1351
853.471069,1337
853.588928,1349
853.706604,1349
853.824402,1317
853.9422,1349
854.059998,1324
854.177734,1353
854.295532,1332
854.413269,1373
854.531006,1316
854.648804,1292
854.766541,1352
854.884277,1316
855.002014,1350
855.119751,1345
855.237549,1335
855.355225,1366
855.473022,1323
855.590698,1365
855.708435,1325
855.826172,1357
855.943848,1357
856.061646,1357
856.179321,1371
856.296997,1352
856.414795,1336
856.53241,1365
856.650085,1324
856.767822,1341
856.885559,1368
857.003174,1302
857.120911,1349
857.238586,1348
857.356201,1367
857.473938,1359
857.591614,1362
857.709351,1326
857.826965,1363
857.944641,1351
858.062317,1349
858.179993,1358
858.297668,1308
858.415283,1310
858.532959,1377
858.650574,1341
858.768188,1382
858.885803,1376
859.003479,1355
859.121094,1357
859.23877,1333
859.356384,1339
859.473999,1337
859.591675,1340
859.709229,1383
859.826843,1362
859.944458,1359
860.062012,1310
860.179626,1333
860.297302,1349
860.414856,1321
860.532471,1358
860.650024,1345
860.767639,1355
860.885193,1343
861.002808,1355
861.120361,1327
861.237976,1350
861.35553,1285
861.473022,1328
861.590698,1306
861.708191,1317
861.825745,1307
861.943298,1356
862.060852,1353
862.178406,1322
862.295959,1368
862.413513,1352
862.531006,1304
862.64856,1335
862.766113,1358
862.883667,1338
863.00116,1390
863.118713,1344
863.236206,1341
863.353699,1359
863.471252,1373
863.588745,1343
863.706177,1371
863.82373,1341
863.941162,1294
864.058716,1365
864.176208,1318
864.29364,1321
864.411194,1350
864.528687,1312
864.646118,1378
864.763611,1332
864.881042,1332
864.998535,1326
865.116028,1361
865.233459,1314
865.350891,1349
865.468384,1324
865.585754,1328
865.703308,1335
865.820679,1373
865.938171,1374
866.055542,1351
866.173035,1354
866.290466,1356
866.407837,1352
866.52533,1352
866.6427,1354
866.760071,1313
866.877563,1331
866.994934,1387
867.112305,1340
867.229736,1322
867.347107,1373
867.464539,1362
867.58197,1347
867.699341,1362
867.81665,1375
867.934082,1346
868.051453,1354
868.168823,1351
868.286194,1298
868.403564,1344
868.520935,1367
868.638306,1382
868.755676,1332
868.872986,1358
868.990295,1370
869.107727,1382
869.225037,1366
869.342346,1390
869.459717,1375
869.577026,1396
869.694336,1380
869.811707,1346
869.929016,1341
870.046326,1366
870.163635,1395
870.280945,1347
870.398254,1379
870.515564,1362
870.632812,1348
870.750183,1361
870.867432,1357
870.984741,1382
871.102051,1344
871.219299,1381
871.336609,1340
871.453918,1324
871.571106,1403
871.688416,1394
871.805664,1366
871.922852,1371
872.040222,1346
872.157471,1360
872.274719,1377
872.391968,1355
872.509155,1388
872.626465,1345
872.743652,1332
872.860962,1406
872.978149,1367
873.095337,1383
873.212646,1357
873.329834,1369
873.44696,1357
873.564209,1382
873.681396,1358
873.798645,1356
873.915894,1340
874.03302,1369
874.150208,1360
874.267456,1327
874.384583,1358
874.501831,1364
874.618958,1354
874.736145,1403
874.853333,1364
874.970459,1319
875.087646,1377
875.204834,1370
875.32196,1337
875.439148,1353
875.556274,1365
875.673401,1341
875.790527,1377
875.907715,1336
876.024841,1342
876.141968,1347
876.259094,1384
876.376282,1376
876.493347,1343
876.610474,1360
876.7276,1369
876.844727,1401
876.961853,1381
877.078918,1381
877.195984,1409
877.313171,1375
877.430237,1378
877.547302,1352
877.664368,1352
877.781433,1420
877.898499,1355
878.015625,1336
878.13269,1368
878.249695,1366
878.366821,1357
878.483887,1316
878.600952,1388
878.717957,1345
878.834961,1372
878.952087,1383
879.069092,1375
879.186157,1372
879.303162,1380
879.420227,1360
879.537231,1379
879.654236,1389
879.77124,1370
879.888306,1357
880.005249,1354
880.122314,1370
880.239319,1388
880.356323,1370
880.473328,1368
880.590271,1386
880.707275,1368
880.824341,1367
880.941284,1400
881.058228,1380
881.175232,1391
881.292236,1391
881.40918,1336
881.526123,1373
881.643066,1313
881.760071,1372
881.877014,1344
881.993958,1412
882.11084,1365
882.227783,1409
882.344727,1374
882.46167,1384
882.578613,1335
882.695618,1345
882.812439,1378
882.929382,1399
883.046326,1358
883.163208,1395
883.280151,1375
883.397034,1352
883.513916,1373
883.630798,1337
883.747742,1411
883.864563,1370
883.981506,1405
884.098389,1433
884.21521,1390
884.332153,1367
884.448975,1407
884.565796,1379
884.682678,1374
884.7995,1400
884.916443,1404
885.033264,1412
885.150085,1383
885.266968,1445
885.383789,1374
885.500671,1397
885.617493,1403
885.734314,1432
885.851196,1406
885.967896,1416
886.084717,1435
886.201599,1419
886.318359,1406
886.435181,1422
886.552002,1388
886.668762,1465
886.785645,1415
886.902344,1446
887.019165,1429
887.135925,1385
887.252747,1406
887.369446,1413
887.486267,1420
887.603027,1390
887.719788,1414
887.836548,1354
887.953247,1440
888.070068,1388
888.186829,1406
888.303528,1380
888.420288,1397
888.536987,1461
888.653687,1396
888.770447,1403
888.887146,1433
889.003967,1416
889.120667,1417
889.237305,1373
889.354065,1459
889.470703,1362
889.587463,1375
889.704163,1419
889.820862,1393
889.937561,1400
890.054199,1408
890.170837,1402
890.287598,1427
890.404236,1421
890.520874,1410
890.637634,1397
890.754211,1428
890.87085,1434
890.987549,1405
891.104187,1450
891.220886,1391
891.337463,1445
891.454102,1407
891.57074,1435
891.687378,1447
891.804077,1419
891.920654,1437
892.037231,1433
892.15387,1428
892.270447,1381
892.387085,1413
892.503723,1444
892.6203,1379
892.736877,1460
892.853516,1384
892.970032,1443
893.08667,1417
893.203186,1457
893.319763,1432
893.43634,1474
893.552917,1411
893.669556,1464
893.786011,1376
893.902588,1417
894.019165,1482
894.135681,1441
894.252197,1394
894.368835,1459
894.485291,1413
894.601868,1415
894.718384,1474
894.8349,1450
894.951355,1416
895.067932,1435
895.184448,1390
895.300964,1408
895.417419,1450
895.533936,1419
895.650452,1437
895.766907,1408
895.883423,1434
895.999878,1403
896.116333,1435
896.232849,1431
896.349304,1432
896.465759,1436
896.582214,1436
896.698669,1441
896.815125,1428
896.931641,1423
897.048035,1427
897.164551,1455
897.280884,1448
897.397339,1386
897.513794,1434
897.630249,1434
897.746582,1483
897.863098,1439
897.979431,1436
898.095886,1466
898.212341,1476
898.328674,1441
898.445129,1430
898.561462,1445
898.677795,1426
898.794312,1432
898.910645,1398
899.026978,1462
899.143433,1481
899.259766,1447
899.37616,1455
899.492493,1435
899.608765,1433
899.725159,1444
899.841553,1474
899.957947,1465
900.07428,1466
900.190552,1449
900.306946,1464
900.423157,1483
900.53949,1393
900.655884,1497
900.772156,1409
900.888489,1448
901.004822,1448
901.121033,1410
901.237366,1391
901.353699,1426
901.46991,1430
901.586304,1467
901.702515,1479
901.818787,1470
901.93512,1429
902.051331,1494
902.167603,1417
902.283875,1463
902.400085,1494
902.516418,1441
902.632629,1483
902.74884,1418
902.865112,1441
902.981384,1461
903.097595,1452
903.213867,1483
903.330017,1448
903.446289,1426
903.5625,1444
903.67865,1420
903.794922,1499
903.911072,1473
904.027344,1459
904.143494,1464
904.259705,1450
904.375916,1456
904.492065,1491
904.608215,1474
904.724426,1493
904.840576,1447
904.956726,1487
905.072876,1401
905.189087,1445
905.305176,1444
905.421387,1477
905.537537,1456
905.653687,1458
905.769775,1524
905.885925,1451
906.002014,1480
906.118164,1483
906.234314,1439
906.350403,1446
906.466492,1487
906.582642,1493
906.69873,1448
906.814758,1505
906.930908,1477
907.046936,1438
907.163086,1499
907.279175,1483
907.395264,1423
907.511353,1478
907.62738,1492
907.743408,1459
907.859497,1472
907.975525,1467
908.091553,1445
908.207703,1460
908.32373,1455
908.439758,1503
908.555786,1507
908.671814,1419
908.787842,1437
908.90387,1471
909.019775,1448
909.135864,1450
909.251892,1463
909.367859,1456
909.483826,1449
909.599854,1463
909.715881,1444
909.831848,1455
909.947815,1495
910.063782,1469
910.179749,1505
910.295776,1466
910.411743,1448
910.527649,1468
910.643616,1467
910.759583,1460
910.875488,1525
910.991455,1494
911.107361,1453
911.223267,1494
911.339294,1476
911.4552,1448
911.571106,1462
911.687073,1442
911.802979,1454
911.918823,1464
912.034729,1450
912.150635,1470
912.266602,1461
912.382446,1467
912.498352,1422
912.614197,1474
912.730103,1451
912.846008,1501
792.44574,2210
792.56488,2218
792.68396,2227
792.80304,2145
792.92218,2133
793.041199,2151
793.160339,2096
793.279419,2056
793.398499,2132
793.517578,2052
793.636658,2036
793.755737,2059
793.874817,2019
793.993896,2026
794.112976,1961
794.232056,1999
794.351074,1973
794.470215,1993
794.589233,1911
794.708313,2000
794.827393,1909
794.946411,1936
795.065552,1897
795.18457,1865
795.303589,1930
795.422668,1927
795.541687,1919
795.660767,1948
795.779846,1896
795.898865,1934
796.017883,1907
796.136963,1921
796.255981,1899
796.375061,1903
796.49408,1881
796.613037,1888
796.732117,1891
796.851135,1888
796.970154,1882
797.089233,1882
797.208191,1829
797.327271,1839
797.446228,1902
797.565186,1830
797.684265,1819
797.803223,1896
797.922241,1810
798.04126,1807
798.160278,1874
798.279297,1789
798.398315,1841
798.517273,1851
798.636292,1822
798.75531,1793
798.874268,1839
798.993286,1837
799.112244,1819
799.231323,1815
799.350281,1831
799.469238,1869
799.588257,1861
799.707153,1815
799.826111,1798
799.945129,1830
800.064087,1817
800.183044,1814
800.302063,1841
800.421021,1792
800.539978,1814
800.658936,1770
800.777893,1857
800.896912,1801
801.015747,1803
801.134705,1812
801.253723,1844
801.37262,1811
801.491638,1815
801.610535,1807
801.729492,1849
801.84845,1862
801.967407,1876
802.086243,1843
802.205261,1847
802.324158,1862
802.443115,1860
802.562073,1847
802.680969,1829
802.799927,1860
802.918762,1845
803.037659,1821
803.156677,1872
803.275574,1847
803.39447,1906
803.513428,1901
803.632263,1912
803.751221,1844
803.870117,1851
803.989014,1860
804.107971,1866
804.226746,1857
804.345642,1865
804.4646,1900
804.583496,1889
804.702393,1846
804.821228,1904
804.940125,1893
805.059021,1888
805.177917,1855
805.296814,1906
805.415649,1896
805.534546,1907
805.653442,1933
805.772278,1897
805.891113,1941
806.01001,1895
806.128906,1878
806.247742,1901
806.366577,1945
806.485413,1928
806.604309,1904
806.723145,1926
806.84198,1859
806.960876,1894
807.079712,1890
807.198486,1958
807.317383,1895
807.436218,1923
807.554993,1889
807.673889,1893
807.792725,1949
807.91156,1907
808.030396,1936
808.14917,1905
808.268005,1922
808.386841,1913
808.505676,1942
808.624451,1925
808.743286,1971
808.862122,1924
808.980896,1953
809.099731,1955
809.218506,1909
809.337341,2015
809.456116,1977
809.57489,1960
809.693726,1961
809.8125,2007
809.931274,1995
810.050049,1970
810.168884,1944
810.287659,1990
810.406372,1985
810.525269,2005
810.643982,1940
810.762756,2014
810.881531,1945
811.000305,1970
811.11908,1981
811.237854,1987
811.356567,1956
811.475403,2014
811.594116,1941
811.71283,1994
811.831604,1966
811.950378,1949
812.069153,1951
812.187927,1994
812.30658,1969
812.425415,2002
812.544128,1941
812.662781,1927
812.781616,1973
812.900269,1963
813.019043,2007
813.137756,2000
813.256531,1979
813.375244,1992
813.493896,1984
813.612671,1971
813.731384,1968
813.850037,1954
813.96875,1987
814.087524,1998
814.206238,1966
814.324951,1933
814.443604,1936
814.562256,1976
814.68103,1933
814.799683,1954
814.918335,1938
815.037109,1912
815.155762,1948
815.274475,1919
815.393188,1917
815.511841,1879
815.630554,1893
815.749146,1900
815.867859,1848
815.986572,1901
816.105164,1890
816.223877,1874
816.342529,1863
816.461182,1897
816.579895,1881
816.698486,1919
816.817139,1884
816.935791,1929
817.054504,1885
817.173096,1905
817.291748,1885
817.4104,1844
817.529053,1860
817.647644,1859
817.766235,1809
817.884949,1773
818.00354,1749
818.122192,1685
818.240845,1706
818.359436,1673
818.478088,1667
818.59668,1622
818.715271,1672
818.833923,1654
818.952515,1559
819.071106,1611
819.189758,1583
819.30835,1611
819.426941,1571
819.545532,1568
819.664124,1516
819.782715,1507
819.901306,1551
820.019897,1539
820.138489,1512
820.25708,1539
820.375671,1569
820.494202,1488
820.612732,1551
820.731384,1496
820.849915,1461
820.968506,1527
821.087097,1485
821.205627,1513
821.324158,1481
821.442749,1443
821.561279,1468
821.679871,1456
821.798401,1507
821.916931,1490
822.035461,1520
822.154053,1496
822.272583,1401
822.391174,1496
822.509583,1473
822.628174,1445
822.746704,1437
822.865234,1444
822.983765,1445
823.102295,1479
823.220825,1425
823.339294,1431
823.457825,1443
823.576355,1459
823.694824,1488
823.813354,1474
823.931885,1444
824.050354,1441
824.168884,1503
824.287354,1437
824.405823,1463
824.524353,1491
824.642822,1443
824.761353,1491
824.879822,1442
824.998291,1446
825.116699,1447
825.235291,1468
825.353699,1408
825.472168,1419
825.590637,1440
825.709106,1444
825.827576,1408
825.946045,1420
826.064453,1423
826.182983,1417
826.301392,1414
826.4198,1470
826.53833,1392
826.656738,1368
826.775208,1413
826.893677,1372
827.012024,1406
827.130493,1391
827.248962,1399
827.36731,1422
827.485779,1395
827.604248,1395
827.722595,1358
827.841064,1367
827.959412,1356
828.077942,1387
828.196289,1387
828.314636,1334
828.433105,1368
828.551514,1352
828.669861,1389
828.78833,1355
828.906677,1379
829.025085,1350
829.143433,1400
829.261841,1354
829.38031,1359
829.498657,1394
829.617004,1386
829.735413,1336
829.85376,1378
829.972107,1355
830.090515,1357
830.208862,1371
830.327209,1354
830.445557,1344
830.563904,1352
830.682312,1336
830.800659,1325
830.919006,1368
831.037354,1329
831.155701,1406
831.274048,1354
831.392395,1370
831.51062,1343
831.629028,1360
831.747314,1375
831.865662,1355
831.984009,1364
832.102356,1371
832.220642,1338
832.338928,1411
832.457275,1346
832.575623,1367
832.693909,1362
832.812134,1356
832.930481,1358
833.048828,1338
833.167114,1335
833.2854,1340
833.403687,1352
833.521973,1337
833.640259,1349
833.758545,1355
833.876831,1320
833.995056,1388
834.113281,1358
834.231628,1361
834.349915,1352
834.468201,1399
834.586426,1333
834.704651,1381
834.822998,1346
834.941162,1373
835.059448,1382
835.177673,1361
835.295959,1389
835.414246,1420
835.53241,1360
835.650635,1349
835.768921,1383
835.887146,1379
836.005371,1357
836.123596,1410
836.241821,1390
836.360046,1373
836.478271,1370
836.596497,1415
836.714722,1415
836.832886,1420
836.95105,1394
837.069336,1415
837.1875,1376
837.305725,1379
837.423889,1451
837.542053,1441
837.660339,1402
837.778503,1405
837.896667,1407
838.014832,1392
838.132996,1386
838.25116,1412
838.369385,1419
838.487488,1405
838.605713,1365
838.723877,1429
838.84198,1364
838.960205,1409
839.078308,1415
839.196472,1402
839.314636,1366
839.4328,1415
839.550964,1438
839.669067,1424
839.787231,1364
839.905396,1385
840.023499,1395
840.141602,1355
840.259766,1378
840.377869,1431
840.495972,1415
840.614136,1387
840.732239,1390
840.850342,1415
840.968445,1360
841.086548,1375
841.204651,1384
841.322754,1379
841.440918,1328
841.55896,1382
841.677002,1349
841.795166,1382
841.913208,1382
842.031311,1365
842.149353,1334
842.267456,1377
842.385498,1372
842.503601,1350
842.621643,1361
842.739746,1360
842.857788,1331
842.97583,1391
843.093933,1339
843.211975,1325
843.330017,1382
843.44812,1339
843.566101,1381
843.684204,1359
843.802246,1375
843.920227,1381
844.038269,1336
844.156311,1400
844.274292,1326
844.392395,1372
844.510376,1324
844.628357,1364
844.74646,1334
844.864441,1326
844.982422,1380
845.100403,1338
845.218384,1355
845.336426,1344
845.454468,1350
845.572449,1358
845.69043,1328
845.808411,1353
845.926453,1345
846.044373,1329
846.162354,1308
846.280396,1354
846.398315,1336
846.516296,1325
846.634216,1363
846.752197,1335
846.870178,1373
846.988098,1315
847.106079,1368
847.22406,1336
847.34198,1343
847.4599,1339
847.577881,1321
847.695801,1349
847.813782,1338
847.931641,1379
848.049561,1342
848.167603,1358
848.285461,1331
848.403381,1339
848.521362,1369
848.639221,1341
848.75708,1355
848.875,1363
848.99292,1374
849.110901,1345
849.22876,1387
849.34668,1386
849.464539,1356
849.582458,1369
849.700317,1343
849.818176,1407
849.936096,1394
850.053955,1345
850.171875,1352
850.289673,1374
850.407593,1352
850.525452,1397
850.643311,1346
850.761169,1384
850.878967,1365
850.996887,1393
851.114746,1392
851.232544,1380
851.350403,1374
851.468262,1377
851.58606,1396
851.703979,1382
851.821777,1354
851.939636,1376
852.057434,1362
852.175232,1352
852.293091,1319
852.410889,1365
852.528687,1324
852.646545,1377
852.764343,1344
852.88208,1351
852.999939,1352
853.117676,1374
853.235535,1336
853.353271,1324
853.471069,1318
853.588928,1331
853.706604,1309
853.824402,1401
853.9422,1361
854.059998,1324
854.177734,1370
854.295532,1411
854.413269,1362
854.531006,1358
854.648804,1339
854.766541,1341
854.884277,1349
855.002014,1376
855.119751,1370
855.237549,1368
855.355225,1365
855.473022,1357
855.590698,1377
855.708435,1358
855.826172,1326
855.943848,1418
856.061646,1365
856.179321,1350
856.296997,1378
856.414795,1369
856.53241,1381
856.650085,1384
856.767822,1407
856.885559,1374
857.003174,1404
857.120911,1391
857.238586,1397
857.356201,1352
857.473938,1377
857.591614,1362
857.709351,1369
857.826965,1395
857.944641,1374
858.062317,1399
858.179993,1385
858.297668,1372
858.415283,1388
858.532959,1407
858.650574,1385
858.768188,1347
858.885803,1398
859.003479,1373
859.121094,1376
859.23877,1353
859.356384,1340
859.473999,1375
859.591675,1386
859.709229,1398
859.826843,1362
859.944458,1329
860.062012,1363
860.179626,1374
860.297302,1367
860.414856,1391
860.532471,1364
860.650024,1385
860.767639,1372
860.885193,1341
861.002808,1357
861.120361,1366
861.237976,1362
861.35553,1367
861.473022,1404
861.590698,1345
861.708191,1370
861.825745,1334
861.943298,1362
862.060852,1361
862.178406,1385
862.295959,1345
862.413513,1363
862.531006,1318
862.64856,1306
862.766113,1374
862.883667,1317
863.00116,1355
863.118713,1359
863.236206,1346
863.353699,1369
863.471252,1372
863.588745,1376
863.706177,1384
863.82373,1351
863.941162,1369
864.058716,1336
864.176208,1358
864.29364,1386
864.411194,1361
864.528687,1319
864.646118,1368
864.763611,1370
864.881042,1356
864.998535,1407
865.116028,1380
865.233459,1359
865.350891,1365
865.468384,1368
865.585754,1406
865.703308,1338
865.820679,1370
865.938171,1342
866.055542,1356
866.173035,1377
866.290466,1351
866.407837,1330
866.52533,1374
866.6427,1369
866.760071,1374
866.877563,1391
866.994934,1377
867.112305,1399
867.229736,1363
867.347107,1393
867.464539,1363
867.58197,1410
867.699341,1442
867.81665,1357
867.934082,1409
868.051453,1375
868.168823,1374
868.286194,1405
868.403564,1342
868.520935,1340
868.638306,1379
868.755676,1389
868.872986,1399
868.990295,1367
869.107727,1402
869.225037,1402
869.342346,1392
869.459717,1384
869.577026,1396
869.694336,1387
869.811707,1397
869.929016,1385
870.046326,1365
870.163635,1379
870.280945,1405
870.398254,1374
870.515564,1384
870.632812,1379
870.750183,1385
870.867432,1420
870.984741,1400
871.102051,1391
871.219299,1374
871.336609,1376
871.453918,1388
871.571106,1380
871.688416,1391
871.805664,1373
871.922852,1365
872.040222,1423
872.157471,1399
872.274719,1414
872.391968,1377
872.509155,1390
872.626465,1353
872.743652,1388
872.860962,1429
872.978149,1360
873.095337,1425
873.212646,1379
873.329834,1367
873.44696,1415
873.564209,1363
873.681396,1374
873.798645,1403
873.915894,1375
874.03302,1396
874.150208,1357
874.267456,1393
874.384583,1334
874.501831,1381
874.618958,1370
874.736145,1382
874.853333,1428
874.970459,1371
875.087646,1411
875.204834,1373
875.32196,1388
875.439148,1361
875.556274,1378
875.673401,1381
875.790527,1392
875.907715,1371
876.024841,1388
876.141968,1380
876.259094,1387
876.376282,1361
876.493347,1435
876.610474,1362
876.7276,1413
876.844727,1380
876.961853,1367
877.078918,1375
877.195984,1392
877.313171,1396
877.430237,1385
877.547302,1416
877.664368,1374
877.781433,1437
877.898499,1394
878.015625,1371
878.13269,1385
878.249695,1361
878.366821,1390
878.483887,1405
878.600952,1404
878.717957,1389
878.834961,1405
878.952087,1435
879.069092,1395
879.186157,1397
879.303162,1403
879.420227,1410
879.537231,1372
879.654236,1384
879.77124,1390
879.888306,1379
880.005249,1398
880.122314,1427
880.239319,1395
880.356323,1389
880.473328,1410
880.590271,1369
880.707275,1405
880.824341,1400
880.941284,1380
881.058228,1392
881.175232,1399
881.292236,1397
881.40918,1366
881.526123,1451
881.643066,1388
881.760071,1367
881.877014,1395
881.993958,1379
882.11084,1371
882.227783,1373
882.344727,1397
882.46167,1373
882.578613,1382
882.695618,1419
882.812439,1398
882.929382,1400
883.046326,1403
883.163208,1417
883.280151,1456
883.397034,1350
883.513916,1452
883.630798,1390
883.747742,1418
883.864563,1400
883.981506,1363
884.098389,1398
884.21521,1448
884.332153,1437
884.448975,1397
884.565796,1453
884.682678,1438
884.7995,1392
884.916443,1515
885.033264,1416
885.150085,1446
885.266968,1411
885.383789,1391
885.500671,1456
885.617493,1399
885.734314,1447
885.851196,1424
885.967896,1407
886.084717,1460
886.201599,1443
886.318359,1413
886.435181,1423
886.552002,1451
886.668762,1456
886.785645,1400
886.902344,1486
887.019165,1428
887.135925,1427
887.252747,1421
887.369446,1422
887.486267,1454
887.603027,1450
887.719788,1409
887.836548,1439
887.953247,1433
888.070068,1434
888.186829,1456
888.303528,1412
888.420288,1442
888.536987,1423
888.653687,1439
888.770447,1433
888.887146,1440
889.003967,1444
889.120667,1424
889.237305,1441
889.354065,1436
889.470703,1441
889.587463,1434
889.704163,1432
889.820862,1398
889.937561,1418
890.054199,1438
890.170837,1428
890.287598,1392
890.404236,1436
890.520874,1413
890.637634,1416
890.754211,1493
890.87085,1408
890.987549,1452
891.104187,1457
891.220886,1422
891.337463,1435
891.454102,1471
891.57074,1420
891.687378,1421
891.804077,1447
891.920654,1407
892.037231,1434
892.15387,1465
892.270447,1453
892.387085,1442
892.503723,1447
892.6203,1428
892.736877,1443
892.853516,1460
892.970032,1456
893.08667,1458
893.203186,1438
893.319763,1446
893.43634,1458
893.552917,1419
893.669556,1458
893.786011,1422
893.902588,1451
894.019165,1442
894.135681,1428
894.252197,1480
894.368835,1480
894.485291,1445
894.601868,1439
894.718384,1442
894.8349,1444
894.951355,1466
895.067932,1489
895.184448,1439
895.300964,1474
895.417419,1485
895.533936,1474
895.650452,1443
895.766907,1461
895.883423,1449
895.999878,1474
896.116333,1480
896.232849,1465
896.349304,1493
896.465759,1479
896.582214,1454
896.698669,1490
896.815125,1446
896.931641,1448
897.048035,1492
897.164551,1461
897.280884,1450
897.397339,1489
897.513794,1475
897.630249,1450
897.746582,1439
897.863098,1452
897.979431,1483
898.095886,1491
898.212341,1452
898.328674,1479
898.445129,1473
898.561462,1461
898.677795,1479
898.794312,1489
898.910645,1457
899.026978,1484
899.143433,1502
899.259766,1452
899.37616,1453
899.492493,1446
899.608765,1459
899.725159,1449
899.841553,1467
899.957947,1442
900.07428,1439
900.190552,1484
900.306946,1513
900.423157,1463
900.53949,1480
900.655884,1477
900.772156,1474
900.888489,1472
901.004822,1475
901.121033,1472
901.237366,1446
901.353699,1487
901.46991,1490
901.586304,1502
901.702515,1457
901.818787,1460
901.93512,1469
902.051331,1511
902.167603,1488
902.283875,1506
902.400085,1449
902.516418,1489
902.632629,1484
902.74884,1537
902.865112,1506
902.981384,1483
903.097595,1530
903.213867,1489
903.330017,1461
903.446289,1483
903.5625,1499
903.67865,1525
903.794922,1501
903.911072,1457
904.027344,1505
904.143494,1523
904.259705,1475
904.375916,1519
904.492065,1496
904.608215,1543
904.724426,1481
904.840576,1502
904.956726,1471
905.072876,1494
905.189087,1477
905.305176,1506
905.421387,1528
905.537537,1495
905.653687,1551
905.769775,1516
905.885925,1522
906.002014,1461
906.118164,1487
906.234314,1506
906.350403,1495
906.466492,1556
906.582642,1452
906.69873,1495
906.814758,1530
906.930908,1487
907.046936,1433
907.163086,1508
907.279175,1499
907.395264,1462
907.511353,1502
907.62738,1513
907.743408,1552
907.859497,1493
907.975525,1502
908.091553,1483
908.207703,1492
908.32373,1492
908.439758,1519
908.555786,1509
908.671814,1491
908.787842,1508
908.90387,1498
909.019775,1528
909.135864,1472
909.251892,1504
909.367859,1531
909.483826,1500
909.599854,1500
909.715881,1512
909.831848,1506
909.947815,1565
910.063782,1477
910.179749,1524
910.295776,1497
910.411743,1510
910.527649,1497
910.643616,1511
910.759583,1508
910.875488,1490
910.991455,1492
911.107361,1496
911.223267,1495
911.339294,1523
911.4552,1508
911.571106,1528
911.687073,1532
911.802979,1528
911.918823,1485
912.034729,1505
912.150635,1499
912.266602,1507
912.382446,1537
912.498352,1515
912.614197,1485
912.730103,1528
912.846008,1475
792.44574,2244
792.56488,2163
792.68396,2247
792.80304,2150
792.92218,2127
793.041199,2119
793.160339,2106
793.279419,2119
793.398499,2096
793.517578,2074
793.636658,2068
793.755737,2063
793.874817,2039
793.993896,2013
794.112976,2003
794.232056,1995
794.351074,1978
794.470215,2015
794.589233,2026
794.708313,1922
794.827393,1913
794.946411,1934
795.065552,2009
795.18457,1881
795.303589,1912
795.422668,1920
795.541687,1952
795.660767,1894
795.779846,1904
795.898865,1945
796.017883,1913
796.136963,1897
796.255981,1867
796.375061,1921
796.49408,1876
796.613037,1930
796.732117,1858
796.851135,1902
796.970154,1875
797.089233,1899
797.208191,1886
797.327271,1876
797.446228,1883
797.565186,1817
797.684265,1932
797.803223,1836
797.922241,1837
798.04126,1851
798.160278,1859
798.279297,1772
798.398315,1816
798.517273,1844
798.636292,1835
798.75531,1858
798.874268,1837
798.993286,1796
799.112244,1823
799.231323,1873
799.350281,1849
799.469238,1841
799.588257,1866
799.707153,1910
799.826111,1841
799.945129,1878
800.064087,1868
800.183044,1785
800.302063,1809
800.421021,1839
800.539978,1810
800.658936,1834
800.777893,1833
800.896912,1792
801.015747,1826
801.134705,1846
801.253723,1843
801.37262,1844
801.491638,1848
801.610535,1839
801.729492,1878
801.84845,1829
801.967407,1856
802.086243,1869
802.205261,1823
802.324158,1837
802.443115,1879
802.562073,1856
802.680969,1881
802.799927,1863
802.918762,1829
803.037659,1834
803.156677,1842
803.275574,1847
803.39447,1862
803.513428,1868
803.632263,1902
803.751221,1877
803.870117,1850
803.989014,1915
804.107971,1932
804.226746,1882
804.345642,1877
804.4646,1837
804.583496,1893
804.702393,1897
804.821228,1881
804.940125,1923
805.059021,1861
805.177917,1887
805.296814,1917
805.415649,1874
805.534546,1909
805.653442,1895
805.772278,1913
805.891113,1920
806.01001,1894
806.128906,1897
806.247742,1893
806.366577,1943
806.485413,1922
806.604309,1941
806.723145,1908
806.84198,1885
806.960876,1905
807.079712,1890
807.198486,1869
807.317383,1932
807.436218,1918
807.554993,1950
807.673889,1960
807.792725,1960
807.91156,1933
808.030396,1912
808.14917,1943
808.268005,1900
808.386841,1943
808.505676,1931
808.624451,1926
808.743286,1893
808.862122,1934
808.980896,1942
809.099731,1938
809.218506,1999
809.337341,1945
809.456116,1968
809.57489,1925
809.693726,1983
809.8125,1911
809.931274,1935
810.050049,2010
810.168884,1958
810.287659,1946
810.406372,1972
810.525269,1983
810.643982,1916
810.762756,1995
810.881531,1949
811.000305,1978
811.11908,1939
811.237854,1982
811.356567,1998
811.475403,1955
811.594116,1928
811.71283,1917
811.831604,1973
811.950378,1999
812.069153,1958
812.187927,2005
812.30658,1944
812.425415,1931
812.544128,1964
812.662781,1948
812.781616,1919
812.900269,1927
813.019043,1998
813.137756,1989
813.256531,1930
813.375244,1976
813.493896,2013
813.612671,1934
813.731384,1969
813.850037,1993
813.96875,1950
814.087524,1976
814.206238,1944
814.324951,1894
814.443604,1949
814.562256,1958
814.68103,1968
814.799683,1932
814.918335,1891
815.037109,1926
815.155762,1900
815.274475,1925
815.393188,1890
815.511841,1902
815.630554,1898
815.749146,1854
815.867859,1879
815.986572,1878
816.105164,1910
816.223877,1852
816.342529,1840
816.461182,1897
816.579895,1895
816.698486,1895
816.817139,1928
816.935791,1938
817.054504,1888
817.173096,1895
817.291748,1870
817.4104,1907
817.529053,1869
817.647644,1860
817.766235,1776
817.884949,1798
818.00354,1778
818.122192,1710
818.240845,1711
818.359436,1678
818.478088,1698
818.59668,1630
818.715271,1676
818.833923,1639
818.952515,1591
819.071106,1582
819.189758,1541
819.30835,1530
819.426941,1556
819.545532,1560
819.664124,1565
819.782715,1557
819.901306,1484
820.019897,1503
820.138489,1540
820.25708,1583
820.375671,1513
820.494202,1525
820.612732,1490
820.731384,1475
820.849915,1491
820.968506,1518
821.087097,1547
821.205627,1500
821.324158,1467
821.442749,1526
821.561279,1471
821.679871,1515
821.798401,1451
821.916931,1515
822.035461,1467
822.154053,1464
822.272583,1450
822.391174,1418
822.509583,1443
822.628174,1477
822.746704,1458
822.865234,1431
822.983765,1459
823.102295,1449
823.220825,1489
823.339294,1483
823.457825,1439
823.576355,1447
823.694824,1471
823.813354,1434
823.931885,1455
824.050354,1450
824.168884,1468
824.287354,1509
824.405823,1501
824.524353,1478
824.642822,1493
824.761353,1475
824.879822,1502
824.998291,1403
825.116699,1492
825.235291,1450
825.353699,1473
825.472168,1486
825.590637,1446
825.709106,1476
825.827576,1380
825.946045,1394
826.064453,1457
826.182983,1406
826.301392,1465
826.4198,1386
826.53833,1449
826.656738,1379
826.775208,1414
826.893677,1412
827.012024,1398
827.130493,1409
827.248962,1397
827.36731,1402
827.485779,1376
827.604248,1407
827.722595,1403
827.841064,1367
827.959412,1348
828.077942,1373
828.196289,1344
828.314636,1386
828.433105,1365
828.551514,1378
828.669861,1387
828.78833,1403
828.906677,1359
829.025085,1385
829.143433,1371
829.261841,1407
829.38031,1364
829.498657,1385
829.617004,1364
829.735413,1390
829.85376,1370
829.972107,1367
830.090515,1310
830.208862,1433
830.327209,1369
830.445557,1355
830.563904,1361
830.682312,1394
830.800659,1378
830.919006,1343
831.037354,1358
831.155701,1373
831.274048,1386
831.392395,1364
831.51062,1371
831.629028,1314
831.747314,1376
831.865662,1374
831.984009,1376
832.102356,1323
832.220642,1329
832.338928,1370
832.457275,1353
832.575623,1368
832.693909,1371
832.812134,1372
832.930481,1354
833.048828,1364
833.167114,1340
833.2854,1367
833.403687,1379
833.521973,1414
833.640259,1366
833.758545,1355
833.876831,1342
833.995056,1362
834.113281,1347
834.231628,1409
834.349915,1354
834.468201,1353
834.586426,1328
834.704651,1354
834.822998,1330
834.941162,1407
835.059448,1381
835.177673,1375
835.295959,1355
835.414246,1344
835.53241,1325
835.650635,1358
835.768921,1389
835.887146,1384
836.005371,1368
836.123596,1395
836.241821,1317
836.360046,1394
836.478271,1367
836.596497,1419
836.714722,1442
836.832886,1428
836.95105,1402
837.069336,1435
837.1875,1404
837.305725,1406
837.423889,1388
837.542053,1433
837.660339,1401
837.778503,1403
837.896667,1426
838.014832,1434
838.132996,1410
838.25116,1462
838.369385,1389
838.487488,1428
838.605713,1427
838.723877,1392
838.84198,1401
838.960205,1414
839.078308,1411
839.196472,1426
839.314636,1384
839.4328,1448
839.550964,1422
839.669067,1453
839.787231,1358
839.905396,1441
840.023499,1406
840.141602,1386
840.259766,1410
840.377869,1420
840.495972,1413
840.614136,1376
840.732239,1397
840.850342,1370
840.968445,1389
841.086548,1394
841.204651,1388
841.322754,1453
841.440918,1384
841.55896,1378
841.677002,1407
841.795166,1376
841.913208,1367
842.031311,1374
842.149353,1364
842.267456,1350
842.385498,1376
842.503601,1344
842.621643,1340
842.739746,1369
842.857788,1361
842.97583,1358
843.093933,1353
843.211975,1362
843.330017,1378
843.44812,1406
843.566101,1323
843.684204,1335
843.802246,1337
843.920227,1371
844.038269,1381
844.156311,1334
844.274292,1376
844.392395,1329
844.510376,1367
844.628357,1361
844.74646,1362
844.864441,1366
844.982422,1352
845.100403,1403
845.218384,1337
845.336426,1358
845.454468,1318
845.572449,1365
845.69043,1346
845.808411,1343
845.926453,1364
846.044373,1354
846.162354,1379
846.280396,1351
846.398315,1325
846.516296,1364
846.634216,1331
846.752197,1330
846.870178,1344
846.988098,1340
847.106079,1327
847.22406,1325
847.34198,1354
847.4599,1357
847.577881,1363
847.695801,1357
847.813782,1334
847.931641,1335
848.049561,1374
848.167603,1365
848.285461,1334
848.403381,1400
848.521362,1340
848.639221,1345
848.75708,1326
848.875,1365
848.99292,1412
849.110901,1352
849.22876,1400
849.34668,1312
849.464539,1368
849.582458,1366
849.700317,1402
849.818176,1327
849.936096,1360
850.053955,1372
850.171875,1394
850.289673,1410
850.407593,1393
850.525452,1368
850.643311,1424
850.761169,1376
850.878967,1382
850.996887,1402
851.114746,1353
851.232544,1368
851.350403,1336
851.468262,1356
851.58606,1389
851.703979,1351
851.821777,1370
851.939636,1369
852.057434,1367
852.175232,1343
852.293091,1395
852.410889,1360
852.528687,1387
852.646545,1338
852.764343,1368
852.88208,1351
852.999939,1375
853.117676,1410
853.235535,1379
853.353271,1345
853.471069,1321
853.588928,1314
853.706604,1344
853.824402,1356
853.9422,1374
854.059998,1389
854.177734,1299
854.295532,1336
854.413269,1361
854.531006,1423
854.648804,1375
854.766541,1377
854.884277,1342
855.002014,1386
855.119751,1345
855.237549,1387
855.355225,1388
855.473022,1379
855.590698,1363
855.708435,1365
855.826172,1389
855.943848,1398
856.061646,1385
856.179321,1403
856.296997,1357
856.414795,1366
856.53241,1366
856.650085,1392
856.767822,1384
856.885559,1391
857.003174,1364
857.120911,1393
857.238586,1411
857.356201,1414
857.473938,1363
857.591614,1382
857.709351,1368
857.826965,1364
857.944641,1380
858.062317,1347
858.179993,1428
858.297668,1410
858.415283,1403
858.532959,1394
858.650574,1366
858.768188,1399
858.885803,1360
859.003479,1410
859.121094,1315
859.23877,1400
859.356384,1341
859.473999,1377
859.591675,1366
859.709229,1403
859.826843,1390
859.944458,1395
860.062012,1373
860.179626,1364
860.297302,1377
860.414856,1348
860.532471,1354
860.650024,1378
860.767639,1345
860.885193,1394
861.002808,1374
861.120361,1383
861.237976,1350
861.35553,1377
861.473022,1395
861.590698,1363
861.708191,1378
861.825745,1354
861.943298,1340
862.060852,1347
862.178406,1354
862.295959,1384
862.413513,1330
862.531006,1391
862.64856,1389
862.766113,1402
862.883667,1371
863.00116,1358
863.118713,1402
863.236206,1401
863.353699,1393
863.471252,1397
863.588745,1325
863.706177,1407
863.82373,1325
863.941162,1357
864.058716,1380
864.176208,1415
864.29364,1396
864.411194,1399
864.528687,1372
864.646118,1340
864.763611,1394
864.881042,1373
864.998535,1361
865.116028,1362
865.233459,1371
865.350891,1366
865.468384,1359
865.585754,1403
865.703308,1349
865.820679,1391
865.938171,1344
866.055542,1377
866.173035,1391
866.290466,1364
866.407837,1343
866.52533,1363
866.6427,1365
866.760071,1409
866.877563,1374
866.994934,1421
867.112305,1364
867.229736,1372
867.347107,1371
867.464539,1356
867.58197,1395
867.699341,1413
867.81665,1399
867.934082,1351
868.051453,1369
868.168823,1388
868.286194,1396
868.403564,1373
868.520935,1374
868.638306,1367
868.755676,1377
868.872986,1343
868.990295,1378
869.107727,1369
869.225037,1358
869.342346,1361
869.459717,1366
869.577026,1402
869.694336,1394
869.811707,1412
869.929016,1393
870.046326,1406
870.163635,1365
870.280945,1396
870.398254,1399
870.515564,1394
870.632812,1408
870.750183,1357
870.867432,1385
870.984741,1376
871.102051,1380
871.219299,1343
871.336609,1370
871.453918,1381
871.571106,1382
871.688416,1403
871.805664,1378
871.922852,1415
872.040222,1390
872.157471,1442
872.274719,1411
872.391968,1388
872.509155,1410
872.626465,1402
872.743652,1393
872.860962,1436
872.978149,1349
873.095337,1410
873.212646,1385
873.329834,1444
873.44696,1419
873.564209,1379
873.681396,1397
873.798645,1404
873.915894,1367
874.03302,1385
874.150208,1390
874.267456,1391
874.384583,1361
874.501831,1400
874.618958,1385
874.736145,1399
874.853333,1398
874.970459,1377
875.087646,1371
875.204834,1390
875.32196,1371
875.439148,1378
875.556274,1387
875.673401,1340
875.790527,1383
875.907715,1414
876.024841,1385
876.141968,1398
876.259094,1352
876.376282,1438
876.493347,1397
876.610474,1416
876.7276,1409
876.844727,1391
876.961853,1438
877.078918,1375
877.195984,1389
877.313171,1399
877.430237,1407
877.547302,1412
877.664368,1399
877.781433,1428
877.898499,1411
878.015625,1378
878.13269,1418
878.249695,1415
878.366821,1388
878.483887,1417
878.600952,1378
878.717957,1384
878.834961,1392
878.952087,1401
879.069092,1415
879.186157,1415
879.303162,1384
879.420227,1438
879.537231,1400
879.654236,1419
879.77124,1404
879.888306,1446
880.005249,1396
880.122314,1397
880.239319,1389
880.356323,1399
880.473328,1401
880.590271,1376
880.707275,1401
880.824341,1389
880.941284,1387
881.058228,1390
881.175232,1418
881.292236,1398
881.40918,1413
881.526123,1399
881.643066,1400
881.760071,1434
881.877014,1390
881.993958,1424
882.11084,1383
882.227783,1430
882.344727,1379
882.46167,1408
882.578613,1413
882.695618,1338
882.812439,1462
882.929382,1418
883.046326,1430
883.163208,1379
883.280151,1404
883.397034,1419
883.513916,1401
883.630798,1396
883.747742,1402
883.864563,1429
883.981506,1435
884.098389,1408
884.21521,1424
884.332153,1457
884.448975,1375
884.565796,1485
884.682678,1441
884.7995,1426
884.916443,1445
885.033264,1495
885.150085,1439
885.266968,1394
885.383789,1436
885.500671,1469
885.617493,1464
885.734314,1430
885.851196,1431
885.967896,1441
886.084717,1480
886.201599,1412
886.318359,1432
886.435181,1441
886.552002,1452
886.668762,1414
886.785645,1438
886.902344,1451
887.019165,1475
887.135925,1448
887.252747,1447
887.369446,1420
887.486267,1454
887.603027,1414
887.719788,1430
887.836548,1428
887.953247,1404
888.070068,1413
888.186829,1426
888.303528,1423
888.420288,1464
888.536987,1428
888.653687,1401
888.770447,1417
888.887146,1420
889.003967,1436
889.120667,1438
889.237305,1418
889.354065,1437
889.470703,1469
889.587463,1456
889.704163,1426
889.820862,1471
889.937561,1480
890.054199,1421
890.170837,1385
890.287598,1422
890.404236,1465
890.520874,1409
890.637634,1459
890.754211,1475
890.87085,1446
890.987549,1440
891.104187,1455
891.220886,1391
891.337463,1447
891.454102,1421
891.57074,1496
891.687378,1443
891.804077,1478
891.920654,1457
892.037231,1402
892.15387,1482
892.270447,1453
892.387085,1466
892.503723,1483
892.6203,1406
892.736877,1458
892.853516,1473
892.970032,1481
893.08667,1465
893.203186,1501
893.319763,1444
893.43634,1474
893.552917,1450
893.669556,1471
893.786011,1479
893.902588,1451
894.019165,1445
894.135681,1488
894.252197,1509
894.368835,1484
894.485291,1442
894.601868,1486
894.718384,1477
894.8349,1406
894.951355,1450
895.067932,1438
895.184448,1503
895.300964,1463
895.417419,1459
895.533936,1452
895.650452,1486
895.766907,1480
895.883423,1435
895.999878,1474
896.116333,1463
896.232849,1488
896.349304,1483
896.465759,1437
896.582214,1483
896.698669,1447
896.815125,1486
896.931641,1418
897.048035,1478
897.164551,1462
897.280884,1483
897.397339,1438
897.513794,1495
897.630249,1491
897.746582,1469
897.863098,1485
897.979431,1484
898.095886,1438
898.212341,1462
898.328674,1474
898.445129,1495
898.561462,1496
898.677795,1491
898.794312,1435
898.910645,1449
899.026978,1489
899.143433,1466
899.259766,1449
899.37616,1467
899.492493,1447
899.608765,1502
899.725159,1442
899.841553,1469
899.957947,1454
900.07428,1473
900.190552,1465
900.306946,1504
900.423157,1449
900.53949,1516
900.655884,1556
900.772156,1509
900.888489,1506
901.004822,1461
901.121033,1491
901.237366,1467
901.353699,1463
901.46991,1496
901.586304,1493
901.702515,1478
901.818787,1457
901.93512,1437
902.051331,1537
902.167603,1537
902.283875,1511
902.400085,1435
902.516418,1505
902.632629,1487
902.74884,1503
902.865112,1511
902.981384,1518
903.097595,1514
903.213867,1500
903.330017,1500
903.446289,1514
903.5625,1508
903.67865,1496
903.794922,1519
903.911072,1522
904.027344,1518
904.143494,1504
904.259705,1456
904.375916,1499
904.492065,1539
904.608215,1498
904.724426,1527
904.840576,1526
904.956726,1503
905.072876,1514
905.189087,1520
905.305176,1495
905.421387,1519
905.537537,1541
905.653687,1501
905.769775,1499
905.885925,1512
906.002014,1525
906.118164,1488
906.234314,1501
906.350403,1498
906.466492,1519
906.582642,1490
906.69873,1584
906.814758,1542
906.930908,1528
907.046936,1515
907.163086,1545
907.279175,1524
907.395264,1513
907.511353,1516
907.62738,1496
907.743408,1512
907.859497,1555
907.975525,1486
908.091553,1520
908.207703,1494
908.32373,1520
908.439758,1516
908.555786,1513
908.671814,1514
908.787842,1508
908.90387,1536
909.019775,1472
909.135864,1498
909.251892,1515
909.367859,1537
909.483826,1497
909.599854,1504
909.715881,1508
909.831848,1531
909.947815,1541
910.063782,1505
910.179749,1539
910.295776,1482
910.411743,1541
910.527649,1510
910.643616,1532
910.759583,1499
910.875488,1534
910.991455,1511
911.107361,1552
911.223267,1501
911.339294,1541
911.4552,1533
911.571106,1477
911.687073,1488
911.802979,1524
911.918823,1483
912.034729,1508
912.150635,1518
912.266602,1484
912.382446,1523
912.498352,1503
912.614197,1474
912.730103,1534
912.846008,1545
