792.44574,1943
792.56488,1875
792.68396,1913
792.80304,1872
792.92218,1834
793.041199,1815
793.160339,1798
793.279419,1787
793.398499,1817
793.517578,1744
793.636658,1766
793.755737,1807
793.874817,1737
793.993896,1766
794.112976,1722
794.232056,1702
794.351074,1758
794.470215,1742
794.589233,1729
794.708313,1746
794.827393,1671
794.946411,1692
795.065552,1691
795.18457,1706
795.303589,1708
795.422668,1718
795.541687,1671
795.660767,1624
795.779846,1675
795.898865,1670
796.017883,1692
796.136963,1653
796.255981,1624
796.375061,1597
796.49408,1625
796.613037,1655
796.732117,1655
796.851135,1622
796.970154,1611
797.089233,1642
797.208191,1620
797.327271,1598
797.446228,1579
797.565186,1619
797.684265,1649
797.803223,1635
797.922241,1584
798.04126,1584
798.160278,1571
798.279297,1577
798.398315,1615
798.517273,1581
798.636292,1569
798.75531,1592
798.874268,1552
798.993286,1595
799.112244,1550
799.231323,1582
799.350281,1573
799.469238,1613
799.588257,1569
799.707153,1576
799.826111,1550
799.945129,1553
800.064087,1562
800.183044,1588
800.302063,1557
800.421021,1611
800.539978,1551
800.658936,1544
800.777893,1568
800.896912,1551
801.015747,1563
801.134705,1504
801.253723,1578
801.37262,1533
801.491638,1522
801.610535,1569
801.729492,1568
801.84845,1559
801.967407,1529
802.086243,1545
802.205261,1542
802.324158,1538
802.443115,1538
802.562073,1515
802.680969,1546
802.799927,1517
802.918762,1525
803.037659,1519
803.156677,1530
803.275574,1510
803.39447,1556
803.513428,1530
803.632263,1553
803.751221,1552
803.870117,1553
803.989014,1537
804.107971,1559
804.226746,1567
804.345642,1543
804.4646,1510
804.583496,1494
804.702393,1513
804.821228,1493
804.940125,1564
805.059021,1506
805.177917,1531
805.296814,1538
805.415649,1521
805.534546,1515
805.653442,1558
805.772278,1520
805.891113,1542
806.01001,1497
806.128906,1505
806.247742,1524
806.366577,1537
806.485413,1531
806.604309,1537
806.723145,1516
806.84198,1509
806.960876,1515
807.079712,1530
807.198486,1518
807.317383,1537
807.436218,1507
807.554993,1555
807.673889,1544
807.792725,1505
807.91156,1562
808.030396,1527
808.14917,1513
808.268005,1544
808.386841,1486
808.505676,1514
808.624451,1513
808.743286,1471
808.862122,1545
808.980896,1501
809.099731,1525
809.218506,1545
809.337341,1529
809.456116,1535
809.57489,1505
809.693726,1526
809.8125,1515
809.931274,1510
810.050049,1525
810.168884,1507
810.287659,1545
810.406372,1553
810.525269,1480
810.643982,1577
810.762756,1506
810.881531,1533
811.000305,1497
811.11908,1531
811.237854,1541
811.356567,1529
811.475403,1532
811.594116,1529
811.71283,1517
811.831604,1526
811.950378,1565
812.069153,1576
812.187927,1520
812.30658,1523
812.425415,1538
812.544128,1563
812.662781,1472
812.781616,1527
812.900269,1549
813.019043,1500
813.137756,1523
813.256531,1529
813.375244,1517
813.493896,1495
813.612671,1493
813.731384,1501
813.850037,1466
813.96875,1493
814.087524,1466
814.206238,1498
814.324951,1455
814.443604,1506
814.562256,1515
814.68103,1522
814.799683,1516
814.918335,1460
815.037109,1515
815.155762,1477
815.274475,1496
815.393188,1480
815.511841,1496
815.630554,1440
815.749146,1495
815.867859,1516
815.986572,1480
816.105164,1476
816.223877,1458
816.342529,1502
816.461182,1494
816.579895,1482
816.698486,1475
816.817139,1447
816.935791,1464
817.054504,1458
817.173096,1486
817.291748,1472
817.4104,1519
817.529053,1486
817.647644,1441
817.766235,1451
817.884949,1467
818.00354,1437
818.122192,1447
818.240845,1462
818.359436,1414
818.478088,1437
818.59668,1392
818.715271,1476
818.833923,1459
818.952515,1449
819.071106,1391
819.189758,1441
819.30835,1416
819.426941,1403
819.545532,1410
819.664124,1413
819.782715,1411
819.901306,1441
820.019897,1405
820.138489,1390
820.25708,1412
820.375671,1421
820.494202,1428
820.612732,1399
820.731384,1410
820.849915,1383
820.968506,1398
821.087097,1410
821.205627,1443
821.324158,1383
821.442749,1384
821.561279,1439
821.679871,1359
821.798401,1424
821.916931,1363
822.035461,1394
822.154053,1362
822.272583,1362
822.391174,1350
822.509583,1377
822.628174,1412
822.746704,1380
822.865234,1358
822.983765,1374
823.102295,1414
823.220825,1395
823.339294,1346
823.457825,1346
823.576355,1350
823.694824,1370
823.813354,1313
823.931885,1372
824.050354,1361
824.168884,1345
824.287354,1391
824.405823,1361
824.524353,1407
824.642822,1321
824.761353,1420
824.879822,1383
824.998291,1389
825.116699,1332
825.235291,1356
825.353699,1364
825.472168,1319
825.590637,1417
825.709106,1394
825.827576,1332
825.946045,1345
826.064453,1376
826.182983,1322
826.301392,1347
826.4198,1313
826.53833,1373
826.656738,1355
826.775208,1338
826.893677,1360
827.012024,1336
827.130493,1329
827.248962,1372
827.36731,1326
827.485779,1309
827.604248,1322
827.722595,1337
827.841064,1341
827.959412,1351
828.077942,1327
828.196289,1315
828.314636,1335
828.433105,1320
828.551514,1336
828.669861,1362
828.78833,1334
828.906677,1349
829.025085,1327
829.143433,1352
829.261841,1314
829.38031,1329
829.498657,1303
829.617004,1320
829.735413,1298
829.85376,1320
829.972107,1347
830.090515,1305
830.208862,1297
830.327209,1310
830.445557,1304
830.563904,1340
830.682312,1367
830.800659,1309
830.919006,1357
831.037354,1359
831.155701,1313
831.274048,1343
831.392395,1332
831.51062,1332
831.629028,1338
831.747314,1348
831.865662,1355
831.984009,1342
832.102356,1349
832.220642,1316
832.338928,1340
832.457275,1329
832.575623,1372
832.693909,1308
832.812134,1328
832.930481,1274
833.048828,1341
833.167114,1291
833.2854,1361
833.403687,1304
833.521973,1303
833.640259,1306
833.758545,1326
833.876831,1327
833.995056,1334
834.113281,1337
834.231628,1322
834.349915,1340
834.468201,1319
834.586426,1300
834.704651,1357
834.822998,1294
834.941162,1318
835.059448,1293
835.177673,1311
835.295959,1369
835.414246,1316
835.53241,1339
835.650635,1337
835.768921,1310
835.887146,1330
836.005371,1337
836.123596,1325
836.241821,1302
836.360046,1313
836.478271,1305
836.596497,1317
836.714722,1327
836.832886,1301
836.95105,1307
837.069336,1335
837.1875,1358
837.305725,1328
837.423889,1333
837.542053,1324
837.660339,1327
837.778503,1282
837.896667,1317
838.014832,1303
838.132996,1329
838.25116,1300
838.369385,1320
838.487488,1331
838.605713,1313
838.723877,1326
838.84198,1317
838.960205,1298
839.078308,1315
839.196472,1315
839.314636,1343
839.4328,1350
839.550964,1295
839.669067,1337
839.787231,1330
839.905396,1316
840.023499,1345
840.141602,1354
840.259766,1363
840.377869,1330
840.495972,1343
840.614136,1344
840.732239,1327
840.850342,1350
840.968445,1351
841.086548,1336
841.204651,1340
841.322754,1392
841.440918,1340
841.55896,1336
841.677002,1309
841.795166,1347
841.913208,1357
842.031311,1348
842.149353,1369
842.267456,1324
842.385498,1358
842.503601,1329
842.621643,1371
842.739746,1290
842.857788,1345
842.97583,1345
843.093933,1287
843.211975,1343
843.330017,1378
843.44812,1345
843.566101,1367
843.684204,1304
843.802246,1356
843.920227,1362
844.038269,1325
844.156311,1345
844.274292,1308
844.392395,1340
844.510376,1347
844.628357,1311
844.74646,1336
844.864441,1326
844.982422,1363
845.100403,1372
845.218384,1328
845.336426,1354
845.454468,1339
845.572449,1347
845.69043,1358
845.808411,1330
845.926453,1350
846.044373,1346
846.162354,1357
846.280396,1320
846.398315,1353
846.516296,1318
846.634216,1391
846.752197,1312
846.870178,1326
846.988098,1311
847.106079,1349
847.22406,1326
847.34198,1322
847.4599,1343
847.577881,1305
847.695801,1356
847.813782,1344
847.931641,1310
848.049561,1348
848.167603,1328
848.285461,1336
848.403381,1400
848.521362,1359
848.639221,1364
848.75708,1379
848.875,1350
848.99292,1373
849.110901,1372
849.22876,1354
849.34668,1393
849.464539,1338
849.582458,1401
849.700317,1319
849.818176,1390
849.936096,1346
850.053955,1356
850.171875,1434
850.289673,1353
850.407593,1381
850.525452,1368
850.643311,1370
850.761169,1360
850.878967,1369
850.996887,1343
851.114746,1334
851.232544,1342
851.350403,1347
851.468262,1409
851.58606,1320
851.703979,1367
851.821777,1367
851.939636,1336
852.057434,1375
852.175232,1346
852.293091,1344
852.410889,1344
852.528687,1324
852.646545,1398
852.764343,1344
852.88208,1398
852.999939,1348
853.117676,1315
853.235535,1358
853.353271,1351
853.471069,1354
853.588928,1304
853.706604,1318
853.824402,1331
853.9422,1332
854.059998,1326
854.177734,1334
854.295532,1331
854.413269,1334
854.531006,1333
854.648804,1312
854.766541,1310
854.884277,1334
855.002014,1314
855.119751,1324
855.237549,1360
855.355225,1298
855.473022,1361
855.590698,1310
855.708435,1303
855.826172,1351
855.943848,1346
856.061646,1308
856.179321,1293
856.296997,1338
856.414795,1294
856.53241,1347
856.650085,1297
856.767822,1345
856.885559,1386
857.003174,1300
857.120911,1371
857.238586,1359
857.356201,1332
857.473938,1335
857.591614,1399
857.709351,1319
857.826965,1339
857.944641,1366
858.062317,1329
858.179993,1350
858.297668,1350
858.415283,1354
858.532959,1377
858.650574,1322
858.768188,1403
858.885803,1309
859.003479,1356
859.121094,1361
859.23877,1355
859.356384,1330
859.473999,1356
859.591675,1330
859.709229,1361
859.826843,1362
859.944458,1322
860.062012,1356
860.179626,1288
860.297302,1369
860.414856,1327
860.532471,1345
860.650024,1314
860.767639,1346
860.885193,1363
861.002808,1314
861.120361,1378
861.237976,1320
861.35553,1319
861.473022,1337
861.590698,1325
861.708191,1354
861.825745,1318
861.943298,1345
862.060852,1296
862.178406,1343
862.295959,1347
862.413513,1306
862.531006,1291
862.64856,1348
862.766113,1338
862.883667,1326
863.00116,1326
863.118713,1332
863.236206,1322
863.353699,1311
863.471252,1310
863.588745,1363
863.706177,1364
863.82373,1343
863.941162,1312
864.058716,1296
864.176208,1350
864.29364,1314
864.411194,1335
864.528687,1319
864.646118,1358
864.763611,1305
864.881042,1360
864.998535,1368
865.116028,1309
865.233459,1328
865.350891,1337
865.468384,1343
865.585754,1361
865.703308,1327
865.820679,1288
865.938171,1334
866.055542,1296
866.173035,1375
866.290466,1315
866.407837,1320
866.52533,1319
866.6427,1364
866.760071,1336
866.877563,1352
866.994934,1356
867.112305,1343
867.229736,1313
867.347107,1356
867.464539,1341
867.58197,1355
867.699341,1323
867.81665,1332
867.934082,1349
868.051453,1361
868.168823,1350
868.286194,1357
868.403564,1335
868.520935,1312
868.638306,1342
868.755676,1325
868.872986,1335
868.990295,1312
869.107727,1348
869.225037,1386
869.342346,1340
869.459717,1354
869.577026,1331
869.694336,1344
869.811707,1372
869.929016,1355
870.046326,1364
870.163635,1386
870.280945,1324
870.398254,1335
870.515564,1364
870.632812,1334
870.750183,1379
870.867432,1332
870.984741,1344
871.102051,1362
871.219299,1352
871.336609,1404
871.453918,1356
871.571106,1344
871.688416,1337
871.805664,1327
871.922852,1328
872.040222,1382
872.157471,1380
872.274719,1350
872.391968,1402
872.509155,1296
872.626465,1373
872.743652,1316
872.860962,1366
872.978149,1364
873.095337,1327
873.212646,1389
873.329834,1338
873.44696,1366
873.564209,1313
873.681396,1322
873.798645,1357
873.915894,1373
874.03302,1379
874.150208,1357
874.267456,1378
874.384583,1350
874.501831,1358
874.618958,1368
874.736145,1362
874.853333,1397
874.970459,1377
875.087646,1319
875.204834,1374
875.32196,1332
875.439148,1382
875.556274,1353
875.673401,1340
875.790527,1343
875.907715,1363
876.024841,1349
876.141968,1362
876.259094,1368
876.376282,1342
876.493347,1374
876.610474,1359
876.7276,1357
876.844727,1379
876.961853,1319
877.078918,1376
877.195984,1389
877.313171,1357
877.430237,1376
877.547302,1360
877.664368,1329
877.781433,1379
877.898499,1343
878.015625,1385
878.13269,1335
878.249695,1362
878.366821,1352
878.483887,1365
878.600952,1347
878.717957,1341
878.834961,1288
878.952087,1332
879.069092,1383
879.186157,1371
879.303162,1340
879.420227,1354
879.537231,1318
879.654236,1331
879.77124,1358
879.888306,1354
880.005249,1354
880.122314,1321
880.239319,1352
880.356323,1330
880.473328,1320
880.590271,1381
880.707275,1371
880.824341,1347
880.941284,1347
881.058228,1389
881.175232,1330
881.292236,1325
881.40918,1331
881.526123,1400
881.643066,1338
881.760071,1365
881.877014,1323
881.993958,1356
882.11084,1332
882.227783,1332
882.344727,1363
882.46167,1368
882.578613,1323
882.695618,1339
882.812439,1381
882.929382,1346
883.046326,1360
883.163208,1347
883.280151,1320
883.397034,1311
883.513916,1349
883.630798,1326
883.747742,1365
883.864563,1357
883.981506,1350
884.098389,1355
884.21521,1377
884.332153,1349
884.448975,1391
884.565796,1340
884.682678,1383
884.7995,1360
884.916443,1397
885.033264,1385
885.150085,1372
885.266968,1390
885.383789,1460
885.500671,1384
885.617493,1412
885.734314,1463
885.851196,1403
885.967896,1425
886.084717,1409
886.201599,1393
886.318359,1402
886.435181,1384
886.552002,1425
886.668762,1374
886.785645,1453
886.902344,1402
887.019165,1372
887.135925,1369
887.252747,1399
887.369446,1419
887.486267,1403
887.603027,1402
887.719788,1345
887.836548,1394
887.953247,1370
888.070068,1407
888.186829,1375
888.303528,1379
888.420288,1367
888.536987,1331
888.653687,1366
888.770447,1352
888.887146,1400
889.003967,1356
889.120667,1372
889.237305,1386
889.354065,1377
889.470703,1337
889.587463,1322
889.704163,1372
889.820862,1331
889.937561,1386
890.054199,1331
890.170837,1390
890.287598,1366
890.404236,1345
890.520874,1355
890.637634,1415
890.754211,1374
890.87085,1367
890.987549,1379
891.104187,1399
891.220886,1366
891.337463,1363
891.454102,1388
891.57074,1382
891.687378,1351
891.804077,1394
891.920654,1382
892.037231,1395
892.15387,1362
892.270447,1410
892.387085,1368
892.503723,1397
892.6203,1347
892.736877,1368
892.853516,1351
892.970032,1405
893.08667,1391
893.203186,1398
893.319763,1342
893.43634,1304
893.552917,1401
893.669556,1373
893.786011,1381
893.902588,1348
894.019165,1355
894.135681,1380
894.252197,1376
894.368835,1411
894.485291,1362
894.601868,1411
894.718384,1409
894.8349,1408
894.951355,1382
895.067932,1383
895.184448,1401
895.300964,1361
895.417419,1364
895.533936,1398
895.650452,1350
895.766907,1419
895.883423,1386
895.999878,1390
896.116333,1392
896.232849,1375
896.349304,1373
896.465759,1392
896.582214,1373
896.698669,1370
896.815125,1376
896.931641,1406
897.048035,1361
897.164551,1390
897.280884,1403
897.397339,1400
897.513794,1382
897.630249,1375
897.746582,1444
897.863098,1383
897.979431,1423
898.095886,1367
898.212341,1400
898.328674,1413
898.445129,1454
898.561462,1384
898.677795,1381
898.794312,1444
898.910645,1359
899.026978,1409
899.143433,1369
899.259766,1396
899.37616,1431
899.492493,1370
899.608765,1416
899.725159,1417
899.841553,1425
899.957947,1397
900.07428,1414
900.190552,1404
900.306946,1377
900.423157,1391
900.53949,1377
900.655884,1421
900.772156,1409
900.888489,1424
901.004822,1412
901.121033,1389
901.237366,1428
901.353699,1389
901.46991,1441
901.586304,1408
901.702515,1407
901.818787,1414
901.93512,1397
902.051331,1466
902.167603,1404
902.283875,1401
902.400085,1446
902.516418,1434
902.632629,1476
902.74884,1411
902.865112,1475
902.981384,1428
903.097595,1416
903.213867,1418
903.330017,1435
903.446289,1437
903.5625,1423
903.67865,1454
903.794922,1445
903.911072,1389
904.027344,1437
904.143494,1405
904.259705,1457
904.375916,1423
904.492065,1442
904.608215,1440
904.724426,1394
904.840576,1437
904.956726,1386
905.072876,1409
905.189087,1412
905.305176,1445
905.421387,1449
905.537537,1457
905.653687,1398
905.769775,1403
905.885925,1422
906.002014,1390
906.118164,1362
906.234314,1401
906.350403,1375
906.466492,1391
906.582642,1393
906.69873,1427
906.814758,1411
906.930908,1395
907.046936,1390
907.163086,1422
907.279175,1394
907.395264,1411
907.511353,1374
907.62738,1433
907.743408,1398
907.859497,1412
907.975525,1402
908.091553,1388
908.207703,1365
908.32373,1412
908.439758,1454
908.555786,1378
908.671814,1436
908.787842,1431
908.90387,1388
909.019775,1403
909.135864,1424
909.251892,1438
909.367859,1417
909.483826,1417
909.599854,1411
909.715881,1435
909.831848,1404
909.947815,1405
910.063782,1441
910.179749,1437
910.295776,1418
910.411743,1453
910.527649,1397
910.643616,1412
910.759583,1436
910.875488,1434
910.991455,1416
911.107361,1434
911.223267,1443
911.339294,1423
911.4552,1398
911.571106,1404
911.687073,1436
911.802979,1420
911.918823,1397
912.034729,1426
912.150635,1413
912.266602,1391
912.382446,1443
912.498352,1399
912.614197,1402
912.730103,1411
912.846008,1434
792.44574,1975
792.56488,1973
792.68396,1932
792.80304,1858
792.92218,1838
793.041199,1854
793.160339,1835
793.279419,1832
793.398499,1838
793.517578,1830
793.636658,1811
793.755737,1792
793.874817,1790
793.993896,1816
794.112976,1762
794.232056,1800
794.351074,1746
794.470215,1733
794.589233,1737
794.708313,1757
794.827393,1736
794.946411,1674
795.065552,1728
795.18457,1683
795.303589,1745
795.422668,1660
795.541687,1716
795.660767,1745
795.779846,1690
795.898865,1695
796.017883,1701
796.136963,1652
796.255981,1680
796.375061,1681
796.49408,1628
796.613037,1691
796.732117,1687
796.851135,1654
796.970154,1653
797.089233,1606
797.208191,1634
797.327271,1639
797.446228,1640
797.565186,1617
797.684265,1597
797.803223,1633
797.922241,1608
798.04126,1620
798.160278,1596
798.279297,1644
798.398315,1607
798.517273,1647
798.636292,1604
798.75531,1605
798.874268,1586
798.993286,1610
799.112244,1559
799.231323,1599
799.350281,1600
799.469238,1615
799.588257,1582
799.707153,1563
799.826111,1645
799.945129,1573
800.064087,1593
800.183044,1563
800.302063,1556
800.421021,1633
800.539978,1594
800.658936,1553
800.777893,1599
800.896912,1543
801.015747,1549
801.134705,1561
801.253723,1588
801.37262,1610
801.491638,1534
801.610535,1569
801.729492,1576
801.84845,1618
801.967407,1602
802.086243,1611
802.205261,1516
802.324158,1621
802.443115,1593
802.562073,1573
802.680969,1568
802.799927,1538
802.918762,1569
803.037659,1566
803.156677,1587
803.275574,1520
803.39447,1588
803.513428,1532
803.632263,1558
803.751221,1561
803.870117,1556
803.989014,1542
804.107971,1559
804.226746,1550
804.345642,1506
804.4646,1524
804.583496,1558
804.702393,1614
804.821228,1570
804.940125,1573
805.059021,1541
805.177917,1508
805.296814,1562
805.415649,1491
805.534546,1545
805.653442,1555
805.772278,1558
805.891113,1566
806.01001,1576
806.128906,1537
806.247742,1508
806.366577,1529
806.485413,1500
806.604309,1517
806.723145,1562
806.84198,1573
806.960876,1539
807.079712,1532
807.198486,1536
807.317383,1571
807.436218,1517
807.554993,1527
807.673889,1540
807.792725,1541
807.91156,1513
808.030396,1522
808.14917,1564
808.268005,1536
808.386841,1548
808.505676,1540
808.624451,1538
808.743286,1550
808.862122,1565
808.980896,1533
809.099731,1518
809.218506,1548
809.337341,1536
809.456116,1556
809.57489,1558
809.693726,1511
809.8125,1536
809.931274,1538
810.050049,1587
810.168884,1540
810.287659,1520
810.406372,1524
810.525269,1596
810.643982,1538
810.762756,1548
810.881531,1570
811.000305,1572
811.11908,1529
811.237854,1554
811.356567,1527
811.475403,1565
811.594116,1538
811.71283,1558
811.831604,1549
811.950378,1551
812.069153,1564
812.187927,1550
812.30658,1538
812.425415,1537
812.544128,1570
812.662781,1581
812.781616,1541
812.900269,1529
813.019043,1526
813.137756,1528
813.256531,1539
813.375244,1554
813.493896,1510
813.612671,1566
813.731384,1534
813.850037,1508
813.96875,1543
814.087524,1519
814.206238,1513
814.324951,1551
814.443604,1514
814.562256,1509
814.68103,1509
814.799683,1478
814.918335,1509
815.037109,1558
815.155762,1519
815.274475,1484
815.393188,1459
815.511841,1533
815.630554,1444
815.749146,1508
815.867859,1523
815.986572,1512
816.105164,1469
816.223877,1493
816.342529,1480
816.461182,1510
816.579895,1510
816.698486,1478
816.817139,1548
816.935791,1534
817.054504,1524
817.173096,1489
817.291748,1511
817.4104,1505
817.529053,1477
817.647644,1489
817.766235,1510
817.884949,1482
818.00354,1489
818.122192,1489
818.240845,1440
818.359436,1450
818.478088,1492
818.59668,1460
818.715271,1448
818.833923,1444
818.952515,1430
819.071106,1465
819.189758,1409
819.30835,1468
819.426941,1423
819.545532,1468
819.664124,1446
819.782715,1461
819.901306,1429
820.019897,1421
820.138489,1396
820.25708,1417
820.375671,1444
820.494202,1446
820.612732,1454
820.731384,1392
820.849915,1472
820.968506,1388
821.087097,1414
821.205627,1399
821.324158,1418
821.442749,1430
821.561279,1430
821.679871,1414
821.798401,1399
821.916931,1439
822.035461,1430
822.154053,1453
822.272583,1344
822.391174,1353
822.509583,1374
822.628174,1406
822.746704,1413
822.865234,1405
822.983765,1386
823.102295,1379
823.220825,1343
823.339294,1404
823.457825,1391
823.576355,1361
823.694824,1372
823.813354,1416
823.931885,1368
824.050354,1372
824.168884,1386
824.287354,1395
824.405823,1413
824.524353,1379
824.642822,1430
824.761353,1369
824.879822,1389
824.998291,1397
825.116699,1364
825.235291,1392
825.353699,1385
825.472168,1363
825.590637,1383
825.709106,1354
825.827576,1401
825.946045,1388
826.064453,1379
826.182983,1423
826.301392,1341
826.4198,1371
826.53833,1333
826.656738,1359
826.775208,1357
826.893677,1355
827.012024,1331
827.130493,1372
827.248962,1402
827.36731,1371
827.485779,1391
827.604248,1366
827.722595,1362
827.841064,1351
827.959412,1378
828.077942,1356
828.196289,1360
828.314636,1353
828.433105,1342
828.551514,1371
828.669861,1367
828.78833,1355
828.906677,1318
829.025085,1350
829.143433,1307
829.261841,1374
829.38031,1354
829.498657,1361
829.617004,1351
829.735413,1369
829.85376,1313
829.972107,1369
830.090515,1344
830.208862,1350
830.327209,1309
830.445557,1300
830.563904,1368
830.682312,1356
830.800659,1372
830.919006,1353
831.037354,1363
831.155701,1380
831.274048,1353
831.392395,1362
831.51062,1398
831.629028,1369
831.747314,1336
831.865662,1365
831.984009,1346
832.102356,1336
832.220642,1322
832.338928,1336
832.457275,1337
832.575623,1356
832.693909,1352
832.812134,1377
832.930481,1319
833.048828,1307
833.167114,1325
833.2854,1321
833.403687,1359
833.521973,1334
833.640259,1307
833.758545,1318
833.876831,1317
833.995056,1382
834.113281,1328
834.231628,1365
834.349915,1334
834.468201,1401
834.586426,1372
834.704651,1323
834.822998,1327
834.941162,1353
835.059448,1345
835.177673,1425
835.295959,1333
835.414246,1415
835.53241,1355
835.650635,1325
835.768921,1376
835.887146,1339
836.005371,1317
836.123596,1375
836.241821,1361
836.360046,1364
836.478271,1349
836.596497,1368
836.714722,1368
836.832886,1353
836.95105,1310
837.069336,1337
837.1875,1294
837.305725,1377
837.423889,1358
837.542053,1350
837.660339,1384
837.778503,1340
837.896667,1351
838.014832,1383
838.132996,1358
838.25116,1331
838.369385,1348
838.487488,1336
838.605713,1360
838.723877,1354
838.84198,1358
838.960205,1313
839.078308,1334
839.196472,1358
839.314636,1345
839.4328,1369
839.550964,1316
839.669067,1355
839.787231,1364
839.905396,1375
840.023499,1332
840.141602,1362
840.259766,1389
840.377869,1338
840.495972,1383
840.614136,1382
840.732239,1348
840.850342,1341
840.968445,1367
841.086548,1376
841.204651,1373
841.322754,1387
841.440918,1422
841.55896,1366
841.677002,1344
841.795166,1378
841.913208,1362
842.031311,1365
842.149353,1355
842.267456,1341
842.385498,1378
842.503601,1346
842.621643,1364
842.739746,1345
842.857788,1420
842.97583,1374
843.093933,1380
843.211975,1365
843.330017,1339
843.44812,1399
843.566101,1370
843.684204,1350
843.802246,1405
843.920227,1406
844.038269,1353
844.156311,1381
844.274292,1345
844.392395,1352
844.510376,1381
844.628357,1386
844.74646,1349
844.864441,1327
844.982422,1379
845.100403,1365
845.218384,1358
845.336426,1334
845.454468,1393
845.572449,1355
845.69043,1369
845.808411,1339
845.926453,1350
846.044373,1326
846.162354,1394
846.280396,1341
846.398315,1319
846.516296,1360
846.634216,1375
846.752197,1331
846.870178,1361
846.988098,1365
847.106079,1344
847.22406,1354
847.34198,1352
847.4599,1392
847.577881,1336
847.695801,1351
847.813782,1389
847.931641,1341
848.049561,1353
848.167603,1391
848.285461,1384
848.403381,1385
848.521362,1397
848.639221,1382
848.75708,1386
848.875,1371
848.99292,1403
849.110901,1380
849.22876,1386
849.34668,1382
849.464539,1365
849.582458,1412
849.700317,1375
849.818176,1412
849.936096,1380
850.053955,1382
850.171875,1383
850.289673,1378
850.407593,1370
850.525452,1381
850.643311,1373
850.761169,1413
850.878967,1363
850.996887,1358
851.114746,1401
851.232544,1416
851.350403,1385
851.468262,1382
851.58606,1366
851.703979,1376
851.821777,1399
851.939636,1365
852.057434,1379
852.175232,1395
852.293091,1352
852.410889,1370
852.528687,1331
852.646545,1408
852.764343,1386
852.88208,1399
852.999939,1368
853.117676,1370
853.235535,1344
853.353271,1383
853.471069,1352
853.588928,1373
853.706604,1353
853.824402,1371
853.9422,1355
854.059998,1295
854.177734,1354
854.295532,1352
854.413269,1344
854.531006,1344
854.648804,1331
854.766541,1363
854.884277,1319
855.002014,1337
855.119751,1382
855.237549,1356
855.355225,1353
855.473022,1360
855.590698,1345
855.708435,1358
855.826172,1367
855.943848,1399
856.061646,1337
856.179321,1319
856.296997,1367
856.414795,1393
856.53241,1350
856.650085,1347
856.767822,1357
856.885559,1377
857.003174,1346
857.120911,1358
857.238586,1342
857.356201,1342
857.473938,1349
857.591614,1377
857.709351,1323
857.826965,1337
857.944641,1345
858.062317,1385
858.179993,1358
858.297668,1346
858.415283,1395
858.532959,1352
858.650574,1350
858.768188,1370
858.885803,1399
859.003479,1376
859.121094,1316
859.23877,1383
859.356384,1334
859.473999,1363
859.591675,1337
859.709229,1356
859.826843,1351
859.944458,1360
860.062012,1366
860.179626,1338
860.297302,1371
860.414856,1342
860.532471,1371
860.650024,1363
860.767639,1353
860.885193,1378
861.002808,1327
861.120361,1330
861.237976,1310
861.35553,1353
861.473022,1348
861.590698,1338
861.708191,1368
861.825745,1373
861.943298,1325
862.060852,1367
862.178406,1337
862.295959,1331
862.413513,1350
862.531006,1331
862.64856,1387
862.766113,1379
862.883667,1358
863.00116,1362
863.118713,1315
863.236206,1382
863.353699,1327
863.471252,1340
863.588745,1345
863.706177,1349
863.82373,1337
863.941162,1372
864.058716,1347
864.176208,1366
864.29364,1364
864.411194,1329
864.528687,1337
864.646118,1329
864.763611,1331
864.881042,1343
864.998535,1308
865.116028,1357
865.233459,1322
865.350891,1289
865.468384,1333
865.585754,1373
865.703308,1356
865.820679,1330
865.938171,1367
866.055542,1322
866.173035,1351
866.290466,1340
866.407837,1349
866.52533,1295
866.6427,1339
866.760071,1335
866.877563,1344
866.994934,1350
867.112305,1370
867.229736,1336
867.347107,1370
867.464539,1357
867.58197,1342
867.699341,1410
867.81665,1365
867.934082,1345
868.051453,1382
868.168823,1353
868.286194,1349
868.403564,1344
868.520935,1371
868.638306,1370
868.755676,1318
868.872986,1373
868.990295,1373
869.107727,1389
869.225037,1361
869.342346,1355
869.459717,1354
869.577026,1359
869.694336,1363
869.811707,1336
869.929016,1352
870.046326,1375
870.163635,1341
870.280945,1360
870.398254,1379
870.515564,1388
870.632812,1370
870.750183,1387
870.867432,1364
870.984741,1338
871.102051,1383
871.219299,1374
871.336609,1376
871.453918,1409
871.571106,1409
871.688416,1323
871.805664,1367
871.922852,1303
872.040222,1385
872.157471,1357
872.274719,1356
872.391968,1342
872.509155,1313
872.626465,1362
872.743652,1402
872.860962,1402
872.978149,1387
873.095337,1338
873.212646,1414
873.329834,1343
873.44696,1367
873.564209,1384
873.681396,1394
873.798645,1369
873.915894,1366
874.03302,1359
874.150208,1364
874.267456,1365
874.384583,1344
874.501831,1348
874.618958,1383
874.736145,1355
874.853333,1378
874.970459,1398
875.087646,1419
875.204834,1363
875.32196,1381
875.439148,1357
875.556274,1367
875.673401,1358
875.790527,1390
875.907715,1382
876.024841,1374
876.141968,1359
876.259094,1364
876.376282,1378
876.493347,1402
876.610474,1379
876.7276,1363
876.844727,1352
876.961853,1401
877.078918,1396
877.195984,1354
877.313171,1372
877.430237,1438
877.547302,1436
877.664368,1391
877.781433,1374
877.898499,1397
878.015625,1411
878.13269,1401
878.249695,1376
878.366821,1390
878.483887,1371
878.600952,1357
878.717957,1332
878.834961,1391
878.952087,1356
879.069092,1354
879.186157,1344
879.303162,1435
879.420227,1360
879.537231,1366
879.654236,1365
879.77124,1391
879.888306,1385
880.005249,1378
880.122314,1368
880.239319,1377
880.356323,1383
880.473328,1321
880.590271,1368
880.707275,1356
880.824341,1361
880.941284,1382
881.058228,1430
881.175232,1402
881.292236,1359
881.40918,1359
881.526123,1422
881.643066,1381
881.760071,1373
881.877014,1378
881.993958,1394
882.11084,1381
882.227783,1344
882.344727,1358
882.46167,1387
882.578613,1346
882.695618,1366
882.812439,1377
882.929382,1394
883.046326,1379
883.163208,1404
883.280151,1369
883.397034,1404
883.513916,1408
883.630798,1364
883.747742,1333
883.864563,1412
883.981506,1376
884.098389,1386
884.21521,1403
884.332153,1386
884.448975,1392
884.565796,1410
884.682678,1370
884.7995,1428
884.916443,1426
885.033264,1402
885.150085,1447
885.266968,1393
885.383789,1420
885.500671,1441
885.617493,1453
885.734314,1421
885.851196,1423
885.967896,1455
886.084717,1433
886.201599,1454
886.318359,1430
886.435181,1422
886.552002,1410
886.668762,1427
886.785645,1482
886.902344,1405
887.019165,1414
887.135925,1412
887.252747,1369
887.369446,1370
887.486267,1419
887.603027,1422
887.719788,1402
887.836548,1396
887.953247,1416
888.070068,1395
888.186829,1432
888.303528,1393
888.420288,1359
888.536987,1406
888.653687,1401
888.770447,1355
888.887146,1383
889.003967,1402
889.120667,1382
889.237305,1399
889.354065,1383
889.470703,1375
889.587463,1385
889.704163,1384
889.820862,1398
889.937561,1395
890.054199,1398
890.170837,1390
890.287598,1331
890.404236,1397
890.520874,1367
890.637634,1426
890.754211,1424
890.87085,1410
890.987549,1368
891.104187,1383
891.220886,1359
891.337463,1421
891.454102,1401
891.57074,1459
891.687378,1369
891.804077,1406
891.920654,1398
892.037231,1409
892.15387,1365
892.270447,1428
892.387085,1395
892.503723,1415
892.6203,1387
892.736877,1398
892.853516,1399
892.970032,1405
893.08667,1336
893.203186,1389
893.319763,1361
893.43634,1407
893.552917,1383
893.669556,1387
893.786011,1434
893.902588,1404
894.019165,1421
894.135681,1419
894.252197,1389
894.368835,1417
894.485291,1423
894.601868,1403
894.718384,1405
894.8349,1420
894.951355,1369
895.067932,1438
895.184448,1434
895.300964,1406
895.417419,1437
895.533936,1418
895.650452,1386
895.766907,1426
895.883423,1447
895.999878,1416
896.116333,1412
896.232849,1458
896.349304,1420
896.465759,1404
896.582214,1443
896.698669,1432
896.815125,1410
896.931641,1430
897.048035,1378
897.164551,1455
897.280884,1391
897.397339,1442
897.513794,1436
897.630249,1427
897.746582,1443
897.863098,1409
897.979431,1375
898.095886,1429
898.212341,1438
898.328674,1427
898.445129,1403
898.561462,1437
898.677795,1430
898.794312,1440
898.910645,1402
899.026978,1390
899.143433,1487
899.259766,1418
899.37616,1392
899.492493,1420
899.608765,1440
899.725159,1436
899.841553,1386
899.957947,1413
900.07428,1432
900.190552,1458
900.306946,1427
900.423157,1376
900.53949,1423
900.655884,1423
900.772156,1446
900.888489,1439
901.004822,1425
901.121033,1400
901.237366,1418
901.353699,1428
901.46991,1426
901.586304,1402
901.702515,1450
901.818787,1410
901.93512,1462
902.051331,1459
902.167603,1452
902.283875,1463
902.400085,1436
902.516418,1486
902.632629,1479
902.74884,1470
902.865112,1462
902.981384,1468
903.097595,1443
903.213867,1465
903.330017,1458
903.446289,1399
903.5625,1441
903.67865,1444
903.794922,1455
903.911072,1468
904.027344,1477
904.143494,1419
904.259705,1466
904.375916,1447
904.492065,1476
904.608215,1389
904.724426,1449
904.840576,1417
904.956726,1413
905.072876,1439
905.189087,1423
905.305176,1479
905.421387,1437
905.537537,1509
905.653687,1458
905.769775,1379
905.885925,1474
906.002014,1427
906.118164,1424
906.234314,1397
906.350403,1440
906.466492,1433
906.582642,1423
906.69873,1455
906.814758,1456
906.930908,1432
907.046936,1396
907.163086,1414
907.279175,1452
907.395264,1413
907.511353,1426
907.62738,1449
907.743408,1455
907.859497,1464
907.975525,1428
908.091553,1447
908.207703,1439
908.32373,1431
908.439758,1439
908.555786,1434
908.671814,1444
908.787842,1479
908.90387,1517
909.019775,1445
909.135864,1407
909.251892,1461
909.367859,1486
909.483826,1455
909.599854,1467
909.715881,1447
909.831848,1441
909.947815,1456
910.063782,1454
910.179749,1443
910.295776,1460
910.411743,1433
910.527649,1474
910.643616,1454
910.759583,1472
910.875488,1465
910.991455,1449
911.107361,1453
911.223267,1462
911.339294,1478
911.4552,1450
911.571106,1459
911.687073,1489
911.802979,1474
911.918823,1498
912.034729,1447
912.150635,1469
912.266602,1428
912.382446,1453
912.498352,1417
912.614197,1457
912.730103,1400
912.846008,1470
792.44574,1964
792.56488,1959
792.68396,1952
792.80304,1914
792.92218,1837
793.041199,1869
793.160339,1819
793.279419,1841
793.398499,1825
793.517578,1810
793.636658,1779
793.755737,1811
793.874817,1773
793.993896,1813
794.112976,1798
794.232056,1756
794.351074,1704
794.470215,1732
794.589233,1782
794.708313,1730
794.827393,1754
794.946411,1751
795.065552,1731
795.18457,1729
795.303589,1713
795.422668,1712
795.541687,1683
795.660767,1705
795.779846,1691
795.898865,1687
796.017883,1718
796.136963,1715
796.255981,1673
796.375061,1692
796.49408,1662
796.613037,1681
796.732117,1658
796.851135,1653
796.970154,1652
797.089233,1676
797.208191,1679
797.327271,1684
797.446228,1603
797.565186,1678
797.684265,1638
797.803223,1643
797.922241,1645
798.04126,1620
798.160278,1577
798.279297,1619
798.398315,1625
798.517273,1617
798.636292,1590
798.75531,1577
798.874268,1597
798.993286,1630
799.112244,1611
799.231323,1595
799.350281,1624
799.469238,1554
799.588257,1590
799.707153,1609
799.826111,1591
799.945129,1623
800.064087,1532
800.183044,1619
800.302063,1622
800.421021,1604
800.539978,1627
800.658936,1561
800.777893,1630
800.896912,1586
801.015747,1599
801.134705,1545
801.253723,1577
801.37262,1613
801.491638,1549
801.610535,1543
801.729492,1603
801.84845,1589
801.967407,1565
802.086243,1576
802.205261,1558
802.324158,1563
802.443115,1549
802.562073,1598
802.680969,1551
802.799927,1558
802.918762,1558
803.037659,1566
803.156677,1574
803.275574,1600
803.39447,1567
803.513428,1559
803.632263,1586
803.751221,1545
803.870117,1583
803.989014,1559
804.107971,1553
804.226746,1565
804.345642,1550
804.4646,1512
804.583496,1566
804.702393,1557
804.821228,1531
804.940125,1554
805.059021,1517
805.177917,1544
805.296814,1580
805.415649,1578
805.534546,1568
805.653442,1560
805.772278,1545
805.891113,1550
806.01001,1542
806.128906,1568
806.247742,1576
806.366577,1547
806.485413,1556
806.604309,1568
806.723145,1574
806.84198,1517
806.960876,1561
807.079712,1500
807.198486,1523
807.317383,1526
807.436218,1548
807.554993,1576
807.673889,1591
807.792725,1554
807.91156,1553
808.030396,1539
808.14917,1550
808.268005,1524
808.386841,1558
808.505676,1540
808.624451,1539
808.743286,1552
808.862122,1583
808.980896,1532
809.099731,1518
809.218506,1508
809.337341,1580
809.456116,1528
809.57489,1522
809.693726,1602
809.8125,1576
809.931274,1549
810.050049,1535
810.168884,1532
810.287659,1568
810.406372,1543
810.525269,1555
810.643982,1551
810.762756,1565
810.881531,1584
811.000305,1578
811.11908,1547
811.237854,1484
811.356567,1508
811.475403,1526
811.594116,1546
811.71283,1532
811.831604,1565
811.950378,1558
812.069153,1566
812.187927,1563
812.30658,1562
812.425415,1528
812.544128,1539
812.662781,1540
812.781616,1515
812.900269,1532
813.019043,1529
813.137756,1558
813.256531,1566
813.375244,1521
813.493896,1516
813.612671,1529
813.731384,1548
813.850037,1531
813.96875,1543
814.087524,1510
814.206238,1516
814.324951,1492
814.443604,1532
814.562256,1498
814.68103,1506
814.799683,1548
814.918335,1483
815.037109,1555
815.155762,1500
815.274475,1486
815.393188,1497
815.511841,1494
815.630554,1497
815.749146,1440
815.867859,1493
815.986572,1524
816.105164,1493
816.223877,1529
816.342529,1491
816.461182,1514
816.579895,1553
816.698486,1489
816.817139,1493
816.935791,1503
817.054504,1521
817.173096,1480
817.291748,1470
817.4104,1521
817.529053,1496
817.647644,1493
817.766235,1484
817.884949,1491
818.00354,1468
818.122192,1465
818.240845,1531
818.359436,1478
818.478088,1478
818.59668,1473
818.715271,1432
818.833923,1456
818.952515,1487
819.071106,1424
819.189758,1425
819.30835,1438
819.426941,1494
819.545532,1424
819.664124,1424
819.782715,1457
819.901306,1420
820.019897,1403
820.138489,1418
820.25708,1468
820.375671,1465
820.494202,1394
820.612732,1477
820.731384,1440
820.849915,1408
820.968506,1467
821.087097,1395
821.205627,1416
821.324158,1459
821.442749,1433
821.561279,1445
821.679871,1406
821.798401,1435
821.916931,1447
822.035461,1403
822.154053,1428
822.272583,1380
822.391174,1393
822.509583,1400
822.628174,1395
822.746704,1441
822.865234,1399
822.983765,1424
823.102295,1390
823.220825,1397
823.339294,1394
823.457825,1415
823.576355,1405
823.694824,1402
823.813354,1394
823.931885,1404
824.050354,1384
824.168884,1421
824.287354,1404
824.405823,1361
824.524353,1391
824.642822,1416
824.761353,1356
824.879822,1373
824.998291,1378
825.116699,1403
825.235291,1356
825.353699,1426
825.472168,1360
825.590637,1367
825.709106,1404
825.827576,1378
825.946045,1345
826.064453,1415
826.182983,1367
826.301392,1364
826.4198,1359
826.53833,1413
826.656738,1374
826.775208,1374
826.893677,1344
827.012024,1329
827.130493,1390
827.248962,1373
827.36731,1343
827.485779,1364
827.604248,1358
827.722595,1366
827.841064,1346
827.959412,1357
828.077942,1355
828.196289,1363
828.314636,1352
828.433105,1376
828.551514,1355
828.669861,1399
828.78833,1334
828.906677,1387
829.025085,1358
829.143433,1378
829.261841,1330
829.38031,1350
829.498657,1380
829.617004,1329
829.735413,1367
829.85376,1370
829.972107,1372
830.090515,1350
830.208862,1333
830.327209,1371
830.445557,1350
830.563904,1377
830.682312,1343
830.800659,1390
830.919006,1340
831.037354,1319
831.155701,1369
831.274048,1399
831.392395,1356
831.51062,1351
831.629028,1360
831.747314,1365
831.865662,1358
831.984009,1331
832.102356,1355
832.220642,1349
832.338928,1321
832.457275,1336
832.575623,1330
832.693909,1317
832.812134,1392
832.930481,1353
833.048828,1327
833.167114,1358
833.2854,1360
833.403687,1364
833.521973,1332
833.640259,1324
833.758545,1354
833.876831,1320
833.995056,1366
834.113281,1379
834.231628,1364
834.349915,1343
834.468201,1314
834.586426,1336
834.704651,1376
834.822998,1360
834.941162,1363
835.059448,1362
835.177673,1367
835.295959,1335
835.414246,1394
835.53241,1373
835.650635,1330
835.768921,1347
835.887146,1312
836.005371,1362
836.123596,1320
836.241821,1374
836.360046,1342
836.478271,1385
836.596497,1393
836.714722,1363
836.832886,1357
836.95105,1323
837.069336,1371
837.1875,1399
837.305725,1321
837.423889,1393
837.542053,1361
837.660339,1366
837.778503,1350
837.896667,1378
838.014832,1365
838.132996,1345
838.25116,1336
838.369385,1390
838.487488,1337
838.605713,1313
838.723877,1374
838.84198,1366
838.960205,1342
839.078308,1356
839.196472,1307
839.314636,1348
839.4328,1361
839.550964,1327
839.669067,1345
839.787231,1368
839.905396,1327
840.023499,1368
840.141602,1360
840.259766,1352
840.377869,1360
840.495972,1362
840.614136,1340
840.732239,1350
840.850342,1350
840.968445,1356
841.086548,1345
841.204651,1361
841.322754,1309
841.440918,1363
841.55896,1356
841.677002,1355
841.795166,1333
841.913208,1373
842.031311,1362
842.149353,1412
842.267456,1380
842.385498,1355
842.503601,1349
842.621643,1359
842.739746,1361
842.857788,1363
842.97583,1377
843.093933,1347
843.211975,1380
843.330017,1354
843.44812,1381
843.566101,1358
843.684204,1350
843.802246,1364
843.920227,1377
844.038269,1403
844.156311,1348
844.274292,1382
844.392395,1369
844.510376,1361
844.628357,1339
844.74646,1355
844.864441,1331
844.982422,1416
845.100403,1341
845.218384,1352
845.336426,1352
845.454468,1341
845.572449,1377
845.69043,1348
845.808411,1395
845.926453,1370
846.044373,1357
846.162354,1381
846.280396,1346
846.398315,1379
846.516296,1335
846.634216,1376
846.752197,1396
846.870178,1354
846.988098,1378
847.106079,1354
847.22406,1339
847.34198,1338
847.4599,1341
847.577881,1378
847.695801,1353
847.813782,1382
847.931641,1368
848.049561,1364
848.167603,1382
848.285461,1366
848.403381,1363
848.521362,1368
848.639221,1399
848.75708,1397
848.875,1366
848.99292,1389
849.110901,1378
849.22876,1374
849.34668,1379
849.464539,1385
849.582458,1375
849.700317,1396
849.818176,1371
849.936096,1366
850.053955,1399
850.171875,1392
850.289673,1382
850.407593,1352
850.525452,1429
850.643311,1374
850.761169,1363
850.878967,1387
850.996887,1369
851.114746,1363
851.232544,1369
851.350403,1340
851.468262,1375
851.58606,1387
851.703979,1394
851.821777,1370
851.939636,1390
852.057434,1379
852.175232,1360
852.293091,1369
852.410889,1369
852.528687,1391
852.646545,1387
852.764343,1369
852.88208,1400
852.999939,1357
853.117676,1360
853.235535,1375
853.353271,1365
853.471069,1363
853.588928,1334
853.706604,1365
853.824402,1330
853.9422,1345
854.059998,1358
854.177734,1388
854.295532,1340
854.413269,1319
854.531006,1385
854.648804,1351
854.766541,1342
854.884277,1357
855.002014,1331
855.119751,1344
855.237549,1357
855.355225,1343
855.473022,1348
855.590698,1352
855.708435,1379
855.826172,1363
855.943848,1328
856.061646,1377
856.179321,1328
856.296997,1362
856.414795,1344
856.53241,1365
856.650085,1349
856.767822,1352
856.885559,1349
857.003174,1361
857.120911,1366
857.238586,1359
857.356201,1413
857.473938,1393
857.591614,1362
857.709351,1412
857.826965,1408
857.944641,1374
858.062317,1342
858.179993,1392
858.297668,1327
858.415283,1370
858.532959,1375
858.650574,1379
858.768188,1381
858.885803,1388
859.003479,1397
859.121094,1367
859.23877,1365
859.356384,1395
859.473999,1360
859.591675,1364
859.709229,1345
859.826843,1380
859.944458,1366
860.062012,1324
860.179626,1385
860.297302,1351
860.414856,1367
860.532471,1368
860.650024,1335
860.767639,1385
860.885193,1393
861.002808,1346
861.120361,1369
861.237976,1372
861.35553,1408
861.473022,1346
861.590698,1342
861.708191,1378
861.825745,1401
861.943298,1358
862.060852,1347
862.178406,1370
862.295959,1344
862.413513,1331
862.531006,1365
862.64856,1346
862.766113,1334
862.883667,1333
863.00116,1358
863.118713,1389
863.236206,1351
863.353699,1351
863.471252,1320
863.588745,1333
863.706177,1314
863.82373,1345
863.941162,1357
864.058716,1351
864.176208,1365
864.29364,1344
864.411194,1406
864.528687,1340
864.646118,1392
864.763611,1356
864.881042,1366
864.998535,1369
865.116028,1368
865.233459,1363
865.350891,1321
865.468384,1336
865.585754,1357
865.703308,1342
865.820679,1383
865.938171,1385
866.055542,1334
866.173035,1368
866.290466,1385
866.407837,1298
866.52533,1415
866.6427,1307
866.760071,1366
866.877563,1391
866.994934,1341
867.112305,1366
867.229736,1340
867.347107,1341
867.464539,1370
867.58197,1343
867.699341,1387
867.81665,1361
867.934082,1389
868.051453,1335
868.168823,1381
868.286194,1371
868.403564,1351
868.520935,1366
868.638306,1377
868.755676,1361
868.872986,1400
868.990295,1359
869.107727,1370
869.225037,1347
869.342346,1326
869.459717,1372
869.577026,1329
869.694336,1358
869.811707,1366
869.929016,1350
870.046326,1375
870.163635,1404
870.280945,1390
870.398254,1393
870.515564,1360
870.632812,1396
870.750183,1365
870.867432,1417
870.984741,1397
871.102051,1371
871.219299,1328
871.336609,1408
871.453918,1431
871.571106,1402
871.688416,1404
871.805664,1393
871.922852,1360
872.040222,1364
872.157471,1383
872.274719,1374
872.391968,1416
872.509155,1360
872.626465,1419
872.743652,1363
872.860962,1424
872.978149,1326
873.095337,1361
873.212646,1363
873.329834,1373
873.44696,1345
873.564209,1362
873.681396,1392
873.798645,1399
873.915894,1400
874.03302,1375
874.150208,1427
874.267456,1357
874.384583,1361
874.501831,1392
874.618958,1366
874.736145,1401
874.853333,1361
874.970459,1421
875.087646,1420
875.204834,1397
875.32196,1397
875.439148,1381
875.556274,1394
875.673401,1380
875.790527,1375
875.907715,1402
876.024841,1385
876.141968,1385
876.259094,1406
876.376282,1355
876.493347,1378
876.610474,1361
876.7276,1377
876.844727,1378
876.961853,1370
877.078918,1372
877.195984,1396
877.313171,1399
877.430237,1325
877.547302,1387
877.664368,1386
877.781433,1431
877.898499,1387
878.015625,1409
878.13269,1353
878.249695,1384
878.366821,1382
878.483887,1394
878.600952,1349
878.717957,1432
878.834961,1382
878.952087,1405
879.069092,1373
879.186157,1381
879.303162,1379
879.420227,1371
879.537231,1417
879.654236,1343
879.77124,1417
879.888306,1374
880.005249,1409
880.122314,1402
880.239319,1426
880.356323,1377
880.473328,1404
880.590271,1343
880.707275,1375
880.824341,1384
880.941284,1363
881.058228,1367
881.175232,1386
881.292236,1394
881.40918,1368
881.526123,1349
881.643066,1378
881.760071,1380
881.877014,1353
881.993958,1375
882.11084,1375
882.227783,1352
882.344727,1378
882.46167,1409
882.578613,1378
882.695618,1353
882.812439,1384
882.929382,1381
883.046326,1353
883.163208,1407
883.280151,1393
883.397034,1420
883.513916,1373
883.630798,1390
883.747742,1402
883.864563,1426
883.981506,1408
884.098389,1411
884.21521,1379
884.332153,1449
884.448975,1403
884.565796,1430
884.682678,1424
884.7995,1415
884.916443,1440
885.033264,1403
885.150085,1425
885.266968,1467
885.383789,1430
885.500671,1425
885.617493,1445
885.734314,1412
885.851196,1408
885.967896,1426
886.084717,1413
886.201599,1426
886.318359,1458
886.435181,1450
886.552002,1415
886.668762,1463
886.785645,1454
886.902344,1391
887.019165,1430
887.135925,1391
887.252747,1420
887.369446,1391
887.486267,1416
887.603027,1384
887.719788,1444
887.836548,1400
887.953247,1395
888.070068,1426
888.186829,1401
888.303528,1383
888.420288,1392
888.536987,1367
888.653687,1435
888.770447,1371
888.887146,1403
889.003967,1396
889.120667,1401
889.237305,1423
889.354065,1403
889.470703,1403
889.587463,1396
889.704163,1405
889.820862,1389
889.937561,1410
890.054199,1393
890.170837,1391
890.287598,1421
890.404236,1384
890.520874,1405
890.637634,1443
890.754211,1404
890.87085,1379
890.987549,1407
891.104187,1398
891.220886,1414
891.337463,1427
891.454102,1415
891.57074,1418
891.687378,1437
891.804077,1413
891.920654,1395
892.037231,1416
892.15387,1433
892.270447,1408
892.387085,1449
892.503723,1407
892.6203,1419
892.736877,1390
892.853516,1412
892.970032,1403
893.08667,1447
893.203186,1433
893.319763,1407
893.43634,1446
893.552917,1442
893.669556,1406
893.786011,1356
893.902588,1420
894.019165,1432
894.135681,1414
894.252197,1441
894.368835,1401
894.485291,1421
894.601868,1431
894.718384,1439
894.8349,1470
894.951355,1479
895.067932,1426
895.184448,1417
895.300964,1411
895.417419,1406
895.533936,1400
895.650452,1442
895.766907,1396
895.883423,1388
895.999878,1413
896.116333,1397
896.232849,1414
896.349304,1400
896.465759,1393
896.582214,1435
896.698669,1382
896.815125,1451
896.931641,1425
897.048035,1438
897.164551,1421
897.280884,1444
897.397339,1460
897.513794,1418
897.630249,1437
897.746582,1448
897.863098,1457
897.979431,1386
898.095886,1435
898.212341,1432
898.328674,1454
898.445129,1416
898.561462,1467
898.677795,1433
898.794312,1429
898.910645,1452
899.026978,1400
899.143433,1434
899.259766,1406
899.37616,1437
899.492493,1404
899.608765,1448
899.725159,1440
899.841553,1472
899.957947,1441
900.07428,1444
900.190552,1484
900.306946,1453
900.423157,1450
900.53949,1431
900.655884,1468
900.772156,1450
900.888489,1418
901.004822,1431
901.121033,1430
901.237366,1400
901.353699,1406
901.46991,1439
901.586304,1448
901.702515,1435
901.818787,1448
901.93512,1434
902.051331,1402
902.167603,1435
902.283875,1449
902.400085,1475
902.516418,1414
902.632629,1461
902.74884,1490
902.865112,1484
902.981384,1446
903.097595,1499
903.213867,1460
903.330017,1506
903.446289,1486
903.5625,1461
903.67865,1475
903.794922,1482
903.911072,1449
904.027344,1479
904.143494,1483
904.259705,1429
904.375916,1484
904.492065,1429
904.608215,1510
904.724426,1462
904.840576,1450
904.956726,1428
905.072876,1493
905.189087,1448
905.305176,1450
905.421387,1499
905.537537,1472
905.653687,1506
905.769775,1481
905.885925,1451
906.002014,1459
906.118164,1468
906.234314,1454
906.350403,1513
906.466492,1442
906.582642,1445
906.69873,1444
906.814758,1474
906.930908,1436
907.046936,1399
907.163086,1444
907.279175,1423
907.395264,1460
907.511353,1482
907.62738,1438
907.743408,1435
907.859497,1447
907.975525,1452
908.091553,1470
908.207703,1458
908.32373,1473
908.439758,1465
908.555786,1453
908.671814,1466
908.787842,1436
908.90387,1445
909.019775,1459
909.135864,1442
909.251892,1446
909.367859,1482
909.483826,1487
909.599854,1460
909.715881,1421
909.831848,1460
909.947815,1531
910.063782,1448
910.179749,1451
910.295776,1497
910.411743,1426
910.527649,1500
910.643616,1438
910.759583,1484
910.875488,1477
910.991455,1446
911.107361,1445
911.223267,1456
911.339294,1469
911.4552,1480
911.571106,1428
911.687073,1483
911.802979,1508
911.918823,1514
912.034729,1464
912.150635,1457
912.266602,1473
912.382446,1431
912.498352,1481
912.614197,1454
912.730103,1475
912.846008,1462
