792.44574,2216
792.56488,2211
792.68396,2204
792.80304,2195
792.92218,2146
793.041199,2113
793.160339,2160
793.279419,2084
793.398499,2149
793.517578,2055
793.636658,2077
793.755737,2109
793.874817,2115
793.993896,2057
794.112976,2033
794.232056,2020
794.351074,1988
794.470215,2049
794.589233,2007
794.708313,1968
794.827393,1972
794.946411,1934
795.065552,2050
795.18457,2020
795.303589,1970
795.422668,2004
795.541687,1928
795.660767,1986
795.779846,1926
795.898865,1950
796.017883,1921
796.136963,1916
796.255981,1971
796.375061,1983
796.49408,1899
796.613037,1968
796.732117,1927
796.851135,1906
796.970154,1906
797.089233,1891
797.208191,1849
797.327271,1934
797.446228,1902
797.565186,1870
797.684265,1855
797.803223,1939
797.922241,1947
798.04126,1893
798.160278,1890
798.279297,1915
798.398315,1885
798.517273,1913
798.636292,1904
798.75531,1912
798.874268,1891
798.993286,1886
799.112244,1873
799.231323,1901
799.350281,1914
799.469238,1879
799.588257,1917
799.707153,1872
799.826111,1870
799.945129,1907
800.064087,1917
800.183044,1891
800.302063,1906
800.421021,1917
800.539978,1877
800.658936,1932
800.777893,1924
800.896912,1936
801.015747,1880
801.134705,1939
801.253723,1930
801.37262,1899
801.491638,1885
801.610535,1937
801.729492,1883
801.84845,1883
801.967407,1924
802.086243,1943
802.205261,1953
802.324158,1893
802.443115,1957
802.562073,1937
802.680969,1909
802.799927,1966
802.918762,1970
803.037659,1933
803.156677,1947
803.275574,1965
803.39447,1957
803.513428,1890
803.632263,1984
803.751221,1966
803.870117,1977
803.989014,1959
804.107971,1949
804.226746,1992
804.345642,1961
804.4646,1992
804.583496,1947
804.702393,1999
804.821228,1948
804.940125,2035
805.059021,1995
805.177917,1995
805.296814,2002
805.415649,2021
805.534546,2030
805.653442,2002
805.772278,2016
805.891113,2062
806.01001,2015
806.128906,2030
806.247742,2050
806.366577,1987
806.485413,2020
806.604309,2025
806.723145,2053
806.84198,2016
806.960876,2040
807.079712,2048
807.198486,2094
807.317383,2053
807.436218,1983
807.554993,2062
807.673889,2014
807.792725,2028
807.91156,2077
808.030396,2087
808.14917,2064
808.268005,2051
808.386841,2086
808.505676,2053
808.624451,2091
808.743286,2084
808.862122,2048
808.980896,2032
809.099731,2065
809.218506,2096
809.337341,2083
809.456116,2128
809.57489,2072
809.693726,2158
809.8125,2083
809.931274,2110
810.050049,2107
810.168884,2116
810.287659,2088
810.406372,2074
810.525269,2081
810.643982,2080
810.762756,2079
810.881531,2117
811.000305,2139
811.11908,2101
811.237854,2100
811.356567,2155
811.475403,2134
811.594116,2080
811.71283,2156
811.831604,2140
811.950378,2146
812.069153,2129
812.187927,2123
812.30658,2121
812.425415,2097
812.544128,2149
812.662781,2066
812.781616,2180
812.900269,2130
813.019043,2096
813.137756,2077
813.256531,2138
813.375244,2098
813.493896,2094
813.612671,2136
813.731384,2155
813.850037,2175
813.96875,2118
814.087524,2100
814.206238,2146
814.324951,2041
814.443604,2100
814.562256,2093
814.68103,2094
814.799683,2073
814.918335,2115
815.037109,2068
815.155762,2115
815.274475,2079
815.393188,2062
815.511841,2062
815.630554,2020
815.749146,2045
815.867859,2027
815.986572,2055
816.105164,1992
816.223877,1954
816.342529,2011
816.461182,2051
816.579895,2056
816.698486,2043
816.817139,2006
816.935791,2125
817.054504,2063
817.173096,1969
817.291748,1997
817.4104,2031
817.529053,1952
817.647644,1908
817.766235,1940
817.884949,1897
818.00354,1837
818.122192,1814
818.240845,1769
818.359436,1747
818.478088,1725
818.59668,1692
818.715271,1659
818.833923,1655
818.952515,1605
819.071106,1622
819.189758,1548
819.30835,1525
819.426941,1625
819.545532,1543
819.664124,1521
819.782715,1549
819.901306,1548
820.019897,1502
820.138489,1555
820.25708,1484
820.375671,1518
820.494202,1479
820.612732,1464
820.731384,1484
820.849915,1491
820.968506,1468
821.087097,1466
821.205627,1500
821.324158,1455
821.442749,1450
821.561279,1455
821.679871,1483
821.798401,1465
821.916931,1480
822.035461,1459
822.154053,1397
822.272583,1429
822.391174,1457
822.509583,1423
822.628174,1454
822.746704,1461
822.865234,1398
822.983765,1465
823.102295,1448
823.220825,1431
823.339294,1442
823.457825,1450
823.576355,1433
823.694824,1432
823.813354,1434
823.931885,1463
824.050354,1439
824.168884,1546
824.287354,1463
824.405823,1482
824.524353,1436
824.642822,1496
824.761353,1475
824.879822,1491
824.998291,1455
825.116699,1419
825.235291,1433
825.353699,1475
825.472168,1460
825.590637,1428
825.709106,1444
825.827576,1395
825.946045,1402
826.064453,1382
826.182983,1409
826.301392,1378
826.4198,1372
826.53833,1382
826.656738,1385
826.775208,1403
826.893677,1378
827.012024,1370
827.130493,1339
827.248962,1385
827.36731,1383
827.485779,1378
827.604248,1382
827.722595,1369
827.841064,1318
827.959412,1371
828.077942,1370
828.196289,1350
828.314636,1369
828.433105,1361
828.551514,1371
828.669861,1352
828.78833,1307
828.906677,1336
829.025085,1350
829.143433,1394
829.261841,1339
829.38031,1367
829.498657,1330
829.617004,1351
829.735413,1301
829.85376,1349
829.972107,1312
830.090515,1302
830.208862,1330
830.327209,1329
830.445557,1321
830.563904,1296
830.682312,1359
830.800659,1320
830.919006,1347
831.037354,1335
831.155701,1330
831.274048,1334
831.392395,1275
831.51062,1351
831.629028,1322
831.747314,1331
831.865662,1332
831.984009,1363
832.102356,1288
832.220642,1328
832.338928,1338
832.457275,1325
832.575623,1311
832.693909,1317
832.812134,1323
832.930481,1311
833.048828,1346
833.167114,1301
833.2854,1310
833.403687,1351
833.521973,1337
833.640259,1313
833.758545,1347
833.876831,1359
833.995056,1348
834.113281,1323
834.231628,1317
834.349915,1324
834.468201,1358
834.586426,1338
834.704651,1319
834.822998,1334
834.941162,1341
835.059448,1336
835.177673,1339
835.295959,1348
835.414246,1355
835.53241,1362
835.650635,1347
835.768921,1362
835.887146,1382
836.005371,1328
836.123596,1338
836.241821,1385
836.360046,1390
836.478271,1392
836.596497,1392
836.714722,1380
836.832886,1404
836.95105,1374
837.069336,1386
837.1875,1391
837.305725,1439
837.423889,1400
837.542053,1399
837.660339,1447
837.778503,1435
837.896667,1401
838.014832,1418
838.132996,1413
838.25116,1417
838.369385,1380
838.487488,1381
838.605713,1396
838.723877,1399
838.84198,1439
838.960205,1406
839.078308,1444
839.196472,1360
839.314636,1390
839.4328,1392
839.550964,1430
839.669067,1399
839.787231,1364
839.905396,1395
840.023499,1387
840.141602,1401
840.259766,1374
840.377869,1377
840.495972,1370
840.614136,1342
840.732239,1372
840.850342,1348
840.968445,1350
841.086548,1334
841.204651,1379
841.322754,1394
841.440918,1311
841.55896,1395
841.677002,1341
841.795166,1374
841.913208,1352
842.031311,1330
842.149353,1296
842.267456,1328
842.385498,1332
842.503601,1326
842.621643,1311
842.739746,1344
842.857788,1297
842.97583,1299
843.093933,1334
843.211975,1330
843.330017,1298
843.44812,1325
843.566101,1314
843.684204,1304
843.802246,1359
843.920227,1324
844.038269,1293
844.156311,1297
844.274292,1302
844.392395,1326
844.510376,1297
844.628357,1287
844.74646,1307
844.864441,1277
844.982422,1288
845.100403,1287
845.218384,1318
845.336426,1311
845.454468,1314
845.572449,1313
845.69043,1305
845.808411,1285
845.926453,1317
846.044373,1295
846.162354,1321
846.280396,1290
846.398315,1321
846.516296,1344
846.634216,1321
846.752197,1282
846.870178,1296
846.988098,1326
847.106079,1345
847.22406,1287
847.34198,1313
847.4599,1319
847.577881,1301
847.695801,1324
847.813782,1289
847.931641,1295
848.049561,1283
848.167603,1290
848.285461,1272
848.403381,1310
848.521362,1304
848.639221,1312
848.75708,1277
848.875,1324
848.99292,1304
849.110901,1304
849.22876,1273
849.34668,1311
849.464539,1301
849.582458,1262
849.700317,1334
849.818176,1300
849.936096,1289
850.053955,1313
850.171875,1297
850.289673,1292
850.407593,1305
850.525452,1301
850.643311,1314
850.761169,1285
850.878967,1273
850.996887,1318
851.114746,1288
851.232544,1274
851.350403,1287
851.468262,1298
851.58606,1271
851.703979,1300
851.821777,1332
851.939636,1276
852.057434,1309
852.175232,1284
852.293091,1265
852.410889,1288
852.528687,1292
852.646545,1332
852.764343,1290
852.88208,1345
852.999939,1301
853.117676,1313
853.235535,1322
853.353271,1313
853.471069,1304
853.588928,1344
853.706604,1345
853.824402,1330
853.9422,1344
854.059998,1294
854.177734,1339
854.295532,1319
854.413269,1321
854.531006,1309
854.648804,1334
854.766541,1336
854.884277,1346
855.002014,1354
855.119751,1319
855.237549,1379
855.355225,1330
855.473022,1305
855.590698,1334
855.708435,1374
855.826172,1348
855.943848,1317
856.061646,1315
856.179321,1308
856.296997,1358
856.414795,1300
856.53241,1376
856.650085,1330
856.767822,1336
856.885559,1392
857.003174,1330
857.120911,1362
857.238586,1357
857.356201,1349
857.473938,1292
857.591614,1329
857.709351,1351
857.826965,1334
857.944641,1360
858.062317,1324
858.179993,1350
858.297668,1323
858.415283,1345
858.532959,1377
858.650574,1345
858.768188,1329
858.885803,1312
859.003479,1384
859.121094,1313
859.23877,1317
859.356384,1363
859.473999,1310
859.591675,1350
859.709229,1327
859.826843,1323
859.944458,1352
860.062012,1302
860.179626,1308
860.297302,1353
860.414856,1307
860.532471,1286
860.650024,1326
860.767639,1339
860.885193,1343
861.002808,1329
861.120361,1325
861.237976,1330
861.35553,1376
861.473022,1303
861.590698,1265
861.708191,1315
861.825745,1311
861.943298,1370
862.060852,1348
862.178406,1318
862.295959,1311
862.413513,1334
862.531006,1310
862.64856,1339
862.766113,1312
862.883667,1294
863.00116,1318
863.118713,1338
863.236206,1342
863.353699,1346
863.471252,1334
863.588745,1343
863.706177,1355
863.82373,1354
863.941162,1317
864.058716,1317
864.176208,1367
864.29364,1344
864.411194,1316
864.528687,1324
864.646118,1401
864.763611,1316
864.881042,1322
864.998535,1370
865.116028,1325
865.233459,1357
865.350891,1317
865.468384,1383
865.585754,1347
865.703308,1344
865.820679,1331
865.938171,1349
866.055542,1337
866.173035,1327
866.290466,1332
866.407837,1344
866.52533,1355
866.6427,1337
866.760071,1315
866.877563,1350
866.994934,1336
867.112305,1366
867.229736,1335
867.347107,1326
867.464539,1353
867.58197,1356
867.699341,1360
867.81665,1326
867.934082,1344
868.051453,1381
868.168823,1355
868.286194,1320
868.403564,1329
868.520935,1340
868.638306,1342
868.755676,1336
868.872986,1372
868.990295,1317
869.107727,1338
869.225037,1388
869.342346,1317
869.459717,1361
869.577026,1336
869.694336,1296
869.811707,1327
869.929016,1361
870.046326,1391
870.163635,1351
870.280945,1335
870.398254,1326
870.515564,1350
870.632812,1352
870.750183,1358
870.867432,1375
870.984741,1383
871.102051,1368
871.219299,1333
871.336609,1354
871.453918,1387
871.571106,1342
871.688416,1378
871.805664,1343
871.922852,1385
872.040222,1358
872.157471,1370
872.274719,1365
872.391968,1391
872.509155,1349
872.626465,1320
872.743652,1366
872.860962,1332
872.978149,1342
873.095337,1359
873.212646,1378
873.329834,1320
873.44696,1345
873.564209,1313
873.681396,1380
873.798645,1346
873.915894,1374
874.03302,1415
874.150208,1357
874.267456,1377
874.384583,1355
874.501831,1338
874.618958,1373
874.736145,1386
874.853333,1336
874.970459,1309
875.087646,1377
875.204834,1363
875.32196,1352
875.439148,1379
875.556274,1341
875.673401,1388
875.790527,1337
875.907715,1358
876.024841,1371
876.141968,1344
876.259094,1320
876.376282,1360
876.493347,1414
876.610474,1332
876.7276,1389
876.844727,1372
876.961853,1341
877.078918,1383
877.195984,1376
877.313171,1368
877.430237,1352
877.547302,1383
877.664368,1338
877.781433,1354
877.898499,1327
878.015625,1384
878.13269,1361
878.249695,1340
878.366821,1359
878.483887,1375
878.600952,1366
878.717957,1338
878.834961,1358
878.952087,1386
879.069092,1332
879.186157,1364
879.303162,1343
879.420227,1380
879.537231,1329
879.654236,1351
879.77124,1360
879.888306,1354
880.005249,1379
880.122314,1391
880.239319,1347
880.356323,1356
880.473328,1322
880.590271,1377
880.707275,1375
880.824341,1329
880.941284,1369
881.058228,1361
881.175232,1391
881.292236,1310
881.40918,1365
881.526123,1371
881.643066,1355
881.760071,1360
881.877014,1363
881.993958,1378
882.11084,1334
882.227783,1398
882.344727,1361
882.46167,1360
882.578613,1335
882.695618,1370
882.812439,1343
882.929382,1348
883.046326,1425
883.163208,1383
883.280151,1394
883.397034,1399
883.513916,1395
883.630798,1375
883.747742,1385
883.864563,1391
883.981506,1353
884.098389,1365
884.21521,1375
884.332153,1374
884.448975,1361
884.565796,1364
884.682678,1358
884.7995,1379
884.916443,1409
885.033264,1362
885.150085,1401
885.266968,1403
885.383789,1394
885.500671,1414
885.617493,1420
885.734314,1407
885.851196,1397
885.967896,1400
886.084717,1406
886.201599,1420
886.318359,1376
886.435181,1406
886.552002,1422
886.668762,1387
886.785645,1383
886.902344,1356
887.019165,1396
887.135925,1392
887.252747,1416
887.369446,1411
887.486267,1412
887.603027,1370
887.719788,1374
887.836548,1370
887.953247,1410
888.070068,1412
888.186829,1384
888.303528,1384
888.420288,1419
888.536987,1363
888.653687,1403
888.770447,1400
888.887146,1432
889.003967,1359
889.120667,1395
889.237305,1374
889.354065,1422
889.470703,1436
889.587463,1389
889.704163,1404
889.820862,1403
889.937561,1386
890.054199,1363
890.170837,1397
890.287598,1377
890.404236,1392
890.520874,1416
890.637634,1382
890.754211,1383
890.87085,1389
890.987549,1408
891.104187,1428
891.220886,1367
891.337463,1435
891.454102,1363
891.57074,1446
891.687378,1422
891.804077,1381
891.920654,1355
892.037231,1383
892.15387,1409
892.270447,1394
892.387085,1456
892.503723,1399
892.6203,1431
892.736877,1381
892.853516,1380
892.970032,1386
893.08667,1387
893.203186,1398
893.319763,1389
893.43634,1399
893.552917,1445
893.669556,1432
893.786011,1415
893.902588,1428
894.019165,1424
894.135681,1440
894.252197,1425
894.368835,1444
894.485291,1390
894.601868,1413
894.718384,1417
894.8349,1425
894.951355,1398
895.067932,1425
895.184448,1398
895.300964,1461
895.417419,1424
895.533936,1407
895.650452,1396
895.766907,1397
895.883423,1464
895.999878,1430
896.116333,1429
896.232849,1411
896.349304,1444
896.465759,1418
896.582214,1411
896.698669,1472
896.815125,1448
896.931641,1443
897.048035,1421
897.164551,1388
897.280884,1475
897.397339,1391
897.513794,1444
897.630249,1400
897.746582,1407
897.863098,1424
897.979431,1380
898.095886,1474
898.212341,1387
898.328674,1424
898.445129,1436
898.561462,1431
898.677795,1424
898.794312,1406
898.910645,1423
899.026978,1449
899.143433,1415
899.259766,1466
899.37616,1416
899.492493,1421
899.608765,1412
899.725159,1411
899.841553,1442
899.957947,1419
900.07428,1442
900.190552,1467
900.306946,1413
900.423157,1448
900.53949,1425
900.655884,1417
900.772156,1441
900.888489,1413
901.004822,1421
901.121033,1448
901.237366,1390
901.353699,1406
901.46991,1444
901.586304,1416
901.702515,1452
901.818787,1404
901.93512,1424
902.051331,1405
902.167603,1434
902.283875,1451
902.400085,1450
902.516418,1472
902.632629,1428
902.74884,1519
902.865112,1457
902.981384,1444
903.097595,1444
903.213867,1423
903.330017,1503
903.446289,1485
903.5625,1436
903.67865,1491
903.794922,1473
903.911072,1432
904.027344,1449
904.143494,1445
904.259705,1435
904.375916,1478
904.492065,1474
904.608215,1443
904.724426,1425
904.840576,1410
904.956726,1443
905.072876,1437
905.189087,1429
905.305176,1449
905.421387,1450
905.537537,1448
905.653687,1457
905.769775,1467
905.885925,1466
906.002014,1474
906.118164,1461
906.234314,1417
906.350403,1486
906.466492,1428
906.582642,1441
906.69873,1468
906.814758,1469
906.930908,1469
907.046936,1427
907.163086,1475
907.279175,1470
907.395264,1383
907.511353,1472
907.62738,1443
907.743408,1435
907.859497,1465
907.975525,1438
908.091553,1435
908.207703,1488
908.32373,1428
908.439758,1503
908.555786,1463
908.671814,1431
908.787842,1495
908.90387,1468
909.019775,1485
909.135864,1450
909.251892,1448
909.367859,1448
909.483826,1478
909.599854,1479
909.715881,1446
909.831848,1469
909.947815,1477
910.063782,1471
910.179749,1465
910.295776,1470
910.411743,1428
910.527649,1467
910.643616,1466
910.759583,1440
910.875488,1401
910.991455,1464
911.107361,1497
911.223267,1509
911.339294,1484
911.4552,1452
911.571106,1457
911.687073,1462
911.802979,1455
911.918823,1458
912.034729,1432
912.150635,1471
912.266602,1462
912.382446,1491
912.498352,1465
912.614197,1447
912.730103,1433
912.846008,1466
792.44574,2213
792.56488,2209
792.68396,2259
792.80304,2209
792.92218,2140
793.041199,2126
793.160339,2138
793.279419,2149
793.398499,2119
793.517578,2092
793.636658,2134
793.755737,2144
793.874817,2152
793.993896,2093
794.112976,2044
794.232056,2058
794.351074,2064
794.470215,2071
794.589233,2065
794.708313,2032
794.827393,2007
794.946411,2012
795.065552,2028
795.18457,1995
795.303589,2022
795.422668,1967
795.541687,1974
795.660767,2007
795.779846,2018
795.898865,1994
796.017883,1982
796.136963,1979
796.255981,1944
796.375061,1908
796.49408,1976
796.613037,1943
796.732117,1939
796.851135,1942
796.970154,1966
797.089233,1953
797.208191,1963
797.327271,1969
797.446228,1939
797.565186,1986
797.684265,1977
797.803223,1908
797.922241,1930
798.04126,1923
798.160278,1950
798.279297,1909
798.398315,1928
798.517273,1895
798.636292,1918
798.75531,1895
798.874268,1919
798.993286,1941
799.112244,1931
799.231323,1913
799.350281,1903
799.469238,1930
799.588257,1918
799.707153,1909
799.826111,1935
799.945129,1956
800.064087,1944
800.183044,1988
800.302063,1938
800.421021,1941
800.539978,1944
800.658936,1914
800.777893,1869
800.896912,1953
801.015747,1907
801.134705,1942
801.253723,1907
801.37262,1975
801.491638,1944
801.610535,1952
801.729492,1963
801.84845,1934
801.967407,1976
802.086243,1968
802.205261,1944
802.324158,1962
802.443115,1960
802.562073,1960
802.680969,1993
802.799927,1986
802.918762,1953
803.037659,1969
803.156677,2022
803.275574,2009
803.39447,1977
803.513428,2007
803.632263,2028
803.751221,1986
803.870117,1979
803.989014,1998
804.107971,1977
804.226746,2020
804.345642,1990
804.4646,2043
804.583496,2044
804.702393,2010
804.821228,1980
804.940125,2006
805.059021,2072
805.177917,2027
805.296814,1986
805.415649,2069
805.534546,2043
805.653442,2058
805.772278,2025
805.891113,2050
806.01001,2034
806.128906,2024
806.247742,2067
806.366577,2025
806.485413,2128
806.604309,2080
806.723145,2071
806.84198,2071
806.960876,2033
807.079712,2017
807.198486,2108
807.317383,2127
807.436218,2110
807.554993,2080
807.673889,2076
807.792725,2112
807.91156,2099
808.030396,2102
808.14917,2097
808.268005,2123
808.386841,2106
808.505676,2127
808.624451,2094
808.743286,2076
808.862122,2089
808.980896,2071
809.099731,2122
809.218506,2140
809.337341,2056
809.456116,2109
809.57489,2139
809.693726,2119
809.8125,2133
809.931274,2092
810.050049,2139
810.168884,2169
810.287659,2200
810.406372,2163
810.525269,2181
810.643982,2124
810.762756,2139
810.881531,2203
811.000305,2170
811.11908,2131
811.237854,2178
811.356567,2124
811.475403,2191
811.594116,2137
811.71283,2167
811.831604,2158
811.950378,2156
812.069153,2185
812.187927,2224
812.30658,2192
812.425415,2128
812.544128,2177
812.662781,2166
812.781616,2179
812.900269,2156
813.019043,2191
813.137756,2163
813.256531,2153
813.375244,2137
813.493896,2162
813.612671,2134
813.731384,2129
813.850037,2170
813.96875,2186
814.087524,2198
814.206238,2158
814.324951,2095
814.443604,2114
814.562256,2068
814.68103,2126
814.799683,2123
814.918335,2117
815.037109,2148
815.155762,2128
815.274475,2096
815.393188,2088
815.511841,2112
815.630554,2077
815.749146,2031
815.867859,2047
815.986572,2031
816.105164,2006
816.223877,2032
816.342529,2036
816.461182,2060
816.579895,2059
816.698486,2071
816.817139,2049
816.935791,2054
817.054504,2046
817.173096,2027
817.291748,2052
817.4104,2068
817.529053,1986
817.647644,2030
817.766235,1913
817.884949,1956
818.00354,1887
818.122192,1845
818.240845,1795
818.359436,1779
818.478088,1750
818.59668,1752
818.715271,1735
818.833923,1691
818.952515,1645
819.071106,1603
819.189758,1625
819.30835,1612
819.426941,1600
819.545532,1583
819.664124,1597
819.782715,1574
819.901306,1541
820.019897,1524
820.138489,1544
820.25708,1566
820.375671,1527
820.494202,1495
820.612732,1518
820.731384,1527
820.849915,1531
820.968506,1498
821.087097,1483
821.205627,1513
821.324158,1501
821.442749,1500
821.561279,1461
821.679871,1474
821.798401,1476
821.916931,1503
822.035461,1485
822.154053,1484
822.272583,1425
822.391174,1514
822.509583,1475
822.628174,1470
822.746704,1501
822.865234,1413
822.983765,1473
823.102295,1446
823.220825,1433
823.339294,1460
823.457825,1442
823.576355,1466
823.694824,1462
823.813354,1426
823.931885,1469
824.050354,1468
824.168884,1445
824.287354,1470
824.405823,1510
824.524353,1514
824.642822,1490
824.761353,1472
824.879822,1498
824.998291,1470
825.116699,1454
825.235291,1446
825.353699,1465
825.472168,1455
825.590637,1467
825.709106,1437
825.827576,1445
825.946045,1457
826.064453,1418
826.182983,1429
826.301392,1399
826.4198,1431
826.53833,1406
826.656738,1433
826.775208,1397
826.893677,1407
827.012024,1408
827.130493,1397
827.248962,1413
827.36731,1410
827.485779,1396
827.604248,1350
827.722595,1399
827.841064,1380
827.959412,1388
828.077942,1375
828.196289,1417
828.314636,1366
828.433105,1401
828.551514,1346
828.669861,1378
828.78833,1383
828.906677,1340
829.025085,1372
829.143433,1400
829.261841,1357
829.38031,1348
829.498657,1334
829.617004,1357
829.735413,1377
829.85376,1351
829.972107,1364
830.090515,1333
830.208862,1327
830.327209,1378
830.445557,1358
830.563904,1372
830.682312,1372
830.800659,1360
830.919006,1378
831.037354,1336
831.155701,1347
831.274048,1340
831.392395,1363
831.51062,1362
831.629028,1306
831.747314,1363
831.865662,1336
831.984009,1330
832.102356,1392
832.220642,1342
832.338928,1342
832.457275,1372
832.575623,1376
832.693909,1338
832.812134,1347
832.930481,1376
833.048828,1376
833.167114,1381
833.2854,1336
833.403687,1363
833.521973,1363
833.640259,1313
833.758545,1391
833.876831,1338
833.995056,1378
834.113281,1378
834.231628,1372
834.349915,1360
834.468201,1341
834.586426,1383
834.704651,1401
834.822998,1376
834.941162,1382
835.059448,1379
835.177673,1323
835.295959,1406
835.414246,1350
835.53241,1340
835.650635,1365
835.768921,1368
835.887146,1382
836.005371,1416
836.123596,1385
836.241821,1367
836.360046,1401
836.478271,1402
836.596497,1406
836.714722,1406
836.832886,1442
836.95105,1418
837.069336,1419
837.1875,1427
837.305725,1422
837.423889,1424
837.542053,1442
837.660339,1444
837.778503,1411
837.896667,1453
838.014832,1446
838.132996,1416
838.25116,1420
838.369385,1441
838.487488,1429
838.605713,1441
838.723877,1459
838.84198,1446
838.960205,1436
839.078308,1381
839.196472,1419
839.314636,1428
839.4328,1422
839.550964,1412
839.669067,1413
839.787231,1387
839.905396,1443
840.023499,1385
840.141602,1385
840.259766,1416
840.377869,1412
840.495972,1404
840.614136,1429
840.732239,1366
840.850342,1388
840.968445,1368
841.086548,1339
841.204651,1416
841.322754,1403
841.440918,1350
841.55896,1413
841.677002,1344
841.795166,1367
841.913208,1341
842.031311,1373
842.149353,1334
842.267456,1369
842.385498,1350
842.503601,1366
842.621643,1366
842.739746,1319
842.857788,1346
842.97583,1358
843.093933,1374
843.211975,1372
843.330017,1354
843.44812,1285
843.566101,1331
843.684204,1337
843.802246,1337
843.920227,1370
844.038269,1318
844.156311,1340
844.274292,1341
844.392395,1309
844.510376,1331
844.628357,1302
844.74646,1367
844.864441,1348
844.982422,1313
845.100403,1345
845.218384,1315
845.336426,1329
845.454468,1347
845.572449,1332
845.69043,1321
845.808411,1303
845.926453,1328
846.044373,1312
846.162354,1319
846.280396,1370
846.398315,1360
846.516296,1351
846.634216,1325
846.752197,1304
846.870178,1319
846.988098,1294
847.106079,1266
847.22406,1303
847.34198,1302
847.4599,1342
847.577881,1373
847.695801,1300
847.813782,1340
847.931641,1324
848.049561,1371
848.167603,1282
848.285461,1291
848.403381,1320
848.521362,1338
848.639221,1328
848.75708,1300
848.875,1330
848.99292,1320
849.110901,1319
849.22876,1318
849.34668,1321
849.464539,1323
849.582458,1340
849.700317,1323
849.818176,1320
849.936096,1325
850.053955,1336
850.171875,1328
850.289673,1339
850.407593,1320
850.525452,1348
850.643311,1313
850.761169,1309
850.878967,1308
850.996887,1338
851.114746,1342
851.232544,1356
851.350403,1342
851.468262,1341
851.58606,1335
851.703979,1349
851.821777,1333
851.939636,1354
852.057434,1382
852.175232,1340
852.293091,1327
852.410889,1324
852.528687,1305
852.646545,1343
852.764343,1298
852.88208,1371
852.999939,1362
853.117676,1338
853.235535,1360
853.353271,1336
853.471069,1319
853.588928,1354
853.706604,1311
853.824402,1370
853.9422,1306
854.059998,1357
854.177734,1366
854.295532,1316
854.413269,1363
854.531006,1360
854.648804,1346
854.766541,1332
854.884277,1374
855.002014,1360
855.119751,1329
855.237549,1364
855.355225,1395
855.473022,1356
855.590698,1342
855.708435,1337
855.826172,1313
855.943848,1396
856.061646,1346
856.179321,1356
856.296997,1371
856.414795,1350
856.53241,1385
856.650085,1347
856.767822,1374
856.885559,1388
857.003174,1381
857.120911,1373
857.238586,1378
857.356201,1383
857.473938,1342
857.591614,1356
857.709351,1325
857.826965,1376
857.944641,1332
858.062317,1347
858.179993,1360
858.297668,1324
858.415283,1361
858.532959,1399
858.650574,1358
858.768188,1407
858.885803,1394
859.003479,1395
859.121094,1367
859.23877,1356
859.356384,1350
859.473999,1327
859.591675,1362
859.709229,1422
859.826843,1341
859.944458,1335
860.062012,1354
860.179626,1319
860.297302,1304
860.414856,1357
860.532471,1315
860.650024,1366
860.767639,1371
860.885193,1346
861.002808,1321
861.120361,1331
861.237976,1348
861.35553,1350
861.473022,1365
861.590698,1349
861.708191,1343
861.825745,1374
861.943298,1346
862.060852,1325
862.178406,1345
862.295959,1332
862.413513,1317
862.531006,1314
862.64856,1334
862.766113,1351
862.883667,1354
863.00116,1324
863.118713,1352
863.236206,1357
863.353699,1330
863.471252,1361
863.588745,1335
863.706177,1373
863.82373,1345
863.941162,1365
864.058716,1337
864.176208,1347
864.29364,1337
864.411194,1363
864.528687,1331
864.646118,1382
864.763611,1357
864.881042,1345
864.998535,1377
865.116028,1378
865.233459,1370
865.350891,1303
865.468384,1418
865.585754,1336
865.703308,1382
865.820679,1366
865.938171,1385
866.055542,1364
866.173035,1413
866.290466,1331
866.407837,1389
866.52533,1360
866.6427,1334
866.760071,1345
866.877563,1372
866.994934,1367
867.112305,1363
867.229736,1373
867.347107,1361
867.464539,1365
867.58197,1358
867.699341,1381
867.81665,1344
867.934082,1388
868.051453,1362
868.168823,1409
868.286194,1356
868.403564,1351
868.520935,1379
868.638306,1387
868.755676,1341
868.872986,1371
868.990295,1353
869.107727,1381
869.225037,1397
869.342346,1391
869.459717,1382
869.577026,1379
869.694336,1354
869.811707,1379
869.929016,1365
870.046326,1358
870.163635,1376
870.280945,1384
870.398254,1377
870.515564,1372
870.632812,1347
870.750183,1402
870.867432,1364
870.984741,1365
871.102051,1378
871.219299,1348
871.336609,1405
871.453918,1376
871.571106,1416
871.688416,1417
871.805664,1341
871.922852,1382
872.040222,1360
872.157471,1356
872.274719,1409
872.391968,1392
872.509155,1366
872.626465,1388
872.743652,1334
872.860962,1364
872.978149,1357
873.095337,1345
873.212646,1383
873.329834,1366
873.44696,1370
873.564209,1379
873.681396,1373
873.798645,1382
873.915894,1358
874.03302,1348
874.150208,1383
874.267456,1358
874.384583,1403
874.501831,1337
874.618958,1355
874.736145,1401
874.853333,1362
874.970459,1385
875.087646,1387
875.204834,1348
875.32196,1390
875.439148,1385
875.556274,1351
875.673401,1404
875.790527,1405
875.907715,1376
876.024841,1367
876.141968,1355
876.259094,1421
876.376282,1386
876.493347,1396
876.610474,1366
876.7276,1361
876.844727,1433
876.961853,1359
877.078918,1390
877.195984,1393
877.313171,1411
877.430237,1386
877.547302,1379
877.664368,1390
877.781433,1366
877.898499,1368
878.015625,1404
878.13269,1350
878.249695,1415
878.366821,1419
878.483887,1368
878.600952,1416
878.717957,1396
878.834961,1415
878.952087,1398
879.069092,1371
879.186157,1398
879.303162,1393
879.420227,1354
879.537231,1392
879.654236,1370
879.77124,1387
879.888306,1359
880.005249,1404
880.122314,1370
880.239319,1357
880.356323,1398
880.473328,1374
880.590271,1349
880.707275,1377
880.824341,1397
880.941284,1368
881.058228,1366
881.175232,1362
881.292236,1372
881.40918,1380
881.526123,1403
881.643066,1407
881.760071,1394
881.877014,1404
881.993958,1370
882.11084,1408
882.227783,1406
882.344727,1387
882.46167,1431
882.578613,1355
882.695618,1405
882.812439,1421
882.929382,1363
883.046326,1381
883.163208,1395
883.280151,1387
883.397034,1370
883.513916,1381
883.630798,1393
883.747742,1379
883.864563,1414
883.981506,1430
884.098389,1400
884.21521,1417
884.332153,1418
884.448975,1419
884.565796,1420
884.682678,1423
884.7995,1409
884.916443,1390
885.033264,1458
885.150085,1384
885.266968,1447
885.383789,1395
885.500671,1441
885.617493,1444
885.734314,1502
885.851196,1412
885.967896,1438
886.084717,1382
886.201599,1406
886.318359,1388
886.435181,1423
886.552002,1402
886.668762,1485
886.785645,1430
886.902344,1420
887.019165,1443
887.135925,1444
887.252747,1448
887.369446,1423
887.486267,1440
887.603027,1403
887.719788,1400
887.836548,1377
887.953247,1409
888.070068,1404
888.186829,1425
888.303528,1434
888.420288,1393
888.536987,1426
888.653687,1418
888.770447,1410
888.887146,1418
889.003967,1449
889.120667,1431
889.237305,1384
889.354065,1441
889.470703,1383
889.587463,1403
889.704163,1464
889.820862,1422
889.937561,1413
890.054199,1423
890.170837,1411
890.287598,1423
890.404236,1394
890.520874,1435
890.637634,1438
890.754211,1409
890.87085,1447
890.987549,1450
891.104187,1405
891.220886,1422
891.337463,1465
891.454102,1438
891.57074,1395
891.687378,1450
891.804077,1399
891.920654,1454
892.037231,1399
892.15387,1461
892.270447,1418
892.387085,1455
892.503723,1467
892.6203,1381
892.736877,1419
892.853516,1404
892.970032,1440
893.08667,1428
893.203186,1458
893.319763,1446
893.43634,1452
893.552917,1433
893.669556,1445
893.786011,1448
893.902588,1456
894.019165,1443
894.135681,1385
894.252197,1425
894.368835,1477
894.485291,1452
894.601868,1395
894.718384,1441
894.8349,1444
894.951355,1414
895.067932,1465
895.184448,1413
895.300964,1451
895.417419,1413
895.533936,1444
895.650452,1441
895.766907,1413
895.883423,1461
895.999878,1434
896.116333,1430
896.232849,1432
896.349304,1404
896.465759,1440
896.582214,1405
896.698669,1452
896.815125,1459
896.931641,1445
897.048035,1443
897.164551,1443
897.280884,1421
897.397339,1430
897.513794,1480
897.630249,1448
897.746582,1423
897.863098,1474
897.979431,1476
898.095886,1425
898.212341,1430
898.328674,1511
898.445129,1472
898.561462,1476
898.677795,1435
898.794312,1452
898.910645,1455
899.026978,1473
899.143433,1449
899.259766,1495
899.37616,1459
899.492493,1439
899.608765,1457
899.725159,1448
899.841553,1441
899.957947,1479
900.07428,1481
900.190552,1455
900.306946,1422
900.423157,1451
900.53949,1430
900.655884,1455
900.772156,1443
900.888489,1443
901.004822,1455
901.121033,1456
901.237366,1468
901.353699,1491
901.46991,1477
901.586304,1447
901.702515,1416
901.818787,1527
901.93512,1435
902.051331,1482
902.167603,1493
902.283875,1499
902.400085,1464
902.516418,1494
902.632629,1453
902.74884,1537
902.865112,1476
902.981384,1472
903.097595,1463
903.213867,1472
903.330017,1516
903.446289,1498
903.5625,1497
903.67865,1495
903.794922,1473
903.911072,1457
904.027344,1482
904.143494,1477
904.259705,1471
904.375916,1484
904.492065,1489
904.608215,1460
904.724426,1447
904.840576,1514
904.956726,1471
905.072876,1484
905.189087,1502
905.305176,1520
905.421387,1512
905.537537,1491
905.653687,1485
905.769775,1459
905.885925,1489
906.002014,1517
906.118164,1500
906.234314,1488
906.350403,1463
906.466492,1470
906.582642,1425
906.69873,1494
906.814758,1496
906.930908,1505
907.046936,1489
907.163086,1531
907.279175,1547
907.395264,1531
907.511353,1471
907.62738,1526
907.743408,1469
907.859497,1498
907.975525,1490
908.091553,1518
908.207703,1466
908.32373,1521
908.439758,1475
908.555786,1475
908.671814,1486
908.787842,1466
908.90387,1477
909.019775,1511
909.135864,1475
909.251892,1532
909.367859,1488
909.483826,1492
909.599854,1470
909.715881,1497
909.831848,1481
909.947815,1499
910.063782,1460
910.179749,1474
910.295776,1453
910.411743,1522
910.527649,1469
910.643616,1506
910.759583,1496
910.875488,1459
910.991455,1533
911.107361,1499
911.223267,1473
911.339294,1493
911.4552,1519
911.571106,1523
911.687073,1517
911.802979,1497
911.918823,1448
912.034729,1478
912.150635,1474
912.266602,1503
912.382446,1524
912.498352,1473
912.614197,1465
912.730103,1516
912.846008,1508
792.44574,2274
792.56488,2265
792.68396,2239
792.80304,2236
792.92218,2211
793.041199,2153
793.160339,2172
793.279419,2154
793.398499,2110
793.517578,2138
793.636658,2133
793.755737,2144
793.874817,2130
793.993896,2074
794.112976,2085
794.232056,2043
794.351074,2085
794.470215,2071
794.589233,2067
794.708313,2023
794.827393,2043
794.946411,2066
795.065552,1983
795.18457,2040
795.303589,2070
795.422668,2022
795.541687,2019
795.660767,2019
795.779846,1975
795.898865,1977
796.017883,1983
796.136963,2019
796.255981,1962
796.375061,1957
796.49408,1969
796.613037,1902
796.732117,1908
796.851135,1970
796.970154,2006
797.089233,1999
797.208191,1958
797.327271,1982
797.446228,1939
797.565186,1960
797.684265,1970
797.803223,1921
797.922241,1972
798.04126,1937
798.160278,1926
798.279297,1948
798.398315,1951
798.517273,1963
798.636292,1934
798.75531,1966
798.874268,1885
798.993286,1942
799.112244,1958
799.231323,1955
799.350281,1945
799.469238,1955
799.588257,1941
799.707153,2011
799.826111,1942
799.945129,1941
800.064087,1980
800.183044,1928
800.302063,1947
800.421021,1992
800.539978,1949
800.658936,1950
800.777893,1934
800.896912,1918
801.015747,1963
801.134705,1978
801.253723,1887
801.37262,1964
801.491638,1954
801.610535,1962
801.729492,1927
801.84845,1968
801.967407,1969
802.086243,2034
802.205261,1988
802.324158,1957
802.443115,1930
802.562073,1976
802.680969,1983
802.799927,1924
802.918762,2019
803.037659,1982
803.156677,2011
803.275574,1991
803.39447,2000
803.513428,1989
803.632263,1997
803.751221,2014
803.870117,2002
803.989014,2029
804.107971,2040
804.226746,2010
804.345642,2052
804.4646,2052
804.583496,2065
804.702393,2025
804.821228,2063
804.940125,2028
805.059021,2016
805.177917,2077
805.296814,2024
805.415649,2062
805.534546,2051
805.653442,2061
805.772278,2028
805.891113,2061
806.01001,2031
806.128906,2060
806.247742,2084
806.366577,2098
806.485413,2082
806.604309,2120
806.723145,2069
806.84198,2135
806.960876,2114
807.079712,2063
807.198486,2087
807.317383,2103
807.436218,2081
807.554993,2125
807.673889,2112
807.792725,2094
807.91156,2148
808.030396,2115
808.14917,2092
808.268005,2083
808.386841,2116
808.505676,2080
808.624451,2115
808.743286,2131
808.862122,2106
808.980896,2114
809.099731,2162
809.218506,2123
809.337341,2089
809.456116,2089
809.57489,2133
809.693726,2164
809.8125,2161
809.931274,2119
810.050049,2105
810.168884,2209
810.287659,2208
810.406372,2132
810.525269,2186
810.643982,2141
810.762756,2137
810.881531,2171
811.000305,2191
811.11908,2161
811.237854,2184
811.356567,2140
811.475403,2163
811.594116,2181
811.71283,2160
811.831604,2134
811.950378,2131
812.069153,2171
812.187927,2171
812.30658,2194
812.425415,2196
812.544128,2149
812.662781,2193
812.781616,2153
812.900269,2166
813.019043,2172
813.137756,2135
813.256531,2151
813.375244,2167
813.493896,2159
813.612671,2156
813.731384,2176
813.850037,2140
813.96875,2193
814.087524,2136
814.206238,2130
814.324951,2132
814.443604,2107
814.562256,2108
814.68103,2125
814.799683,2136
814.918335,2149
815.037109,2084
815.155762,2120
815.274475,2051
815.393188,2085
815.511841,2076
815.630554,2045
815.749146,2062
815.867859,2084
815.986572,2084
816.105164,2081
816.223877,2094
816.342529,2143
816.461182,2049
816.579895,2130
816.698486,2115
816.817139,2127
816.935791,2068
817.054504,2068
817.173096,2102
817.291748,2058
817.4104,2048
817.529053,1992
817.647644,1991
817.766235,1919
817.884949,1926
818.00354,1855
818.122192,1883
818.240845,1813
818.359436,1790
818.478088,1785
818.59668,1741
818.715271,1745
818.833923,1782
818.952515,1685
819.071106,1660
819.189758,1611
819.30835,1614
819.426941,1606
819.545532,1588
819.664124,1625
819.782715,1566
819.901306,1562
820.019897,1580
820.138489,1573
820.25708,1555
820.375671,1554
820.494202,1527
820.612732,1510
820.731384,1532
820.849915,1506
820.968506,1538
821.087097,1534
821.205627,1524
821.324158,1491
821.442749,1531
821.561279,1496
821.679871,1448
821.798401,1501
821.916931,1548
822.035461,1487
822.154053,1495
822.272583,1533
822.391174,1501
822.509583,1502
822.628174,1494
822.746704,1466
822.865234,1478
822.983765,1483
823.102295,1485
823.220825,1457
823.339294,1454
823.457825,1498
823.576355,1492
823.694824,1476
823.813354,1477
823.931885,1471
824.050354,1492
824.168884,1496
824.287354,1508
824.405823,1500
824.524353,1508
824.642822,1489
824.761353,1460
824.879822,1506
824.998291,1460
825.116699,1512
825.235291,1475
825.353699,1511
825.472168,1469
825.590637,1472
825.709106,1467
825.827576,1428
825.946045,1414
826.064453,1479
826.182983,1421
826.301392,1487
826.4198,1409
826.53833,1423
826.656738,1410
826.775208,1412
826.893677,1415
827.012024,1420
827.130493,1356
827.248962,1380
827.36731,1427
827.485779,1374
827.604248,1404
827.722595,1389
827.841064,1386
827.959412,1405
828.077942,1419
828.196289,1389
828.314636,1364
828.433105,1370
828.551514,1408
828.669861,1404
828.78833,1347
828.906677,1366
829.025085,1401
829.143433,1381
829.261841,1365
829.38031,1371
829.498657,1330
829.617004,1370
829.735413,1382
829.85376,1323
829.972107,1384
830.090515,1378
830.208862,1415
830.327209,1372
830.445557,1367
830.563904,1358
830.682312,1333
830.800659,1367
830.919006,1339
831.037354,1410
831.155701,1381
831.274048,1348
831.392395,1370
831.51062,1386
831.629028,1341
831.747314,1363
831.865662,1371
831.984009,1373
832.102356,1354
832.220642,1380
832.338928,1392
832.457275,1362
832.575623,1365
832.693909,1351
832.812134,1361
832.930481,1362
833.048828,1391
833.167114,1368
833.2854,1352
833.403687,1405
833.521973,1363
833.640259,1417
833.758545,1332
833.876831,1375
833.995056,1369
834.113281,1366
834.231628,1388
834.349915,1367
834.468201,1381
834.586426,1398
834.704651,1337
834.822998,1355
834.941162,1395
835.059448,1355
835.177673,1339
835.295959,1354
835.414246,1424
835.53241,1426
835.650635,1399
835.768921,1390
835.887146,1423
836.005371,1421
836.123596,1398
836.241821,1411
836.360046,1379
836.478271,1406
836.596497,1412
836.714722,1413
836.832886,1446
836.95105,1410
837.069336,1436
837.1875,1431
837.305725,1448
837.423889,1455
837.542053,1464
837.660339,1506
837.778503,1471
837.896667,1465
838.014832,1464
838.132996,1457
838.25116,1421
838.369385,1436
838.487488,1448
838.605713,1462
838.723877,1452
838.84198,1496
838.960205,1386
839.078308,1501
839.196472,1413
839.314636,1430
839.4328,1428
839.550964,1385
839.669067,1424
839.787231,1384
839.905396,1453
840.023499,1391
840.141602,1427
840.259766,1401
840.377869,1399
840.495972,1410
840.614136,1392
840.732239,1399
840.850342,1434
840.968445,1414
841.086548,1366
841.204651,1452
841.322754,1411
841.440918,1362
841.55896,1394
841.677002,1410
841.795166,1350
841.913208,1385
842.031311,1377
842.149353,1365
842.267456,1348
842.385498,1330
842.503601,1376
842.621643,1357
842.739746,1338
842.857788,1330
842.97583,1358
843.093933,1338
843.211975,1382
843.330017,1332
843.44812,1342
843.566101,1318
843.684204,1335
843.802246,1318
843.920227,1364
844.038269,1313
844.156311,1368
844.274292,1310
844.392395,1337
844.510376,1351
844.628357,1341
844.74646,1344
844.864441,1320
844.982422,1293
845.100403,1364
845.218384,1337
845.336426,1337
845.454468,1360
845.572449,1328
845.69043,1343
845.808411,1350
845.926453,1285
846.044373,1331
846.162354,1317
846.280396,1345
846.398315,1344
846.516296,1361
846.634216,1348
846.752197,1322
846.870178,1370
846.988098,1329
847.106079,1306
847.22406,1379
847.34198,1366
847.4599,1350
847.577881,1339
847.695801,1318
847.813782,1324
847.931641,1313
848.049561,1358
848.167603,1326
848.285461,1340
848.403381,1322
848.521362,1317
848.639221,1306
848.75708,1336
848.875,1297
848.99292,1355
849.110901,1352
849.22876,1307
849.34668,1319
849.464539,1340
849.582458,1306
849.700317,1338
849.818176,1320
849.936096,1339
850.053955,1324
850.171875,1344
850.289673,1330
850.407593,1321
850.525452,1326
850.643311,1358
850.761169,1319
850.878967,1306
850.996887,1349
851.114746,1337
851.232544,1326
851.350403,1337
851.468262,1336
851.58606,1344
851.703979,1304
851.821777,1327
851.939636,1332
852.057434,1361
852.175232,1335
852.293091,1330
852.410889,1346
852.528687,1328
852.646545,1380
852.764343,1353
852.88208,1354
852.999939,1347
853.117676,1358
853.235535,1347
853.353271,1373
853.471069,1348
853.588928,1344
853.706604,1320
853.824402,1358
853.9422,1396
854.059998,1318
854.177734,1379
854.295532,1369
854.413269,1350
854.531006,1355
854.648804,1394
854.766541,1340
854.884277,1338
855.002014,1357
855.119751,1397
855.237549,1347
855.355225,1362
855.473022,1354
855.590698,1394
855.708435,1367
855.826172,1391
855.943848,1391
856.061646,1381
856.179321,1369
856.296997,1367
856.414795,1368
856.53241,1396
856.650085,1357
856.767822,1368
856.885559,1398
857.003174,1394
857.120911,1355
857.238586,1414
857.356201,1379
857.473938,1369
857.591614,1397
857.709351,1387
857.826965,1389
857.944641,1339
858.062317,1369
858.179993,1399
858.297668,1388
858.415283,1368
858.532959,1397
858.650574,1371
858.768188,1367
858.885803,1346
859.003479,1336
859.121094,1378
859.23877,1297
859.356384,1405
859.473999,1342
859.591675,1365
859.709229,1362
859.826843,1323
859.944458,1361
860.062012,1355
860.179626,1370
860.297302,1357
860.414856,1366
860.532471,1357
860.650024,1356
860.767639,1360
860.885193,1380
861.002808,1336
861.120361,1375
861.237976,1352
861.35553,1372
861.473022,1332
861.590698,1362
861.708191,1336
861.825745,1386
861.943298,1360
862.060852,1355
862.178406,1374
862.295959,1355
862.413513,1389
862.531006,1395
862.64856,1354
862.766113,1365
862.883667,1389
863.00116,1355
863.118713,1365
863.236206,1372
863.353699,1359
863.471252,1370
863.588745,1405
863.706177,1338
863.82373,1361
863.941162,1383
864.058716,1395
864.176208,1356
864.29364,1389
864.411194,1375
864.528687,1367
864.646118,1332
864.763611,1380
864.881042,1346
864.998535,1382
865.116028,1390
865.233459,1343
865.350891,1339
865.468384,1396
865.585754,1379
865.703308,1329
865.820679,1378
865.938171,1403
866.055542,1370
866.173035,1388
866.290466,1379
866.407837,1381
866.52533,1354
866.6427,1418
866.760071,1352
866.877563,1360
866.994934,1447
867.112305,1398
867.229736,1409
867.347107,1368
867.464539,1418
867.58197,1434
867.699341,1353
867.81665,1383
867.934082,1396
868.051453,1361
868.168823,1387
868.286194,1380
868.403564,1408
868.520935,1363
868.638306,1432
868.755676,1376
868.872986,1395
868.990295,1353
869.107727,1366
869.225037,1343
869.342346,1397
869.459717,1374
869.577026,1397
869.694336,1393
869.811707,1360
869.929016,1353
870.046326,1427
870.163635,1375
870.280945,1383
870.398254,1377
870.515564,1422
870.632812,1401
870.750183,1396
870.867432,1408
870.984741,1383
871.102051,1378
871.219299,1409
871.336609,1396
871.453918,1415
871.571106,1393
871.688416,1413
871.805664,1378
871.922852,1373
872.040222,1383
872.157471,1387
872.274719,1422
872.391968,1378
872.509155,1353
872.626465,1393
872.743652,1415
872.860962,1391
872.978149,1378
873.095337,1392
873.212646,1368
873.329834,1365
873.44696,1409
873.564209,1385
873.681396,1373
873.798645,1380
873.915894,1406
874.03302,1397
874.150208,1402
874.267456,1395
874.384583,1360
874.501831,1373
874.618958,1358
874.736145,1400
874.853333,1403
874.970459,1362
875.087646,1389
875.204834,1425
875.32196,1356
875.439148,1394
875.556274,1428
875.673401,1384
875.790527,1423
875.907715,1416
876.024841,1394
876.141968,1401
876.259094,1384
876.376282,1358
876.493347,1428
876.610474,1387
876.7276,1373
876.844727,1375
876.961853,1379
877.078918,1397
877.195984,1413
877.313171,1376
877.430237,1395
877.547302,1417
877.664368,1369
877.781433,1388
877.898499,1402
878.015625,1384
878.13269,1403
878.249695,1386
878.366821,1416
878.483887,1387
878.600952,1408
878.717957,1400
878.834961,1445
878.952087,1370
879.069092,1401
879.186157,1368
879.303162,1422
879.420227,1408
879.537231,1374
879.654236,1408
879.77124,1399
879.888306,1383
880.005249,1404
880.122314,1432
880.239319,1378
880.356323,1393
880.473328,1418
880.590271,1395
880.707275,1408
880.824341,1357
880.941284,1391
881.058228,1415
881.175232,1448
881.292236,1365
881.40918,1429
881.526123,1377
881.643066,1351
881.760071,1397
881.877014,1401
881.993958,1396
882.11084,1407
882.227783,1436
882.344727,1406
882.46167,1389
882.578613,1416
882.695618,1361
882.812439,1375
882.929382,1405
883.046326,1451
883.163208,1381
883.280151,1420
883.397034,1413
883.513916,1364
883.630798,1435
883.747742,1394
883.864563,1396
883.981506,1400
884.098389,1428
884.21521,1415
884.332153,1394
884.448975,1385
884.565796,1395
884.682678,1434
884.7995,1400
884.916443,1427
885.033264,1490
885.150085,1418
885.266968,1435
885.383789,1422
885.500671,1449
885.617493,1443
885.734314,1432
885.851196,1441
885.967896,1407
886.084717,1424
886.201599,1427
886.318359,1534
886.435181,1433
886.552002,1449
886.668762,1420
886.785645,1466
886.902344,1423
887.019165,1425
887.135925,1404
887.252747,1431
887.369446,1449
887.486267,1396
887.603027,1430
887.719788,1444
887.836548,1395
887.953247,1442
888.070068,1442
888.186829,1428
888.303528,1435
888.420288,1409
888.536987,1457
888.653687,1438
888.770447,1469
888.887146,1457
889.003967,1456
889.120667,1419
889.237305,1427
889.354065,1384
889.470703,1441
889.587463,1410
889.704163,1460
889.820862,1422
889.937561,1424
890.054199,1459
890.170837,1450
890.287598,1457
890.404236,1415
890.520874,1405
890.637634,1454
890.754211,1419
890.87085,1454
890.987549,1450
891.104187,1448
891.220886,1452
891.337463,1405
891.454102,1422
891.57074,1469
891.687378,1422
891.804077,1437
891.920654,1415
892.037231,1453
892.15387,1417
892.270447,1436
892.387085,1441
892.503723,1458
892.6203,1414
892.736877,1419
892.853516,1443
892.970032,1482
893.08667,1446
893.203186,1457
893.319763,1493
893.43634,1413
893.552917,1490
893.669556,1458
893.786011,1479
893.902588,1420
894.019165,1483
894.135681,1491
894.252197,1437
894.368835,1505
894.485291,1499
894.601868,1445
894.718384,1436
894.8349,1476
894.951355,1446
895.067932,1475
895.184448,1430
895.300964,1500
895.417419,1459
895.533936,1495
895.650452,1494
895.766907,1467
895.883423,1473
895.999878,1476
896.116333,1447
896.232849,1462
896.349304,1429
896.465759,1478
896.582214,1445
896.698669,1478
896.815125,1478
896.931641,1449
897.048035,1437
897.164551,1488
897.280884,1445
897.397339,1409
897.513794,1471
897.630249,1475
897.746582,1433
897.863098,1468
897.979431,1456
898.095886,1502
898.212341,1473
898.328674,1472
898.445129,1464
898.561462,1473
898.677795,1464
898.794312,1500
898.910645,1468
899.026978,1474
899.143433,1485
899.259766,1434
899.37616,1471
899.492493,1494
899.608765,1439
899.725159,1483
899.841553,1447
899.957947,1438
900.07428,1462
900.190552,1514
900.306946,1455
900.423157,1494
900.53949,1512
900.655884,1437
900.772156,1462
900.888489,1439
901.004822,1475
901.121033,1492
901.237366,1485
901.353699,1501
901.46991,1490
901.586304,1482
901.702515,1503
901.818787,1509
901.93512,1506
902.051331,1525
902.167603,1517
902.283875,1472
902.400085,1505
902.516418,1462
902.632629,1520
902.74884,1492
902.865112,1491
902.981384,1481
903.097595,1522
903.213867,1539
903.330017,1455
903.446289,1503
903.5625,1499
903.67865,1494
903.794922,1482
903.911072,1462
904.027344,1508
904.143494,1486
904.259705,1482
904.375916,1492
904.492065,1499
904.608215,1485
904.724426,1496
904.840576,1478
904.956726,1495
905.072876,1479
905.189087,1511
905.305176,1468
905.421387,1492
905.537537,1463
905.653687,1501
905.769775,1492
905.885925,1531
906.002014,1481
906.118164,1467
906.234314,1502
906.350403,1524
906.466492,1501
906.582642,1517
906.69873,1494
906.814758,1515
906.930908,1506
907.046936,1449
907.163086,1511
907.279175,1492
907.395264,1489
907.511353,1502
907.62738,1511
907.743408,1481
907.859497,1549
907.975525,1498
908.091553,1484
908.207703,1469
908.32373,1501
908.439758,1487
908.555786,1505
908.671814,1544
908.787842,1503
908.90387,1510
909.019775,1503
909.135864,1511
909.251892,1494
909.367859,1514
909.483826,1455
909.599854,1517
909.715881,1536
909.831848,1549
909.947815,1511
910.063782,1498
910.179749,1499
910.295776,1545
910.411743,1510
910.527649,1476
910.643616,1546
910.759583,1572
910.875488,1557
910.991455,1551
911.107361,1509
911.223267,1510
911.339294,1493
911.4552,1528
911.571106,1466
911.687073,1529
911.802979,1514
911.918823,1536
912.034729,1543
912.150635,1509
912.266602,1477
912.382446,1508
912.498352,1491
912.614197,1519
912.730103,1516
912.846008,1499
