792.44574,1916
792.56488,1868
792.68396,1891
792.80304,1891
792.92218,1790
793.041199,1814
793.160339,1788
793.279419,1788
793.398499,1810
793.517578,1742
793.636658,1707
793.755737,1737
793.874817,1705
793.993896,1730
794.112976,1676
794.232056,1673
794.351074,1699
794.470215,1711
794.589233,1654
794.708313,1700
794.827393,1672
794.946411,1645
795.065552,1684
795.18457,1655
795.303589,1619
795.422668,1654
795.541687,1660
795.660767,1627
795.779846,1593
795.898865,1572
796.017883,1536
796.136963,1588
796.255981,1592
796.375061,1581
796.49408,1594
796.613037,1599
796.732117,1579
796.851135,1584
796.970154,1523
797.089233,1599
797.208191,1585
797.327271,1536
797.446228,1547
797.565186,1559
797.684265,1578
797.803223,1581
797.922241,1590
798.04126,1554
798.160278,1516
798.279297,1546
798.398315,1584
798.517273,1498
798.636292,1546
798.75531,1532
798.874268,1534
798.993286,1573
799.112244,1506
799.231323,1502
799.350281,1527
799.469238,1518
799.588257,1514
799.707153,1533
799.826111,1508
799.945129,1526
800.064087,1524
800.183044,1482
800.302063,1486
800.421021,1511
800.539978,1510
800.658936,1489
800.777893,1515
800.896912,1496
801.015747,1489
801.134705,1490
801.253723,1507
801.37262,1514
801.491638,1509
801.610535,1522
801.729492,1478
801.84845,1457
801.967407,1514
802.086243,1525
802.205261,1498
802.324158,1487
802.443115,1473
802.562073,1501
802.680969,1519
802.799927,1517
802.918762,1498
803.037659,1487
803.156677,1449
803.275574,1516
803.39447,1495
803.513428,1477
803.632263,1475
803.751221,1466
803.870117,1506
803.989014,1474
804.107971,1515
804.226746,1462
804.345642,1511
804.4646,1517
804.583496,1501
804.702393,1489
804.821228,1499
804.940125,1470
805.059021,1463
805.177917,1499
805.296814,1484
805.415649,1506
805.534546,1455
805.653442,1529
805.772278,1475
805.891113,1476
806.01001,1486
806.128906,1470
806.247742,1449
806.366577,1474
806.485413,1483
806.604309,1514
806.723145,1482
806.84198,1509
806.960876,1428
807.079712,1455
807.198486,1460
807.317383,1489
807.436218,1465
807.554993,1491
807.673889,1455
807.792725,1464
807.91156,1481
808.030396,1458
808.14917,1504
808.268005,1481
808.386841,1484
808.505676,1461
808.624451,1485
808.743286,1485
808.862122,1476
808.980896,1500
809.099731,1525
809.218506,1426
809.337341,1476
809.456116,1447
809.57489,1488
809.693726,1457
809.8125,1450
809.931274,1486
810.050049,1494
810.168884,1491
810.287659,1487
810.406372,1458
810.525269,1453
810.643982,1445
810.762756,1482
810.881531,1477
811.000305,1452
811.11908,1462
811.237854,1457
811.356567,1454
811.475403,1486
811.594116,1449
811.71283,1460
811.831604,1429
811.950378,1475
812.069153,1452
812.187927,1481
812.30658,1465
812.425415,1460
812.544128,1455
812.662781,1455
812.781616,1446
812.900269,1467
813.019043,1407
813.137756,1479
813.256531,1443
813.375244,1461
813.493896,1481
813.612671,1463
813.731384,1430
813.850037,1445
813.96875,1393
814.087524,1410
814.206238,1451
814.324951,1427
814.443604,1453
814.562256,1458
814.68103,1463
814.799683,1455
814.918335,1438
815.037109,1420
815.155762,1437
815.274475,1426
815.393188,1419
815.511841,1432
815.630554,1424
815.749146,1450
815.867859,1418
815.986572,1480
816.105164,1424
816.223877,1464
816.342529,1477
816.461182,1443
816.579895,1436
816.698486,1450
816.817139,1430
816.935791,1431
817.054504,1461
817.173096,1455
817.291748,1465
817.4104,1486
817.529053,1469
817.647644,1422
817.766235,1399
817.884949,1445
818.00354,1376
818.122192,1400
818.240845,1372
818.359436,1425
818.478088,1343
818.59668,1390
818.715271,1379
818.833923,1396
818.952515,1400
819.071106,1382
819.189758,1352
819.30835,1344
819.426941,1379
819.545532,1367
819.664124,1381
819.782715,1391
819.901306,1366
820.019897,1327
820.138489,1395
820.25708,1345
820.375671,1369
820.494202,1404
820.612732,1334
820.731384,1340
820.849915,1347
820.968506,1311
821.087097,1331
821.205627,1354
821.324158,1287
821.442749,1350
821.561279,1354
821.679871,1338
821.798401,1342
821.916931,1379
822.035461,1339
822.154053,1356
822.272583,1355
822.391174,1356
822.509583,1370
822.628174,1343
822.746704,1314
822.865234,1330
822.983765,1362
823.102295,1315
823.220825,1361
823.339294,1338
823.457825,1325
823.576355,1302
823.694824,1315
823.813354,1351
823.931885,1323
824.050354,1338
824.168884,1377
824.287354,1339
824.405823,1332
824.524353,1336
824.642822,1348
824.761353,1353
824.879822,1323
824.998291,1305
825.116699,1338
825.235291,1338
825.353699,1337
825.472168,1354
825.590637,1339
825.709106,1323
825.827576,1333
825.946045,1297
826.064453,1313
826.182983,1350
826.301392,1322
826.4198,1316
826.53833,1311
826.656738,1319
826.775208,1297
826.893677,1308
827.012024,1321
827.130493,1327
827.248962,1322
827.36731,1285
827.485779,1329
827.604248,1326
827.722595,1314
827.841064,1280
827.959412,1318
828.077942,1299
828.196289,1311
828.314636,1302
828.433105,1294
828.551514,1314
828.669861,1332
828.78833,1302
828.906677,1272
829.025085,1293
829.143433,1310
829.261841,1314
829.38031,1302
829.498657,1303
829.617004,1310
829.735413,1298
829.85376,1294
829.972107,1334
830.090515,1321
830.208862,1301
830.327209,1315
830.445557,1299
830.563904,1288
830.682312,1293
830.800659,1303
830.919006,1279
831.037354,1300
831.155701,1272
831.274048,1320
831.392395,1257
831.51062,1296
831.629028,1306
831.747314,1275
831.865662,1271
831.984009,1331
832.102356,1298
832.220642,1313
832.338928,1328
832.457275,1274
832.575623,1315
832.693909,1272
832.812134,1299
832.930481,1306
833.048828,1269
833.167114,1299
833.2854,1290
833.403687,1299
833.521973,1306
833.640259,1304
833.758545,1308
833.876831,1289
833.995056,1315
834.113281,1300
834.231628,1261
834.349915,1281
834.468201,1301
834.586426,1342
834.704651,1355
834.822998,1280
834.941162,1309
835.059448,1305
835.177673,1287
835.295959,1293
835.414246,1326
835.53241,1333
835.650635,1310
835.768921,1254
835.887146,1281
836.005371,1281
836.123596,1299
836.241821,1287
836.360046,1276
836.478271,1303
836.596497,1282
836.714722,1309
836.832886,1290
836.95105,1337
837.069336,1338
837.1875,1302
837.305725,1308
837.423889,1274
837.542053,1319
837.660339,1324
837.778503,1320
837.896667,1310
838.014832,1301
838.132996,1282
838.25116,1324
838.369385,1299
838.487488,1292
838.605713,1257
838.723877,1302
838.84198,1318
838.960205,1294
839.078308,1254
839.196472,1269
839.314636,1351
839.4328,1316
839.550964,1294
839.669067,1315
839.787231,1276
839.905396,1267
840.023499,1240
840.141602,1367
840.259766,1347
840.377869,1310
840.495972,1296
840.614136,1306
840.732239,1315
840.850342,1305
840.968445,1308
841.086548,1277
841.204651,1320
841.322754,1308
841.440918,1314
841.55896,1279
841.677002,1313
841.795166,1303
841.913208,1294
842.031311,1293
842.149353,1303
842.267456,1308
842.385498,1302
842.503601,1310
842.621643,1341
842.739746,1279
842.857788,1242
842.97583,1346
843.093933,1268
843.211975,1277
843.330017,1284
843.44812,1299
843.566101,1335
843.684204,1301
843.802246,1269
843.920227,1308
844.038269,1279
844.156311,1274
844.274292,1289
844.392395,1315
844.510376,1297
844.628357,1295
844.74646,1286
844.864441,1293
844.982422,1283
845.100403,1275
845.218384,1295
845.336426,1297
845.454468,1298
845.572449,1310
845.69043,1301
845.808411,1276
845.926453,1331
846.044373,1319
846.162354,1336
846.280396,1258
846.398315,1266
846.516296,1290
846.634216,1291
846.752197,1279
846.870178,1318
846.988098,1299
847.106079,1306
847.22406,1263
847.34198,1305
847.4599,1298
847.577881,1297
847.695801,1288
847.813782,1285
847.931641,1293
848.049561,1292
848.167603,1291
848.285461,1328
848.403381,1291
848.521362,1299
848.639221,1281
848.75708,1303
848.875,1318
848.99292,1317
849.110901,1253
849.22876,1285
849.34668,1319
849.464539,1272
849.582458,1305
849.700317,1268
849.818176,1295
849.936096,1309
850.053955,1308
850.171875,1266
850.289673,1303
850.407593,1245
850.525452,1273
850.643311,1301
850.761169,1284
850.878967,1277
850.996887,1275
851.114746,1336
851.232544,1294
851.350403,1279
851.468262,1305
851.58606,1321
851.703979,1267
851.821777,1311
851.939636,1301
852.057434,1326
852.175232,1319
852.293091,1327
852.410889,1317
852.528687,1300
852.646545,1260
852.764343,1382
852.88208,1289
852.999939,1301
853.117676,1285
853.235535,1291
853.353271,1309
853.471069,1304
853.588928,1297
853.706604,1262
853.824402,1331
853.9422,1301
854.059998,1294
854.177734,1333
854.295532,1288
854.413269,1294
854.531006,1287
854.648804,1366
854.766541,1282
854.884277,1325
855.002014,1275
855.119751,1344
855.237549,1287
855.355225,1302
855.473022,1308
855.590698,1305
855.708435,1278
855.826172,1332
855.943848,1312
856.061646,1317
856.179321,1298
856.296997,1273
856.414795,1350
856.53241,1320
856.650085,1321
856.767822,1329
856.885559,1295
857.003174,1325
857.120911,1316
857.238586,1306
857.356201,1311
857.473938,1346
857.591614,1287
857.709351,1323
857.826965,1274
857.944641,1325
858.062317,1315
858.179993,1311
858.297668,1335
858.415283,1346
858.532959,1266
858.650574,1312
858.768188,1306
858.885803,1286
859.003479,1303
859.121094,1316
859.23877,1315
859.356384,1294
859.473999,1295
859.591675,1253
859.709229,1293
859.826843,1322
859.944458,1289
860.062012,1247
860.179626,1282
860.297302,1259
860.414856,1291
860.532471,1283
860.650024,1294
860.767639,1293
860.885193,1287
861.002808,1288
861.120361,1331
861.237976,1290
861.35553,1308
861.473022,1292
861.590698,1339
861.708191,1313
861.825745,1275
861.943298,1280
862.060852,1296
862.178406,1306
862.295959,1275
862.413513,1271
862.531006,1284
862.64856,1308
862.766113,1270
862.883667,1320
863.00116,1291
863.118713,1286
863.236206,1310
863.353699,1310
863.471252,1297
863.588745,1306
863.706177,1311
863.82373,1304
863.941162,1277
864.058716,1357
864.176208,1292
864.29364,1319
864.411194,1277
864.528687,1342
864.646118,1326
864.763611,1319
864.881042,1289
864.998535,1284
865.116028,1311
865.233459,1304
865.350891,1279
865.468384,1316
865.585754,1312
865.703308,1292
865.820679,1248
865.938171,1332
866.055542,1292
866.173035,1303
866.290466,1330
866.407837,1291
866.52533,1337
866.6427,1275
866.760071,1287
866.877563,1310
866.994934,1302
867.112305,1326
867.229736,1278
867.347107,1306
867.464539,1324
867.58197,1338
867.699341,1309
867.81665,1304
867.934082,1332
868.051453,1305
868.168823,1262
868.286194,1337
868.403564,1300
868.520935,1322
868.638306,1292
868.755676,1318
868.872986,1293
868.990295,1349
869.107727,1350
869.225037,1287
869.342346,1320
869.459717,1290
869.577026,1366
869.694336,1313
869.811707,1312
869.929016,1326
870.046326,1291
870.163635,1348
870.280945,1313
870.398254,1313
870.515564,1338
870.632812,1327
870.750183,1316
870.867432,1333
870.984741,1295
871.102051,1333
871.219299,1334
871.336609,1337
871.453918,1348
871.571106,1292
871.688416,1302
871.805664,1349
871.922852,1327
872.040222,1352
872.157471,1337
872.274719,1344
872.391968,1376
872.509155,1383
872.626465,1355
872.743652,1364
872.860962,1310
872.978149,1322
873.095337,1303
873.212646,1339
873.329834,1335
873.44696,1300
873.564209,1287
873.681396,1372
873.798645,1348
873.915894,1305
874.03302,1352
874.150208,1348
874.267456,1370
874.384583,1348
874.501831,1332
874.618958,1383
874.736145,1376
874.853333,1363
874.970459,1337
875.087646,1354
875.204834,1323
875.32196,1322
875.439148,1325
875.556274,1330
875.673401,1358
875.790527,1315
875.907715,1311
876.024841,1355
876.141968,1330
876.259094,1301
876.376282,1325
876.493347,1372
876.610474,1349
876.7276,1299
876.844727,1355
876.961853,1335
877.078918,1320
877.195984,1333
877.313171,1353
877.430237,1322
877.547302,1360
877.664368,1358
877.781433,1319
877.898499,1344
878.015625,1313
878.13269,1334
878.249695,1328
878.366821,1329
878.483887,1314
878.600952,1336
878.717957,1348
878.834961,1301
878.952087,1330
879.069092,1319
879.186157,1301
879.303162,1334
879.420227,1293
879.537231,1325
879.654236,1298
879.77124,1326
879.888306,1313
880.005249,1293
880.122314,1290
880.239319,1346
880.356323,1322
880.473328,1311
880.590271,1311
880.707275,1330
880.824341,1304
880.941284,1315
881.058228,1320
881.175232,1337
881.292236,1302
881.40918,1309
881.526123,1366
881.643066,1306
881.760071,1324
881.877014,1302
881.993958,1320
882.11084,1324
882.227783,1344
882.344727,1332
882.46167,1355
882.578613,1308
882.695618,1344
882.812439,1331
882.929382,1346
883.046326,1316
883.163208,1327
883.280151,1319
883.397034,1352
883.513916,1316
883.630798,1346
883.747742,1322
883.864563,1358
883.981506,1275
884.098389,1351
884.21521,1346
884.332153,1344
884.448975,1362
884.565796,1354
884.682678,1349
884.7995,1396
884.916443,1382
885.033264,1401
885.150085,1410
885.266968,1367
885.383789,1392
885.500671,1406
885.617493,1333
885.734314,1422
885.851196,1391
885.967896,1392
886.084717,1365
886.201599,1388
886.318359,1424
886.435181,1403
886.552002,1425
886.668762,1351
886.785645,1372
886.902344,1403
887.019165,1341
887.135925,1349
887.252747,1372
887.369446,1368
887.486267,1363
887.603027,1343
887.719788,1355
887.836548,1336
887.953247,1374
888.070068,1374
888.186829,1339
888.303528,1377
888.420288,1357
888.536987,1364
888.653687,1342
888.770447,1337
888.887146,1341
889.003967,1324
889.120667,1345
889.237305,1333
889.354065,1368
889.470703,1338
889.587463,1314
889.704163,1385
889.820862,1298
889.937561,1381
890.054199,1331
890.170837,1314
890.287598,1369
890.404236,1321
890.520874,1360
890.637634,1340
890.754211,1335
890.87085,1381
890.987549,1366
891.104187,1312
891.220886,1337
891.337463,1352
891.454102,1362
891.57074,1349
891.687378,1337
891.804077,1332
891.920654,1365
892.037231,1353
892.15387,1368
892.270447,1356
892.387085,1390
892.503723,1342
892.6203,1347
892.736877,1342
892.853516,1355
892.970032,1320
893.08667,1352
893.203186,1363
893.319763,1330
893.43634,1325
893.552917,1367
893.669556,1381
893.786011,1362
893.902588,1348
894.019165,1356
894.135681,1342
894.252197,1389
894.368835,1395
894.485291,1416
894.601868,1345
894.718384,1334
894.8349,1334
894.951355,1371
895.067932,1398
895.184448,1368
895.300964,1385
895.417419,1322
895.533936,1381
895.650452,1383
895.766907,1366
895.883423,1315
895.999878,1857
896.116333,2124
896.232849,1981
896.349304,1296
896.465759,1449
896.582214,3240
896.698669,1323
896.815125,1351
896.931641,1378
897.048035,1360
897.164551,1349
897.280884,1380
897.397339,1354
897.513794,1361
897.630249,1367
897.746582,1367
897.863098,1375
897.979431,1422
898.095886,1353
898.212341,1335
898.328674,1362
898.445129,1377
898.561462,1336
898.677795,1345
898.794312,1376
898.910645,1378
899.026978,1385
899.143433,1364
899.259766,1380
899.37616,1349
899.492493,1372
899.608765,1403
899.725159,1383
899.841553,1357
899.957947,1409
900.07428,1386
900.190552,1370
900.306946,1331
900.423157,1416
900.53949,1368
900.655884,1367
900.772156,1364
900.888489,1407
901.004822,1373
901.121033,1392
901.237366,1390
901.353699,1394
901.46991,1339
901.586304,1377
901.702515,1350
901.818787,1392
901.93512,1383
902.051331,1397
902.167603,1420
902.283875,1362
902.400085,1385
902.516418,1389
902.632629,1413
902.74884,1420
902.865112,1446
902.981384,1393
903.097595,1428
903.213867,1415
903.330017,1382
903.446289,1433
903.5625,1395
903.67865,1381
903.794922,1447
903.911072,1434
904.027344,1413
904.143494,1402
904.259705,1349
904.375916,1394
904.492065,1377
904.608215,1453
904.724426,1397
904.840576,1372
904.956726,1386
905.072876,1414
905.189087,1416
905.305176,1412
905.421387,1403
905.537537,1382
905.653687,1375
905.769775,1384
905.885925,1415
906.002014,1390
906.118164,1365
906.234314,1369
906.350403,1402
906.466492,1363
906.582642,1386
906.69873,1405
906.814758,1398
906.930908,1385
907.046936,1399
907.163086,1388
907.279175,1374
907.395264,1410
907.511353,1372
907.62738,1366
907.743408,1393
907.859497,1425
907.975525,1404
908.091553,1409
908.207703,1384
908.32373,1411
908.439758,1381
908.555786,1362
908.671814,1394
908.787842,1346
908.90387,1436
909.019775,1431
909.135864,1364
909.251892,1430
909.367859,1392
909.483826,1429
909.599854,1386
909.715881,1403
909.831848,1389
909.947815,1394
910.063782,1349
910.179749,1423
910.295776,1420
910.411743,1399
910.527649,1427
910.643616,1396
910.759583,1416
910.875488,1433
910.991455,1441
911.107361,1383
911.223267,1389
911.339294,1380
911.4552,1432
911.571106,1393
911.687073,1355
911.802979,1384
911.918823,1407
912.034729,1401
912.150635,1412
912.266602,1380
912.382446,1402
912.498352,1392
912.614197,1367
912.730103,1386
912.846008,1380
792.44574,1958
792.56488,1947
792.68396,1925
792.80304,1863
792.92218,1838
793.041199,1851
793.160339,1798
793.279419,1785
793.398499,1755
793.517578,1781
793.636658,1753
793.755737,1779
793.874817,1713
793.993896,1759
794.112976,1760
794.232056,1749
794.351074,1712
794.470215,1729
794.589233,1737
794.708313,1637
794.827393,1689
794.946411,1671
795.065552,1671
795.18457,1664
795.303589,1724
795.422668,1666
795.541687,1679
795.660767,1651
795.779846,1640
795.898865,1620
796.017883,1617
796.136963,1599
796.255981,1657
796.375061,1642
796.49408,1581
796.613037,1569
796.732117,1641
796.851135,1610
796.970154,1617
797.089233,1591
797.208191,1598
797.327271,1625
797.446228,1620
797.565186,1601
797.684265,1594
797.803223,1554
797.922241,1593
798.04126,1574
798.160278,1579
798.279297,1549
798.398315,1577
798.517273,1550
798.636292,1556
798.75531,1578
798.874268,1525
798.993286,1562
799.112244,1591
799.231323,1567
799.350281,1551
799.469238,1573
799.588257,1551
799.707153,1554
799.826111,1530
799.945129,1548
800.064087,1544
800.183044,1549
800.302063,1528
800.421021,1539
800.539978,1562
800.658936,1531
800.777893,1548
800.896912,1558
801.015747,1518
801.134705,1549
801.253723,1563
801.37262,1564
801.491638,1523
801.610535,1500
801.729492,1537
801.84845,1542
801.967407,1506
802.086243,1559
802.205261,1538
802.324158,1529
802.443115,1513
802.562073,1527
802.680969,1556
802.799927,1547
802.918762,1556
803.037659,1537
803.156677,1537
803.275574,1489
803.39447,1554
803.513428,1495
803.632263,1518
803.751221,1516
803.870117,1524
803.989014,1525
804.107971,1513
804.226746,1522
804.345642,1526
804.4646,1480
804.583496,1494
804.702393,1561
804.821228,1531
804.940125,1537
805.059021,1533
805.177917,1551
805.296814,1494
805.415649,1503
805.534546,1578
805.653442,1513
805.772278,1532
805.891113,1516
806.01001,1472
806.128906,1528
806.247742,1522
806.366577,1514
806.485413,1499
806.604309,1554
806.723145,1470
806.84198,1494
806.960876,1497
807.079712,1498
807.198486,1530
807.317383,1481
807.436218,1515
807.554993,1474
807.673889,1551
807.792725,1481
807.91156,1485
808.030396,1494
808.14917,1551
808.268005,1476
808.386841,1511
808.505676,1510
808.624451,1539
808.743286,1483
808.862122,1479
808.980896,1514
809.099731,1466
809.218506,1495
809.337341,1473
809.456116,1497
809.57489,1495
809.693726,1560
809.8125,1534
809.931274,1507
810.050049,1483
810.168884,1520
810.287659,1497
810.406372,1497
810.525269,1503
810.643982,1525
810.762756,1527
810.881531,1495
811.000305,1477
811.11908,1516
811.237854,1476
811.356567,1420
811.475403,1527
811.594116,1505
811.71283,1544
811.831604,1497
811.950378,1539
812.069153,1495
812.187927,1519
812.30658,1496
812.425415,1493
812.544128,1507
812.662781,1470
812.781616,1484
812.900269,1487
813.019043,1460
813.137756,1481
813.256531,1495
813.375244,1485
813.493896,1476
813.612671,1499
813.731384,1460
813.850037,1504
813.96875,1451
814.087524,1498
814.206238,1494
814.324951,1498
814.443604,1510
814.562256,1465
814.68103,1500
814.799683,1487
814.918335,1469
815.037109,1495
815.155762,1473
815.274475,1451
815.393188,1440
815.511841,1487
815.630554,1459
815.749146,1513
815.867859,1456
815.986572,1477
816.105164,1439
816.223877,1469
816.342529,1431
816.461182,1485
816.579895,1446
816.698486,1478
816.817139,1441
816.935791,1476
817.054504,1452
817.173096,1484
817.291748,1431
817.4104,1472
817.529053,1467
817.647644,1492
817.766235,1489
817.884949,1434
818.00354,1481
818.122192,1455
818.240845,1449
818.359436,1437
818.478088,1393
818.59668,1400
818.715271,1387
818.833923,1454
818.952515,1424
819.071106,1439
819.189758,1370
819.30835,1420
819.426941,1386
819.545532,1419
819.664124,1387
819.782715,1390
819.901306,1432
820.019897,1379
820.138489,1377
820.25708,1431
820.375671,1364
820.494202,1405
820.612732,1360
820.731384,1402
820.849915,1365
820.968506,1394
821.087097,1352
821.205627,1379
821.324158,1360
821.442749,1331
821.561279,1384
821.679871,1386
821.798401,1367
821.916931,1373
822.035461,1381
822.154053,1370
822.272583,1348
822.391174,1355
822.509583,1373
822.628174,1358
822.746704,1349
822.865234,1415
822.983765,1360
823.102295,1352
823.220825,1371
823.339294,1334
823.457825,1344
823.576355,1336
823.694824,1375
823.813354,1347
823.931885,1319
824.050354,1353
824.168884,1353
824.287354,1394
824.405823,1337
824.524353,1381
824.642822,1349
824.761353,1363
824.879822,1344
824.998291,1351
825.116699,1364
825.235291,1365
825.353699,1359
825.472168,1351
825.590637,1346
825.709106,1345
825.827576,1348
825.946045,1332
826.064453,1332
826.182983,1381
826.301392,1357
826.4198,1325
826.53833,1324
826.656738,1327
826.775208,1337
826.893677,1345
827.012024,1358
827.130493,1355
827.248962,1342
827.36731,1312
827.485779,1330
827.604248,1377
827.722595,1304
827.841064,1297
827.959412,1339
828.077942,1347
828.196289,1344
828.314636,1330
828.433105,1337
828.551514,1314
828.669861,1311
828.78833,1300
828.906677,1323
829.025085,1350
829.143433,1315
829.261841,1315
829.38031,1329
829.498657,1319
829.617004,1358
829.735413,1322
829.85376,1327
829.972107,1344
830.090515,1304
830.208862,1334
830.327209,1331
830.445557,1322
830.563904,1312
830.682312,1305
830.800659,1332
830.919006,1331
831.037354,1321
831.155701,1300
831.274048,1309
831.392395,1323
831.51062,1305
831.629028,1318
831.747314,1328
831.865662,1309
831.984009,1357
832.102356,1349
832.220642,1334
832.338928,1331
832.457275,1348
832.575623,1353
832.693909,1301
832.812134,1300
832.930481,1348
833.048828,1329
833.167114,1312
833.2854,1341
833.403687,1292
833.521973,1389
833.640259,1319
833.758545,1306
833.876831,1339
833.995056,1326
834.113281,1313
834.231628,1315
834.349915,1329
834.468201,1286
834.586426,1329
834.704651,1330
834.822998,1315
834.941162,1350
835.059448,1308
835.177673,1307
835.295959,1331
835.414246,1305
835.53241,1306
835.650635,1318
835.768921,1312
835.887146,1301
836.005371,1300
836.123596,1333
836.241821,1371
836.360046,1331
836.478271,1286
836.596497,1354
836.714722,1313
836.832886,1323
836.95105,1298
837.069336,1303
837.1875,1316
837.305725,1333
837.423889,1312
837.542053,1326
837.660339,1310
837.778503,1326
837.896667,1294
838.014832,1314
838.132996,1338
838.25116,1362
838.369385,1329
838.487488,1347
838.605713,1355
838.723877,1320
838.84198,1284
838.960205,1331
839.078308,1345
839.196472,1294
839.314636,1322
839.4328,1332
839.550964,1338
839.669067,1348
839.787231,1343
839.905396,1348
840.023499,1317
840.141602,1326
840.259766,1335
840.377869,1318
840.495972,1325
840.614136,1314
840.732239,1331
840.850342,1341
840.968445,1352
841.086548,1328
841.204651,1334
841.322754,1342
841.440918,1315
841.55896,1340
841.677002,1334
841.795166,1338
841.913208,1344
842.031311,1349
842.149353,1282
842.267456,1324
842.385498,1347
842.503601,1323
842.621643,1265
842.739746,1319
842.857788,1295
842.97583,1340
843.093933,1341
843.211975,1298
843.330017,1344
843.44812,1331
843.566101,1318
843.684204,1341
843.802246,1327
843.920227,1317
844.038269,1354
844.156311,1315
844.274292,1296
844.392395,1285
844.510376,1328
844.628357,1283
844.74646,1277
844.864441,1291
844.982422,1288
845.100403,1326
845.218384,1285
845.336426,1288
845.454468,1329
845.572449,1321
845.69043,1308
845.808411,1299
845.926453,1355
846.044373,1313
846.162354,1310
846.280396,1315
846.398315,1254
846.516296,1334
846.634216,1329
846.752197,1309
846.870178,1321
846.988098,1304
847.106079,1284
847.22406,1312
847.34198,1278
847.4599,1330
847.577881,1310
847.695801,1307
847.813782,1308
847.931641,1297
848.049561,1311
848.167603,1316
848.285461,1308
848.403381,1362
848.521362,1317
848.639221,1334
848.75708,1311
848.875,1317
848.99292,1255
849.110901,1302
849.22876,1310
849.34668,1297
849.464539,1306
849.582458,1291
849.700317,1299
849.818176,1327
849.936096,1332
850.053955,1302
850.171875,1303
850.289673,1349
850.407593,1312
850.525452,1337
850.643311,1326
850.761169,1307
850.878967,1317
850.996887,1338
851.114746,1330
851.232544,1307
851.350403,1321
851.468262,1282
851.58606,1322
851.703979,1321
851.821777,1329
851.939636,1300
852.057434,1310
852.175232,1323
852.293091,1334
852.410889,1353
852.528687,1357
852.646545,1367
852.764343,1331
852.88208,1356
852.999939,1351
853.117676,1365
853.235535,1324
853.353271,1371
853.471069,1294
853.588928,1318
853.706604,1333
853.824402,1340
853.9422,1307
854.059998,1375
854.177734,1331
854.295532,1267
854.413269,1326
854.531006,1323
854.648804,1340
854.766541,1339
854.884277,1356
855.002014,1317
855.119751,1333
855.237549,1332
855.355225,1311
855.473022,1338
855.590698,1300
855.708435,1325
855.826172,1331
855.943848,1335
856.061646,1331
856.179321,1318
856.296997,1295
856.414795,1354
856.53241,1327
856.650085,1334
856.767822,1309
856.885559,1323
857.003174,1322
857.120911,1332
857.238586,1325
857.356201,1338
857.473938,1373
857.591614,1328
857.709351,1292
857.826965,1308
857.944641,1334
858.062317,1327
858.179993,1337
858.297668,1352
858.415283,1333
858.532959,1342
858.650574,1296
858.768188,1365
858.885803,1333
859.003479,1292
859.121094,1311
859.23877,1304
859.356384,1340
859.473999,1292
859.591675,1313
859.709229,1376
859.826843,1310
859.944458,1335
860.062012,1258
860.179626,1294
860.297302,1330
860.414856,1333
860.532471,1286
860.650024,1320
860.767639,1326
860.885193,1337
861.002808,1316
861.120361,1342
861.237976,1326
861.35553,1342
861.473022,1308
861.590698,1358
861.708191,1305
861.825745,1338
861.943298,1307
862.060852,1319
862.178406,1306
862.295959,1321
862.413513,1334
862.531006,1344
862.64856,1333
862.766113,1367
862.883667,1300
863.00116,1354
863.118713,1308
863.236206,1329
863.353699,1340
863.471252,1282
863.588745,1323
863.706177,1300
863.82373,1327
863.941162,1327
864.058716,1310
864.176208,1325
864.29364,1355
864.411194,1329
864.528687,1307
864.646118,1331
864.763611,1320
864.881042,1345
864.998535,1331
865.116028,1345
865.233459,1332
865.350891,1268
865.468384,1329
865.585754,1360
865.703308,1305
865.820679,1289
865.938171,1350
866.055542,1363
866.173035,1373
866.290466,1325
866.407837,1283
866.52533,1333
866.6427,1331
866.760071,1309
866.877563,1358
866.994934,1331
867.112305,1306
867.229736,1351
867.347107,1304
867.464539,1335
867.58197,1366
867.699341,1324
867.81665,1307
867.934082,1325
868.051453,1346
868.168823,1345
868.286194,1339
868.403564,1366
868.520935,1277
868.638306,1351
868.755676,1303
868.872986,1335
868.990295,1353
869.107727,1343
869.225037,1382
869.342346,1381
869.459717,1392
869.577026,1332
869.694336,1367
869.811707,1380
869.929016,1369
870.046326,1344
870.163635,1393
870.280945,1339
870.398254,1335
870.515564,1357
870.632812,1354
870.750183,1365
870.867432,1343
870.984741,1333
871.102051,1362
871.219299,1381
871.336609,1340
871.453918,1368
871.571106,1367
871.688416,1346
871.805664,1378
871.922852,1380
872.040222,1382
872.157471,1389
872.274719,1344
872.391968,1357
872.509155,1381
872.626465,1382
872.743652,1345
872.860962,1328
872.978149,1335
873.095337,1363
873.212646,1309
873.329834,1355
873.44696,1322
873.564209,1422
873.681396,1356
873.798645,1327
873.915894,1351
874.03302,1335
874.150208,1385
874.267456,1374
874.384583,1352
874.501831,1376
874.618958,1370
874.736145,1378
874.853333,1390
874.970459,1392
875.087646,1363
875.204834,1370
875.32196,1403
875.439148,1345
875.556274,1355
875.673401,1363
875.790527,1314
875.907715,1352
876.024841,1368
876.141968,1371
876.259094,1384
876.376282,1411
876.493347,1321
876.610474,1334
876.7276,1358
876.844727,1366
876.961853,1339
877.078918,1422
877.195984,1374
877.313171,1353
877.430237,1408
877.547302,1328
877.664368,1308
877.781433,1386
877.898499,1352
878.015625,1353
878.13269,1353
878.249695,1342
878.366821,1351
878.483887,1325
878.600952,1376
878.717957,1339
878.834961,1335
878.952087,1332
879.069092,1368
879.186157,1335
879.303162,1324
879.420227,1394
879.537231,1327
879.654236,1368
879.77124,1326
879.888306,1326
880.005249,1353
880.122314,1372
880.239319,1345
880.356323,1353
880.473328,1339
880.590271,1333
880.707275,1337
880.824341,1344
880.941284,1316
881.058228,1375
881.175232,1359
881.292236,1338
881.40918,1365
881.526123,1327
881.643066,1365
881.760071,1315
881.877014,1340
881.993958,1319
882.11084,1343
882.227783,1361
882.344727,1364
882.46167,1357
882.578613,1322
882.695618,1374
882.812439,1341
882.929382,1385
883.046326,1350
883.163208,1380
883.280151,1324
883.397034,1335
883.513916,1381
883.630798,1353
883.747742,1406
883.864563,1382
883.981506,1347
884.098389,1375
884.21521,1321
884.332153,1385
884.448975,1364
884.565796,1352
884.682678,1389
884.7995,1364
884.916443,1408
885.033264,1418
885.150085,1430
885.266968,1441
885.383789,1432
885.500671,1437
885.617493,1436
885.734314,1399
885.851196,1424
885.967896,1425
886.084717,1407
886.201599,1454
886.318359,1405
886.435181,1432
886.552002,1414
886.668762,1421
886.785645,1393
886.902344,1410
887.019165,1421
887.135925,1398
887.252747,1440
887.369446,1420
887.486267,1374
887.603027,1389
887.719788,1369
887.836548,1417
887.953247,1392
888.070068,1361
888.186829,1393
888.303528,1399
888.420288,1362
888.536987,1392
888.653687,1392
888.770447,1372
888.887146,1401
889.003967,1352
889.120667,1403
889.237305,1365
889.354065,1380
889.470703,1362
889.587463,1362
889.704163,1388
889.820862,1336
889.937561,1384
890.054199,1378
890.170837,1381
890.287598,1386
890.404236,1370
890.520874,1358
890.637634,1390
890.754211,1403
890.87085,1355
890.987549,1333
891.104187,1393
891.220886,1353
891.337463,1371
891.454102,1401
891.57074,1383
891.687378,1372
891.804077,1429
891.920654,1370
892.037231,1397
892.15387,1385
892.270447,1357
892.387085,1396
892.503723,1399
892.6203,1377
892.736877,1383
892.853516,1393
892.970032,1361
893.08667,1410
893.203186,1392
893.319763,1350
893.43634,1351
893.552917,1341
893.669556,1382
893.786011,1381
893.902588,1407
894.019165,1385
894.135681,1420
894.252197,1417
894.368835,1416
894.485291,1426
894.601868,1389
894.718384,1444
894.8349,1346
894.951355,1441
895.067932,1413
895.184448,1387
895.300964,1394
895.417419,1396
895.533936,1351
895.650452,1364
895.766907,1388
895.883423,1404
895.999878,1378
896.116333,1420
896.232849,1387
896.349304,1359
896.465759,1421
896.582214,1370
896.698669,1350
896.815125,1389
896.931641,1415
897.048035,1426
897.164551,1405
897.280884,1388
897.397339,1393
897.513794,1364
897.630249,1403
897.746582,1369
897.863098,1444
897.979431,1428
898.095886,1372
898.212341,1430
898.328674,1391
898.445129,1395
898.561462,1403
898.677795,1394
898.794312,1420
898.910645,1363
899.026978,1397
899.143433,1423
899.259766,1375
899.37616,1402
899.492493,1392
899.608765,1375
899.725159,1427
899.841553,1396
899.957947,1420
900.07428,1416
900.190552,1447
900.306946,1423
900.423157,1426
900.53949,1401
900.655884,1427
900.772156,1422
900.888489,1427
901.004822,1408
901.121033,1375
901.237366,1392
901.353699,1431
901.46991,1379
901.586304,1402
901.702515,1394
901.818787,1377
901.93512,1427
902.051331,1476
902.167603,1441
902.283875,1415
902.400085,1398
902.516418,1480
902.632629,1444
902.74884,1467
902.865112,1413
902.981384,1439
903.097595,1466
903.213867,1430
903.330017,1405
903.446289,1440
903.5625,1439
903.67865,1427
903.794922,1446
903.911072,1443
904.027344,1461
904.143494,1448
904.259705,1414
904.375916,1433
904.492065,1446
904.608215,1420
904.724426,1431
904.840576,1444
904.956726,1395
905.072876,1445
905.189087,1442
905.305176,1454
905.421387,1389
905.537537,1435
905.653687,1445
905.769775,1407
905.885925,1411
906.002014,1429
906.118164,1431
906.234314,1416
906.350403,1404
906.466492,1395
906.582642,1411
906.69873,1476
906.814758,1397
906.930908,1438
907.046936,1415
907.163086,1394
907.279175,1438
907.395264,1455
907.511353,1423
907.62738,1444
907.743408,1448
907.859497,1451
907.975525,1437
908.091553,1468
908.207703,1448
908.32373,1463
908.439758,1449
908.555786,1461
908.671814,1403
908.787842,1426
908.90387,1476
909.019775,1418
909.135864,1426
909.251892,1435
909.367859,1430
909.483826,1420
909.599854,1464
909.715881,1433
909.831848,1403
909.947815,1422
910.063782,1484
910.179749,1431
910.295776,1422
910.411743,1444
910.527649,1448
910.643616,1428
910.759583,1423
910.875488,1470
910.991455,1470
911.107361,1427
911.223267,1442
911.339294,1455
911.4552,1424
911.571106,1455
911.687073,1437
911.802979,1440
911.918823,1436
912.034729,1438
912.150635,1397
912.266602,1428
912.382446,1410
912.498352,1430
912.614197,1429
912.730103,1405
912.846008,1410
792.44574,1962
792.56488,1951
792.68396,1917
792.80304,1891
792.92218,1883
793.041199,1796
793.160339,1815
793.279419,1858
793.398499,1810
793.517578,1775
793.636658,1800
793.755737,1768
793.874817,1761
793.993896,1717
794.112976,1725
794.232056,1754
794.351074,1715
794.470215,1706
794.589233,1729
794.708313,1720
794.827393,1696
794.946411,1711
795.065552,1677
795.18457,1675
795.303589,1715
795.422668,1656
795.541687,1676
795.660767,1703
795.779846,1614
795.898865,1642
796.017883,1664
796.136963,1672
796.255981,1697
796.375061,1645
796.49408,1643
796.613037,1629
796.732117,1608
796.851135,1599
796.970154,1603
797.089233,1599
797.208191,1592
797.327271,1604
797.446228,1569
797.565186,1652
797.684265,1597
797.803223,1630
797.922241,1572
798.04126,1624
798.160278,1561
798.279297,1568
798.398315,1595
798.517273,1581
798.636292,1583
798.75531,1572
798.874268,1581
798.993286,1574
799.112244,1565
799.231323,1570
799.350281,1537
799.469238,1581
799.588257,1529
799.707153,1602
799.826111,1556
799.945129,1617
800.064087,1532
800.183044,1589
800.302063,1623
800.421021,1553
800.539978,1572
800.658936,1579
800.777893,1579
800.896912,1561
801.015747,1524
801.134705,1524
801.253723,1542
801.37262,1577
801.491638,1544
801.610535,1544
801.729492,1545
801.84845,1601
801.967407,1544
802.086243,1526
802.205261,1537
802.324158,1572
802.443115,1519
802.562073,1544
802.680969,1546
802.799927,1554
802.918762,1552
803.037659,1507
803.156677,1543
803.275574,1568
803.39447,1531
803.513428,1571
803.632263,1560
803.751221,1573
803.870117,1514
803.989014,1541
804.107971,1503
804.226746,1564
804.345642,1523
804.4646,1519
804.583496,1585
804.702393,1573
804.821228,1524
804.940125,1522
805.059021,1517
805.177917,1533
805.296814,1564
805.415649,1533
805.534546,1507
805.653442,1551
805.772278,1537
805.891113,1548
806.01001,1576
806.128906,1527
806.247742,1536
806.366577,1568
806.485413,1499
806.604309,1515
806.723145,1575
806.84198,1546
806.960876,1524
807.079712,1534
807.198486,1511
807.317383,1524
807.436218,1500
807.554993,1507
807.673889,1531
807.792725,1536
807.91156,1577
808.030396,1514
808.14917,1500
808.268005,1524
808.386841,1523
808.505676,1522
808.624451,1520
808.743286,1474
808.862122,1532
808.980896,1528
809.099731,1567
809.218506,1543
809.337341,1450
809.456116,1525
809.57489,1497
809.693726,1569
809.8125,1571
809.931274,1505
810.050049,1526
810.168884,1498
810.287659,1528
810.406372,1562
810.525269,1499
810.643982,1533
810.762756,1508
810.881531,1455
811.000305,1532
811.11908,1521
811.237854,1484
811.356567,1497
811.475403,1490
811.594116,1481
811.71283,1515
811.831604,1493
811.950378,1505
812.069153,1549
812.187927,1541
812.30658,1462
812.425415,1512
812.544128,1492
812.662781,1511
812.781616,1531
812.900269,1479
813.019043,1473
813.137756,1498
813.256531,1471
813.375244,1516
813.493896,1503
813.612671,1487
813.731384,1474
813.850037,1540
813.96875,1513
814.087524,1532
814.206238,1457
814.324951,1525
814.443604,1483
814.562256,1512
814.68103,1488
814.799683,1498
814.918335,1481
815.037109,1489
815.155762,1495
815.274475,1506
815.393188,1473
815.511841,1478
815.630554,1455
815.749146,1506
815.867859,1432
815.986572,1503
816.105164,1461
816.223877,1480
816.342529,1445
816.461182,1540
816.579895,1485
816.698486,1482
816.817139,1492
816.935791,1461
817.054504,1490
817.173096,1426
817.291748,1472
817.4104,1471
817.529053,1457
817.647644,1466
817.766235,1454
817.884949,1457
818.00354,1438
818.122192,1494
818.240845,1433
818.359436,1407
818.478088,1415
818.59668,1434
818.715271,1426
818.833923,1423
818.952515,1432
819.071106,1417
819.189758,1422
819.30835,1393
819.426941,1409
819.545532,1393
819.664124,1414
819.782715,1379
819.901306,1401
820.019897,1394
820.138489,1425
820.25708,1413
820.375671,1455
820.494202,1366
820.612732,1348
820.731384,1425
820.849915,1408
820.968506,1386
821.087097,1377
821.205627,1393
821.324158,1378
821.442749,1377
821.561279,1388
821.679871,1413
821.798401,1328
821.916931,1392
822.035461,1344
822.154053,1373
822.272583,1346
822.391174,1383
822.509583,1391
822.628174,1371
822.746704,1404
822.865234,1341
822.983765,1384
823.102295,1376
823.220825,1356
823.339294,1387
823.457825,1345
823.576355,1376
823.694824,1367
823.813354,1332
823.931885,1376
824.050354,1363
824.168884,1347
824.287354,1336
824.405823,1370
824.524353,1397
824.642822,1415
824.761353,1410
824.879822,1384
824.998291,1317
825.116699,1399
825.235291,1364
825.353699,1346
825.472168,1339
825.590637,1361
825.709106,1354
825.827576,1385
825.946045,1356
826.064453,1353
826.182983,1356
826.301392,1355
826.4198,1366
826.53833,1355
826.656738,1328
826.775208,1342
826.893677,1334
827.012024,1371
827.130493,1345
827.248962,1376
827.36731,1376
827.485779,1353
827.604248,1336
827.722595,1314
827.841064,1322
827.959412,1341
828.077942,1356
828.196289,1334
828.314636,1346
828.433105,1349
828.551514,1350
828.669861,1376
828.78833,1337
828.906677,1364
829.025085,1275
829.143433,1366
829.261841,1345
829.38031,1332
829.498657,1345
829.617004,1324
829.735413,1353
829.85376,1341
829.972107,1328
830.090515,1292
830.208862,1384
830.327209,1354
830.445557,1343
830.563904,1318
830.682312,1379
830.800659,1312
830.919006,1354
831.037354,1306
831.155701,1367
831.274048,1355
831.392395,1327
831.51062,1329
831.629028,1314
831.747314,1324
831.865662,1330
831.984009,1346
832.102356,1301
832.220642,1336
832.338928,1345
832.457275,1333
832.575623,1284
832.693909,1312
832.812134,1356
832.930481,1318
833.048828,1304
833.167114,1345
833.2854,1324
833.403687,1342
833.521973,1300
833.640259,1300
833.758545,1335
833.876831,1337
833.995056,1308
834.113281,1326
834.231628,1337
834.349915,1314
834.468201,1370
834.586426,1347
834.704651,1315
834.822998,1332
834.941162,1347
835.059448,1311
835.177673,1364
835.295959,1324
835.414246,1320
835.53241,1338
835.650635,1303
835.768921,1330
835.887146,1325
836.005371,1353
836.123596,1316
836.241821,1322
836.360046,1288
836.478271,1332
836.596497,1305
836.714722,1323
836.832886,1312
836.95105,1378
837.069336,1320
837.1875,1365
837.305725,1342
837.423889,1353
837.542053,1353
837.660339,1360
837.778503,1341
837.896667,1363
838.014832,1314
838.132996,1311
838.25116,1375
838.369385,1331
838.487488,1341
838.605713,1335
838.723877,1328
838.84198,1330
838.960205,1330
839.078308,1331
839.196472,1352
839.314636,1335
839.4328,1357
839.550964,1273
839.669067,1319
839.787231,1311
839.905396,1333
840.023499,1359
840.141602,1354
840.259766,1328
840.377869,1310
840.495972,1332
840.614136,1333
840.732239,1317
840.850342,1335
840.968445,1344
841.086548,1304
841.204651,1347
841.322754,1363
841.440918,1336
841.55896,1298
841.677002,1330
841.795166,1341
841.913208,1293
842.031311,1334
842.149353,1318
842.267456,1302
842.385498,1323
842.503601,1331
842.621643,1335
842.739746,1309
842.857788,1358
842.97583,1297
843.093933,1354
843.211975,1312
843.330017,1342
843.44812,1390
843.566101,1290
843.684204,1344
843.802246,1316
843.920227,1302
844.038269,1317
844.156311,1300
844.274292,1307
844.392395,1354
844.510376,1316
844.628357,1307
844.74646,1341
844.864441,1303
844.982422,1361
845.100403,1340
845.218384,1325
845.336426,1339
845.454468,1336
845.572449,1274
845.69043,1312
845.808411,1303
845.926453,1348
846.044373,1291
846.162354,1329
846.280396,1305
846.398315,1369
846.516296,1347
846.634216,1288
846.752197,1318
846.870178,1339
846.988098,1278
847.106079,1310
847.22406,1337
847.34198,1350
847.4599,1283
847.577881,1324
847.695801,1318
847.813782,1338
847.931641,1372
848.049561,1329
848.167603,1307
848.285461,1340
848.403381,1354
848.521362,1333
848.639221,1293
848.75708,1365
848.875,1330
848.99292,1326
849.110901,1357
849.22876,1333
849.34668,1300
849.464539,1375
849.582458,1349
849.700317,1343
849.818176,1302
849.936096,1278
850.053955,1314
850.171875,1343
850.289673,1340
850.407593,1339
850.525452,1332
850.643311,1329
850.761169,1284
850.878967,1360
850.996887,1308
851.114746,1338
851.232544,1312
851.350403,1316
851.468262,1305
851.58606,1332
851.703979,1368
851.821777,1371
851.939636,1318
852.057434,1358
852.175232,1336
852.293091,1317
852.410889,1341
852.528687,1329
852.646545,1346
852.764343,1331
852.88208,1329
852.999939,1376
853.117676,1333
853.235535,1320
853.353271,1346
853.471069,1339
853.588928,1332
853.706604,1303
853.824402,1372
853.9422,1324
854.059998,1307
854.177734,1361
854.295532,1349
854.413269,1338
854.531006,1323
854.648804,1322
854.766541,1341
854.884277,1347
855.002014,1331
855.119751,1300
855.237549,1321
855.355225,1328
855.473022,1335
855.590698,1331
855.708435,1284
855.826172,1343
855.943848,1326
856.061646,1358
856.179321,1314
856.296997,1341
856.414795,1353
856.53241,1314
856.650085,1333
856.767822,1354
856.885559,1343
857.003174,1306
857.120911,1373
857.238586,1318
857.356201,1322
857.473938,1333
857.591614,1327
857.709351,1366
857.826965,1320
857.944641,1340
858.062317,1311
858.179993,1341
858.297668,1332
858.415283,1316
858.532959,1331
858.650574,1366
858.768188,1358
858.885803,1344
859.003479,1342
859.121094,1316
859.23877,1336
859.356384,1369
859.473999,1361
859.591675,1345
859.709229,1361
859.826843,1341
859.944458,1315
860.062012,1374
860.179626,1346
860.297302,1326
860.414856,1357
860.532471,1394
860.650024,1327
860.767639,1338
860.885193,1364
861.002808,1359
861.120361,1368
861.237976,1341
861.35553,1399
861.473022,1306
861.590698,1378
861.708191,1334
861.825745,1336
861.943298,1370
862.060852,1316
862.178406,1330
862.295959,1352
862.413513,1356
862.531006,1328
862.64856,1337
862.766113,1372
862.883667,1354
863.00116,1374
863.118713,1357
863.236206,1337
863.353699,1312
863.471252,1329
863.588745,1334
863.706177,1369
863.82373,1312
863.941162,1324
864.058716,1329
864.176208,1330
864.29364,1323
864.411194,1335
864.528687,1300
864.646118,1340
864.763611,1285
864.881042,1334
864.998535,1350
865.116028,1353
865.233459,1323
865.350891,1319
865.468384,1343
865.585754,1326
865.703308,1320
865.820679,1373
865.938171,1338
866.055542,1352
866.173035,1326
866.290466,1293
866.407837,1317
866.52533,1349
866.6427,1346
866.760071,1352
866.877563,1314
866.994934,1356
867.112305,1367
867.229736,1377
867.347107,1330
867.464539,1337
867.58197,1385
867.699341,1333
867.81665,1337
867.934082,1327
868.051453,1390
868.168823,1318
868.286194,1336
868.403564,1371
868.520935,1343
868.638306,1385
868.755676,1374
868.872986,1348
868.990295,1340
869.107727,1327
869.225037,1359
869.342346,1329
869.459717,1356
869.577026,1406
869.694336,1370
869.811707,1368
869.929016,1362
870.046326,1359
870.163635,1321
870.280945,1367
870.398254,1356
870.515564,1376
870.632812,1343
870.750183,1344
870.867432,1327
870.984741,1374
871.102051,1357
871.219299,1348
871.336609,1370
871.453918,1398
871.571106,1362
871.688416,1330
871.805664,1393
871.922852,1369
872.040222,1383
872.157471,1359
872.274719,1385
872.391968,1419
872.509155,1346
872.626465,1330
872.743652,1433
872.860962,1407
872.978149,1353
873.095337,1385
873.212646,1339
873.329834,1350
873.44696,1362
873.564209,1343
873.681396,1375
873.798645,1357
873.915894,1376
874.03302,1344
874.150208,1378
874.267456,1420
874.384583,1328
874.501831,1375
874.618958,1392
874.736145,1376
874.853333,1369
874.970459,1414
875.087646,1396
875.204834,1363
875.32196,1421
875.439148,1381
875.556274,1376
875.673401,1363
875.790527,1344
875.907715,1359
876.024841,1351
876.141968,1381
876.259094,1384
876.376282,1387
876.493347,1339
876.610474,1365
876.7276,1357
876.844727,1338
876.961853,1374
877.078918,1360
877.195984,1369
877.313171,1403
877.430237,1343
877.547302,1316
877.664368,1390
877.781433,1399
877.898499,1373
878.015625,1351
878.13269,1370
878.249695,1377
878.366821,1352
878.483887,1359
878.600952,1359
878.717957,1419
878.834961,1405
878.952087,1379
879.069092,1389
879.186157,1400
879.303162,1356
879.420227,1386
879.537231,1397
879.654236,1321
879.77124,1379
879.888306,1348
880.005249,1414
880.122314,1363
880.239319,1384
880.356323,1366
880.473328,1327
880.590271,1383
880.707275,1334
880.824341,1361
880.941284,1371
881.058228,1370
881.175232,1382
881.292236,1358
881.40918,1358
881.526123,1372
881.643066,1360
881.760071,1382
881.877014,1372
881.993958,1358
882.11084,1373
882.227783,1331
882.344727,1362
882.46167,1317
882.578613,1381
882.695618,1366
882.812439,1383
882.929382,1353
883.046326,1336
883.163208,1389
883.280151,1370
883.397034,1384
883.513916,1387
883.630798,1369
883.747742,1368
883.864563,1383
883.981506,1353
884.098389,1363
884.21521,1373
884.332153,1425
884.448975,1327
884.565796,1400
884.682678,1417
884.7995,1404
884.916443,1414
885.033264,1380
885.150085,1402
885.266968,1384
885.383789,1425
885.500671,1426
885.617493,1440
885.734314,1403
885.851196,1479
885.967896,1420
886.084717,1461
886.201599,1401
886.318359,1465
886.435181,1385
886.552002,1440
886.668762,1423
886.785645,1438
886.902344,1425
887.019165,1399
887.135925,1437
887.252747,1403
887.369446,1422
887.486267,1401
887.603027,1378
887.719788,1375
887.836548,1403
887.953247,1388
888.070068,1396
888.186829,1416
888.303528,1402
888.420288,1382
888.536987,1368
888.653687,1365
888.770447,1379
888.887146,1393
889.003967,1366
889.120667,1396
889.237305,1366
889.354065,1419
889.470703,1388
889.587463,1399
889.704163,1348
889.820862,1398
889.937561,1353
890.054199,1404
890.170837,1380
890.287598,1359
890.404236,1360
890.520874,1438
890.637634,1374
890.754211,1385
890.87085,1388
890.987549,1409
891.104187,1380
891.220886,1426
891.337463,1374
891.454102,1386
891.57074,1408
891.687378,1368
891.804077,1424
891.920654,1374
892.037231,1434
892.15387,1352
892.270447,1397
892.387085,1403
892.503723,1357
892.6203,1388
892.736877,1407
892.853516,1362
892.970032,1391
893.08667,1418
893.203186,1402
893.319763,1405
893.43634,1378
893.552917,1368
893.669556,1387
893.786011,1393
893.902588,1437
894.019165,1394
894.135681,1382
894.252197,1450
894.368835,1413
894.485291,1388
894.601868,1393
894.718384,1410
894.8349,1407
894.951355,1355
895.067932,1366
895.184448,1362
895.300964,1415
895.417419,1434
895.533936,1396
895.650452,1419
895.766907,1430
895.883423,1387
895.999878,1395
896.116333,1443
896.232849,1395
896.349304,1379
896.465759,1398
896.582214,1411
896.698669,1403
896.815125,1430
896.931641,1395
897.048035,1400
897.164551,1393
897.280884,1411
897.397339,1405
897.513794,1380
897.630249,1413
897.746582,1368
897.863098,1415
897.979431,1406
898.095886,1398
898.212341,1392
898.328674,1439
898.445129,1437
898.561462,1423
898.677795,1437
898.794312,1403
898.910645,1384
899.026978,1413
899.143433,1377
899.259766,1435
899.37616,1400
899.492493,1434
899.608765,1409
899.725159,1435
899.841553,1395
899.957947,1430
900.07428,1423
900.190552,1387
900.306946,1423
900.423157,1426
900.53949,1428
900.655884,1400
900.772156,1449
900.888489,1415
901.004822,1432
901.121033,1383
901.237366,1420
901.353699,1394
901.46991,1415
901.586304,1487
901.702515,1405
901.818787,1451
901.93512,1428
902.051331,1453
902.167603,1448
902.283875,1466
902.400085,1416
902.516418,1431
902.632629,1417
902.74884,1435
902.865112,1510
902.981384,1502
903.097595,1439
903.213867,1460
903.330017,1445
903.446289,1427
903.5625,1453
903.67865,1441
903.794922,1441
903.911072,1467
904.027344,1440
904.143494,1431
904.259705,1425
904.375916,1442
904.492065,1404
904.608215,1416
904.724426,1432
904.840576,1408
904.956726,1427
905.072876,1451
905.189087,1416
905.305176,1454
905.421387,1409
905.537537,1393
905.653687,1422
905.769775,1414
905.885925,1517
906.002014,1411
906.118164,1485
906.234314,1436
906.350403,1469
906.466492,1463
906.582642,1468
906.69873,1394
906.814758,1475
906.930908,1429
907.046936,1453
907.163086,1445
907.279175,1402
907.395264,1389
907.511353,1373
907.62738,1453
907.743408,1439
907.859497,1413
907.975525,1445
908.091553,1440
908.207703,1429
908.32373,1399
908.439758,1468
908.555786,1419
908.671814,1474
908.787842,1470
908.90387,1451
909.019775,1419
909.135864,1447
909.251892,1449
909.367859,1483
909.483826,1435
909.599854,1464
909.715881,1415
909.831848,1445
909.947815,1400
910.063782,1469
910.179749,1393
910.295776,1483
910.411743,1449
910.527649,1434
910.643616,1474
910.759583,1468
910.875488,1481
910.991455,1421
911.107361,1450
911.223267,1486
911.339294,1467
911.4552,1443
911.571106,1437
911.687073,1442
911.802979,1484
911.918823,1419
912.034729,1436
912.150635,1469
912.266602,1461
912.382446,1453
912.498352,1439
912.614197,1454
912.730103,1434
912.846008,1477
