792.44574,2100
792.56488,2091
792.68396,2178
792.80304,2066
792.92218,2046
793.041199,2048
793.160339,2035
793.279419,2086
793.398499,2015
793.517578,2039
793.636658,2009
793.755737,2014
793.874817,2007
793.993896,2010
794.112976,1986
794.232056,1986
794.351074,1974
794.470215,2016
794.589233,1967
794.708313,1981
794.827393,1978
794.946411,1964
795.065552,1892
795.18457,1934
795.303589,1941
795.422668,1980
795.541687,1977
795.660767,1981
795.779846,1931
795.898865,1915
796.017883,1881
796.136963,1943
796.255981,1931
796.375061,1920
796.49408,1919
796.613037,1933
796.732117,1887
796.851135,1910
796.970154,1912
797.089233,1877
797.208191,1886
797.327271,1876
797.446228,1898
797.565186,1865
797.684265,1931
797.803223,1854
797.922241,1861
798.04126,1902
798.160278,1904
798.279297,1907
798.398315,1861
798.517273,1928
798.636292,1897
798.75531,1914
798.874268,1869
798.993286,1889
799.112244,1863
799.231323,1875
799.350281,1899
799.469238,1923
799.588257,1910
799.707153,1944
799.826111,1923
799.945129,1912
800.064087,1911
800.183044,1966
800.302063,1871
800.421021,1870
800.539978,1920
800.658936,1905
800.777893,1932
800.896912,1888
801.015747,1926
801.134705,1918
801.253723,1990
801.37262,1900
801.491638,1895
801.610535,1883
801.729492,1940
801.84845,1916
801.967407,1909
802.086243,1923
802.205261,1948
802.324158,1998
802.443115,1999
802.562073,2017
802.680969,1977
802.799927,2016
802.918762,2003
803.037659,1934
803.156677,1983
803.275574,1975
803.39447,1980
803.513428,1932
803.632263,1982
803.751221,2003
803.870117,1927
803.989014,2031
804.107971,1967
804.226746,1997
804.345642,1986
804.4646,2053
804.583496,2029
804.702393,2040
804.821228,1995
804.940125,2048
805.059021,2039
805.177917,2028
805.296814,1996
805.415649,2026
805.534546,2058
805.653442,2040
805.772278,2080
805.891113,2067
806.01001,2018
806.128906,2086
806.247742,2081
806.366577,2032
806.485413,2082
806.604309,2107
806.723145,2027
806.84198,2104
806.960876,2089
807.079712,2121
807.198486,2085
807.317383,2115
807.436218,2094
807.554993,2098
807.673889,2061
807.792725,2098
807.91156,2112
808.030396,2091
808.14917,2178
808.268005,2084
808.386841,2132
808.505676,2148
808.624451,2125
808.743286,2158
808.862122,2165
808.980896,2141
809.099731,2119
809.218506,2167
809.337341,2132
809.456116,2078
809.57489,2167
809.693726,2141
809.8125,2157
809.931274,2173
810.050049,2206
810.168884,2198
810.287659,2162
810.406372,2152
810.525269,2195
810.643982,2152
810.762756,2173
810.881531,2186
811.000305,2188
811.11908,2130
811.237854,2172
811.356567,2177
811.475403,2226
811.594116,2170
811.71283,2197
811.831604,2214
811.950378,2138
812.069153,2172
812.187927,2183
812.30658,2170
812.425415,2210
812.544128,2169
812.662781,2215
812.781616,2194
812.900269,2170
813.019043,2214
813.137756,2149
813.256531,2211
813.375244,2193
813.493896,2203
813.612671,2137
813.731384,2246
813.850037,2165
813.96875,2240
814.087524,2159
814.206238,2151
814.324951,2119
814.443604,2164
814.562256,2144
814.68103,2157
814.799683,2178
814.918335,2113
815.037109,2166
815.155762,2139
815.274475,2133
815.393188,2101
815.511841,2100
815.630554,2063
815.749146,2108
815.867859,2063
815.986572,2114
816.105164,2096
816.223877,2067
816.342529,2060
816.461182,2099
816.579895,2088
816.698486,2164
816.817139,2147
816.935791,2153
817.054504,2149
817.173096,2106
817.291748,2098
817.4104,2099
817.529053,2018
817.647644,2014
817.766235,1973
817.884949,1988
818.00354,1814
818.122192,1844
818.240845,1802
818.359436,1778
818.478088,1745
818.59668,1736
818.715271,1739
818.833923,1686
818.952515,1636
819.071106,1658
819.189758,1631
819.30835,1619
819.426941,1583
819.545532,1598
819.664124,1542
819.782715,1550
819.901306,1512
820.019897,1572
820.138489,1554
820.25708,1564
820.375671,1525
820.494202,1512
820.612732,1535
820.731384,1449
820.849915,1509
820.968506,1554
821.087097,1470
821.205627,1449
821.324158,1491
821.442749,1485
821.561279,1471
821.679871,1484
821.798401,1475
821.916931,1477
822.035461,1445
822.154053,1489
822.272583,1458
822.391174,1487
822.509583,1462
822.628174,1438
822.746704,1482
822.865234,1407
822.983765,1441
823.102295,1485
823.220825,1451
823.339294,1445
823.457825,1451
823.576355,1447
823.694824,1444
823.813354,1497
823.931885,1435
824.050354,1474
824.168884,1474
824.287354,1439
824.405823,1491
824.524353,1469
824.642822,1505
824.761353,1470
824.879822,1445
824.998291,1488
825.116699,1500
825.235291,1496
825.353699,1469
825.472168,1471
825.590637,1386
825.709106,1472
825.827576,1409
825.946045,1436
826.064453,1386
826.182983,1402
826.301392,1401
826.4198,1360
826.53833,1388
826.656738,1353
826.775208,1419
826.893677,1377
827.012024,1386
827.130493,1438
827.248962,1374
827.36731,1373
827.485779,1349
827.604248,1412
827.722595,1409
827.841064,1359
827.959412,1383
828.077942,1323
828.196289,1370
828.314636,1352
828.433105,1349
828.551514,1341
828.669861,1336
828.78833,1337
828.906677,1372
829.025085,1355
829.143433,1360
829.261841,1365
829.38031,1360
829.498657,1345
829.617004,1305
829.735413,1371
829.85376,1329
829.972107,1350
830.090515,1334
830.208862,1332
830.327209,1392
830.445557,1385
830.563904,1351
830.682312,1392
830.800659,1347
830.919006,1363
831.037354,1348
831.155701,1360
831.274048,1310
831.392395,1363
831.51062,1334
831.629028,1348
831.747314,1350
831.865662,1386
831.984009,1300
832.102356,1351
832.220642,1364
832.338928,1301
832.457275,1370
832.575623,1319
832.693909,1315
832.812134,1337
832.930481,1357
833.048828,1354
833.167114,1370
833.2854,1324
833.403687,1358
833.521973,1340
833.640259,1329
833.758545,1387
833.876831,1287
833.995056,1389
834.113281,1327
834.231628,1353
834.349915,1382
834.468201,1381
834.586426,1334
834.704651,1342
834.822998,1371
834.941162,1336
835.059448,1366
835.177673,1379
835.295959,1343
835.414246,1385
835.53241,1368
835.650635,1346
835.768921,1312
835.887146,1355
836.005371,1349
836.123596,1377
836.241821,1378
836.360046,1434
836.478271,1425
836.596497,1400
836.714722,1395
836.832886,1433
836.95105,1428
837.069336,1455
837.1875,1407
837.305725,1471
837.423889,1409
837.542053,1441
837.660339,1416
837.778503,1459
837.896667,1374
838.014832,1397
838.132996,1468
838.25116,1435
838.369385,1429
838.487488,1411
838.605713,1459
838.723877,1425
838.84198,1400
838.960205,1421
839.078308,1462
839.196472,1414
839.314636,1407
839.4328,1441
839.550964,1390
839.669067,1385
839.787231,1344
839.905396,1405
840.023499,1389
840.141602,1419
840.259766,1445
840.377869,1392
840.495972,1432
840.614136,1402
840.732239,1376
840.850342,1380
840.968445,1379
841.086548,1382
841.204651,1368
841.322754,1387
841.440918,1361
841.55896,1405
841.677002,1318
841.795166,1366
841.913208,1353
842.031311,1360
842.149353,1339
842.267456,1356
842.385498,1324
842.503601,1358
842.621643,1323
842.739746,1348
842.857788,1322
842.97583,1323
843.093933,1359
843.211975,1339
843.330017,1298
843.44812,1329
843.566101,1307
843.684204,1325
843.802246,1308
843.920227,1327
844.038269,1341
844.156311,1324
844.274292,1319
844.392395,1366
844.510376,1345
844.628357,1332
844.74646,1361
844.864441,1339
844.982422,1325
845.100403,1297
845.218384,1339
845.336426,1279
845.454468,1323
845.572449,1353
845.69043,1325
845.808411,1309
845.926453,1292
846.044373,1339
846.162354,1321
846.280396,1337
846.398315,1324
846.516296,1296
846.634216,1291
846.752197,1280
846.870178,1320
846.988098,1282
847.106079,1300
847.22406,1319
847.34198,1350
847.4599,1319
847.577881,1321
847.695801,1316
847.813782,1305
847.931641,1322
848.049561,1344
848.167603,1319
848.285461,1316
848.403381,1309
848.521362,1307
848.639221,1308
848.75708,1335
848.875,1338
848.99292,1323
849.110901,1320
849.22876,1328
849.34668,1293
849.464539,1353
849.582458,1332
849.700317,1326
849.818176,1328
849.936096,1315
850.053955,1310
850.171875,1303
850.289673,1331
850.407593,1300
850.525452,1282
850.643311,1301
850.761169,1292
850.878967,1330
850.996887,1326
851.114746,1326
851.232544,1320
851.350403,1316
851.468262,1350
851.58606,1331
851.703979,1322
851.821777,1311
851.939636,1295
852.057434,1367
852.175232,1314
852.293091,1305
852.410889,1327
852.528687,1295
852.646545,1367
852.764343,1359
852.88208,1368
852.999939,1331
853.117676,1373
853.235535,1361
853.353271,1349
853.471069,1355
853.588928,1340
853.706604,1327
853.824402,1341
853.9422,1346
854.059998,1329
854.177734,1330
854.295532,1345
854.413269,1364
854.531006,1383
854.648804,1327
854.766541,1337
854.884277,1332
855.002014,1365
855.119751,1373
855.237549,1347
855.355225,1356
855.473022,1374
855.590698,1356
855.708435,1398
855.826172,1351
855.943848,1382
856.061646,1366
856.179321,1365
856.296997,1366
856.414795,1388
856.53241,1377
856.650085,1376
856.767822,1385
856.885559,1389
857.003174,1379
857.120911,1347
857.238586,1376
857.356201,1427
857.473938,1379
857.591614,1397
857.709351,1370
857.826965,1387
857.944641,1378
858.062317,1370
858.179993,1333
858.297668,1401
858.415283,1348
858.532959,1389
858.650574,1366
858.768188,1355
858.885803,1360
859.003479,1346
859.121094,1346
859.23877,1357
859.356384,1386
859.473999,1389
859.591675,1406
859.709229,1371
859.826843,1357
859.944458,1350
860.062012,1360
860.179626,1368
860.297302,1357
860.414856,1355
860.532471,1327
860.650024,1374
860.767639,1363
860.885193,1378
861.002808,1381
861.120361,1323
861.237976,1313
861.35553,1317
861.473022,1371
861.590698,1381
861.708191,1331
861.825745,1384
861.943298,1380
862.060852,1368
862.178406,1380
862.295959,1346
862.413513,1343
862.531006,1337
862.64856,1372
862.766113,1319
862.883667,1364
863.00116,1317
863.118713,1342
863.236206,1383
863.353699,1369
863.471252,1356
863.588745,1356
863.706177,1376
863.82373,1360
863.941162,1353
864.058716,1366
864.176208,1363
864.29364,1323
864.411194,1399
864.528687,1393
864.646118,1363
864.763611,1386
864.881042,1341
864.998535,1348
865.116028,1419
865.233459,1374
865.350891,1385
865.468384,1399
865.585754,1440
865.703308,1402
865.820679,1376
865.938171,1390
866.055542,1358
866.173035,1406
866.290466,1419
866.407837,1384
866.52533,1370
866.6427,1405
866.760071,1405
866.877563,1396
866.994934,1374
867.112305,1344
867.229736,1424
867.347107,1356
867.464539,1404
867.58197,1351
867.699341,1427
867.81665,1446
867.934082,1401
868.051453,1377
868.168823,1354
868.286194,1437
868.403564,1378
868.520935,1397
868.638306,1360
868.755676,1388
868.872986,1393
868.990295,1348
869.107727,1398
869.225037,1403
869.342346,1403
869.459717,1385
869.577026,1400
869.694336,1401
869.811707,1413
869.929016,1349
870.046326,1408
870.163635,1397
870.280945,1421
870.398254,1375
870.515564,1376
870.632812,1315
870.750183,1407
870.867432,1373
870.984741,1389
871.102051,1400
871.219299,1332
871.336609,1417
871.453918,1412
871.571106,1400
871.688416,1385
871.805664,1388
871.922852,1360
872.040222,1382
872.157471,1404
872.274719,1381
872.391968,1390
872.509155,1463
872.626465,1374
872.743652,1435
872.860962,1391
872.978149,1367
873.095337,1408
873.212646,1408
873.329834,1418
873.44696,1388
873.564209,1400
873.681396,1398
873.798645,1400
873.915894,1389
874.03302,1343
874.150208,1402
874.267456,1378
874.384583,1384
874.501831,1375
874.618958,1371
874.736145,1370
874.853333,1408
874.970459,1414
875.087646,1384
875.204834,1405
875.32196,1376
875.439148,1375
875.556274,1363
875.673401,1407
875.790527,1355
875.907715,1397
876.024841,1394
876.141968,1396
876.259094,1380
876.376282,1388
876.493347,1376
876.610474,1407
876.7276,1387
876.844727,1398
876.961853,1414
877.078918,1406
877.195984,1407
877.313171,1430
877.430237,1467
877.547302,1421
877.664368,1404
877.781433,1374
877.898499,1441
878.015625,1405
878.13269,1361
878.249695,1426
878.366821,1382
878.483887,1442
878.600952,1376
878.717957,1378
878.834961,1391
878.952087,1425
879.069092,1406
879.186157,1412
879.303162,1407
879.420227,1414
879.537231,1421
879.654236,1433
879.77124,1449
879.888306,1438
880.005249,1414
880.122314,1382
880.239319,1441
880.356323,1393
880.473328,1409
880.590271,1392
880.707275,1414
880.824341,1421
880.941284,1384
881.058228,1433
881.175232,1427
881.292236,1434
881.40918,1440
881.526123,1416
881.643066,1455
881.760071,1419
881.877014,1392
881.993958,1438
882.11084,1416
882.227783,1415
882.344727,1390
882.46167,1431
882.578613,1424
882.695618,1388
882.812439,1385
882.929382,1425
883.046326,1434
883.163208,1442
883.280151,1397
883.397034,1418
883.513916,1432
883.630798,1422
883.747742,1421
883.864563,1437
883.981506,1405
884.098389,1411
884.21521,1452
884.332153,1430
884.448975,1435
884.565796,1415
884.682678,1390
884.7995,1397
884.916443,1474
885.033264,1358
885.150085,1434
885.266968,1462
885.383789,1436
885.500671,1459
885.617493,1437
885.734314,1426
885.851196,1377
885.967896,1454
886.084717,1429
886.201599,1460
886.318359,1434
886.435181,1416
886.552002,1458
886.668762,1471
886.785645,1409
886.902344,1443
887.019165,1456
887.135925,1436
887.252747,1416
887.369446,1474
887.486267,1460
887.603027,1434
887.719788,1450
887.836548,1498
887.953247,1456
888.070068,1399
888.186829,1449
888.303528,1515
888.420288,1446
888.536987,1455
888.653687,1467
888.770447,1461
888.887146,1436
889.003967,1480
889.120667,1447
889.237305,1464
889.354065,1471
889.470703,1430
889.587463,1440
889.704163,1457
889.820862,1473
889.937561,1444
890.054199,1439
890.170837,1489
890.287598,1438
890.404236,1480
890.520874,1449
890.637634,1508
890.754211,1474
890.87085,1470
890.987549,1467
891.104187,1494
891.220886,1486
891.337463,1475
891.454102,1452
891.57074,1465
891.687378,1464
891.804077,1501
891.920654,1496
892.037231,1456
892.15387,1445
892.270447,1467
892.387085,1494
892.503723,1503
892.6203,1491
892.736877,1523
892.853516,1448
892.970032,1503
893.08667,1482
893.203186,1481
893.319763,1471
893.43634,1497
893.552917,1489
893.669556,1464
893.786011,1480
893.902588,1451
894.019165,1480
894.135681,1451
894.252197,1494
894.368835,1485
894.485291,1494
894.601868,1493
894.718384,1520
894.8349,1506
894.951355,1498
895.067932,1521
895.184448,1505
895.300964,1505
895.417419,1512
895.533936,1493
895.650452,1528
895.766907,1493
895.883423,1464
895.999878,1516
896.116333,1482
896.232849,1465
896.349304,1509
896.465759,1481
896.582214,1469
896.698669,1538
896.815125,1472
896.931641,1503
897.048035,1474
897.164551,1473
897.280884,1548
897.397339,1501
897.513794,1465
897.630249,1491
897.746582,1569
897.863098,1520
897.979431,1526
898.095886,1485
898.212341,1501
898.328674,1503
898.445129,1498
898.561462,1538
898.677795,1533
898.794312,1488
898.910645,1490
899.026978,1521
899.143433,1508
899.259766,1485
899.37616,1531
899.492493,1511
899.608765,1508
899.725159,1520
899.841553,1499
899.957947,1518
900.07428,1535
900.190552,1552
900.306946,1524
900.423157,1575
900.53949,1533
900.655884,1492
900.772156,1535
900.888489,1502
901.004822,1487
901.121033,1562
901.237366,1501
901.353699,1529
901.46991,1480
901.586304,1487
901.702515,1521
901.818787,1506
901.93512,1550
902.051331,1522
902.167603,1495
902.283875,1455
902.400085,1542
902.516418,1570
902.632629,1538
902.74884,1488
902.865112,1568
902.981384,1509
903.097595,1521
903.213867,1539
903.330017,1587
903.446289,1552
903.5625,1534
903.67865,1538
903.794922,1576
903.911072,1538
904.027344,1559
904.143494,1559
904.259705,1560
904.375916,1546
904.492065,1549
904.608215,1501
904.724426,1510
904.840576,1506
904.956726,1525
905.072876,1523
905.189087,1514
905.305176,1545
905.421387,1517
905.537537,1537
905.653687,1535
905.769775,1532
905.885925,1541
906.002014,1565
906.118164,1504
906.234314,1514
906.350403,1522
906.466492,1535
906.582642,1534
906.69873,1515
906.814758,1523
906.930908,1534
907.046936,1512
907.163086,1574
907.279175,1520
907.395264,1507
907.511353,1522
907.62738,1574
907.743408,1494
907.859497,1598
907.975525,1559
908.091553,1554
908.207703,1541
908.32373,1568
908.439758,1523
908.555786,1521
908.671814,1514
908.787842,1557
908.90387,1536
909.019775,1518
909.135864,1507
909.251892,1513
909.367859,1560
909.483826,1558
909.599854,1515
909.715881,1517
909.831848,1583
909.947815,1539
910.063782,1546
910.179749,1537
910.295776,1520
910.411743,1537
910.527649,1559
910.643616,1516
910.759583,1528
910.875488,1563
910.991455,1532
911.107361,1577
911.223267,1542
911.339294,1568
911.4552,1499
911.571106,1550
911.687073,1554
911.802979,1544
911.918823,1539
912.034729,1588
912.150635,1498
912.266602,1508
912.382446,1531
912.498352,1518
912.614197,1505
912.730103,1501
912.846008,1557
792.44574,2135
792.56488,2121
792.68396,2201
792.80304,2152
792.92218,2169
793.041199,2054
793.160339,2090
793.279419,2084
793.398499,2065
793.517578,1993
793.636658,2079
793.755737,2032
793.874817,2033
793.993896,2041
794.112976,1995
794.232056,1957
794.351074,1986
794.470215,1987
794.589233,2038
794.708313,1985
794.827393,2016
794.946411,1975
795.065552,2054
795.18457,2005
795.303589,1998
795.422668,1961
795.541687,1990
795.660767,2040
795.779846,1964
795.898865,1943
796.017883,1922
796.136963,1962
796.255981,1964
796.375061,1972
796.49408,1977
796.613037,1932
796.732117,1921
796.851135,1911
796.970154,1915
797.089233,1910
797.208191,1954
797.327271,1909
797.446228,1982
797.565186,1904
797.684265,1947
797.803223,1953
797.922241,1962
798.04126,1946
798.160278,1981
798.279297,1835
798.398315,1974
798.517273,1960
798.636292,1904
798.75531,1932
798.874268,1924
798.993286,1927
799.112244,1916
799.231323,1899
799.350281,1919
799.469238,1956
799.588257,1936
799.707153,1925
799.826111,1952
799.945129,1882
800.064087,1944
800.183044,1937
800.302063,1937
800.421021,1961
800.539978,1934
800.658936,1967
800.777893,1972
800.896912,1970
801.015747,1936
801.134705,1942
801.253723,1946
801.37262,1965
801.491638,1939
801.610535,1992
801.729492,1961
801.84845,1945
801.967407,1978
802.086243,1987
802.205261,1997
802.324158,1971
802.443115,1990
802.562073,2036
802.680969,2015
802.799927,2022
802.918762,2035
803.037659,2053
803.156677,1979
803.275574,1981
803.39447,2035
803.513428,2031
803.632263,2088
803.751221,1978
803.870117,2051
803.989014,1990
804.107971,2068
804.226746,2023
804.345642,1978
804.4646,2086
804.583496,2044
804.702393,2080
804.821228,2087
804.940125,2084
805.059021,2113
805.177917,2049
805.296814,2067
805.415649,2071
805.534546,2073
805.653442,2187
805.772278,2098
805.891113,2099
806.01001,2064
806.128906,2136
806.247742,2076
806.366577,2089
806.485413,2049
806.604309,2129
806.723145,2091
806.84198,2085
806.960876,2177
807.079712,2118
807.198486,2110
807.317383,2102
807.436218,2096
807.554993,2115
807.673889,2132
807.792725,2108
807.91156,2137
808.030396,2155
808.14917,2175
808.268005,2143
808.386841,2196
808.505676,2150
808.624451,2130
808.743286,2132
808.862122,2170
808.980896,2117
809.099731,2188
809.218506,2167
809.337341,2153
809.456116,2206
809.57489,2225
809.693726,2161
809.8125,2152
809.931274,2191
810.050049,2200
810.168884,2215
810.287659,2214
810.406372,2189
810.525269,2225
810.643982,2203
810.762756,2262
810.881531,2172
811.000305,2173
811.11908,2227
811.237854,2213
811.356567,2224
811.475403,2197
811.594116,2177
811.71283,2189
811.831604,2265
811.950378,2176
812.069153,2134
812.187927,2275
812.30658,2149
812.425415,2207
812.544128,2203
812.662781,2182
812.781616,2182
812.900269,2169
813.019043,2193
813.137756,2163
813.256531,2232
813.375244,2198
813.493896,2248
813.612671,2240
813.731384,2252
813.850037,2200
813.96875,2227
814.087524,2180
814.206238,2164
814.324951,2221
814.443604,2199
814.562256,2199
814.68103,2218
814.799683,2173
814.918335,2180
815.037109,2168
815.155762,2155
815.274475,2179
815.393188,2080
815.511841,2127
815.630554,2122
815.749146,2145
815.867859,2111
815.986572,2136
816.105164,2114
816.223877,2150
816.342529,2126
816.461182,2117
816.579895,2133
816.698486,2194
816.817139,2161
816.935791,2167
817.054504,2115
817.173096,2130
817.291748,2122
817.4104,2103
817.529053,2034
817.647644,2077
817.766235,1945
817.884949,1981
818.00354,1859
818.122192,1874
818.240845,1822
818.359436,1813
818.478088,1787
818.59668,1791
818.715271,1710
818.833923,1708
818.952515,1689
819.071106,1658
819.189758,1674
819.30835,1618
819.426941,1617
819.545532,1638
819.664124,1597
819.782715,1566
819.901306,1577
820.019897,1555
820.138489,1577
820.25708,1563
820.375671,1614
820.494202,1521
820.612732,1548
820.731384,1545
820.849915,1515
820.968506,1523
821.087097,1481
821.205627,1579
821.324158,1532
821.442749,1568
821.561279,1499
821.679871,1485
821.798401,1548
821.916931,1450
822.035461,1461
822.154053,1493
822.272583,1464
822.391174,1465
822.509583,1482
822.628174,1485
822.746704,1435
822.865234,1478
822.983765,1521
823.102295,1516
823.220825,1487
823.339294,1473
823.457825,1487
823.576355,1511
823.694824,1537
823.813354,1503
823.931885,1491
824.050354,1515
824.168884,1513
824.287354,1497
824.405823,1540
824.524353,1528
824.642822,1487
824.761353,1528
824.879822,1504
824.998291,1488
825.116699,1499
825.235291,1472
825.353699,1460
825.472168,1476
825.590637,1478
825.709106,1501
825.827576,1482
825.946045,1403
826.064453,1481
826.182983,1436
826.301392,1448
826.4198,1435
826.53833,1442
826.656738,1404
826.775208,1443
826.893677,1432
827.012024,1428
827.130493,1419
827.248962,1406
827.36731,1457
827.485779,1390
827.604248,1414
827.722595,1342
827.841064,1340
827.959412,1389
828.077942,1405
828.196289,1395
828.314636,1422
828.433105,1359
828.551514,1368
828.669861,1388
828.78833,1354
828.906677,1338
829.025085,1399
829.143433,1397
829.261841,1415
829.38031,1384
829.498657,1364
829.617004,1347
829.735413,1395
829.85376,1385
829.972107,1419
830.090515,1356
830.208862,1369
830.327209,1384
830.445557,1361
830.563904,1342
830.682312,1380
830.800659,1348
830.919006,1409
831.037354,1353
831.155701,1392
831.274048,1385
831.392395,1343
831.51062,1353
831.629028,1386
831.747314,1368
831.865662,1328
831.984009,1355
832.102356,1379
832.220642,1340
832.338928,1375
832.457275,1382
832.575623,1353
832.693909,1356
832.812134,1389
832.930481,1399
833.048828,1367
833.167114,1351
833.2854,1350
833.403687,1345
833.521973,1373
833.640259,1335
833.758545,1397
833.876831,1384
833.995056,1387
834.113281,1385
834.231628,1379
834.349915,1350
834.468201,1382
834.586426,1386
834.704651,1376
834.822998,1410
834.941162,1365
835.059448,1392
835.177673,1383
835.295959,1361
835.414246,1390
835.53241,1332
835.650635,1347
835.768921,1415
835.887146,1391
836.005371,1387
836.123596,1399
836.241821,1418
836.360046,1412
836.478271,1437
836.596497,1386
836.714722,1450
836.832886,1481
836.95105,1441
837.069336,1473
837.1875,1469
837.305725,1473
837.423889,1472
837.542053,1478
837.660339,1486
837.778503,1444
837.896667,1453
838.014832,1449
838.132996,1427
838.25116,1464
838.369385,1423
838.487488,1475
838.605713,1499
838.723877,1465
838.84198,1411
838.960205,1449
839.078308,1414
839.196472,1445
839.314636,1455
839.4328,1433
839.550964,1451
839.669067,1425
839.787231,1448
839.905396,1459
840.023499,1442
840.141602,1396
840.259766,1378
840.377869,1447
840.495972,1432
840.614136,1412
840.732239,1369
840.850342,1419
840.968445,1421
841.086548,1409
841.204651,1396
841.322754,1382
841.440918,1418
841.55896,1384
841.677002,1408
841.795166,1379
841.913208,1365
842.031311,1378
842.149353,1385
842.267456,1387
842.385498,1357
842.503601,1344
842.621643,1359
842.739746,1421
842.857788,1351
842.97583,1326
843.093933,1340
843.211975,1360
843.330017,1301
843.44812,1351
843.566101,1356
843.684204,1352
843.802246,1374
843.920227,1354
844.038269,1358
844.156311,1346
844.274292,1389
844.392395,1336
844.510376,1341
844.628357,1341
844.74646,1343
844.864441,1345
844.982422,1359
845.100403,1390
845.218384,1336
845.336426,1360
845.454468,1366
845.572449,1385
845.69043,1322
845.808411,1327
845.926453,1316
846.044373,1355
846.162354,1360
846.280396,1316
846.398315,1350
846.516296,1319
846.634216,1316
846.752197,1322
846.870178,1348
846.988098,1328
847.106079,1359
847.22406,1340
847.34198,1330
847.4599,1361
847.577881,1338
847.695801,1339
847.813782,1342
847.931641,1341
848.049561,1372
848.167603,1336
848.285461,1343
848.403381,1358
848.521362,1374
848.639221,1387
848.75708,1327
848.875,1346
848.99292,1358
849.110901,1330
849.22876,1386
849.34668,1319
849.464539,1356
849.582458,1362
849.700317,1333
849.818176,1358
849.936096,1331
850.053955,1339
850.171875,1364
850.289673,1364
850.407593,1329
850.525452,1330
850.643311,1362
850.761169,1340
850.878967,1331
850.996887,1359
851.114746,1322
851.232544,1326
851.350403,1370
851.468262,1341
851.58606,1364
851.703979,1403
851.821777,1371
851.939636,1353
852.057434,1369
852.175232,1381
852.293091,1375
852.410889,1335
852.528687,1343
852.646545,1378
852.764343,1367
852.88208,1346
852.999939,1397
853.117676,1363
853.235535,1349
853.353271,1375
853.471069,1312
853.588928,1348
853.706604,1349
853.824402,1357
853.9422,1393
854.059998,1373
854.177734,1362
854.295532,1373
854.413269,1358
854.531006,1365
854.648804,1414
854.766541,1360
854.884277,1421
855.002014,1384
855.119751,1373
855.237549,1357
855.355225,1350
855.473022,1407
855.590698,1387
855.708435,1436
855.826172,1355
855.943848,1371
856.061646,1414
856.179321,1374
856.296997,1433
856.414795,1398
856.53241,1375
856.650085,1436
856.767822,1410
856.885559,1428
857.003174,1417
857.120911,1402
857.238586,1391
857.356201,1397
857.473938,1388
857.591614,1403
857.709351,1355
857.826965,1413
857.944641,1368
858.062317,1420
858.179993,1421
858.297668,1361
858.415283,1423
858.532959,1352
858.650574,1401
858.768188,1370
858.885803,1383
859.003479,1395
859.121094,1406
859.23877,1399
859.356384,1373
859.473999,1355
859.591675,1424
859.709229,1387
859.826843,1409
859.944458,1384
860.062012,1415
860.179626,1389
860.297302,1397
860.414856,1365
860.532471,1383
860.650024,1405
860.767639,1424
860.885193,1383
861.002808,1354
861.120361,1414
861.237976,1415
861.35553,1390
861.473022,1387
861.590698,1395
861.708191,1361
861.825745,1442
861.943298,1396
862.060852,1382
862.178406,1364
862.295959,1419
862.413513,1381
862.531006,1381
862.64856,1390
862.766113,1393
862.883667,1381
863.00116,1408
863.118713,1386
863.236206,1354
863.353699,1415
863.471252,1369
863.588745,1417
863.706177,1354
863.82373,1379
863.941162,1436
864.058716,1381
864.176208,1401
864.29364,1378
864.411194,1397
864.528687,1376
864.646118,1399
864.763611,1416
864.881042,1385
864.998535,1406
865.116028,1395
865.233459,1378
865.350891,1402
865.468384,1396
865.585754,1413
865.703308,1361
865.820679,1399
865.938171,1431
866.055542,1401
866.173035,1460
866.290466,1388
866.407837,1403
866.52533,1418
866.6427,1443
866.760071,1368
866.877563,1405
866.994934,1406
867.112305,1447
867.229736,1407
867.347107,1388
867.464539,1401
867.58197,1392
867.699341,1382
867.81665,1430
867.934082,1444
868.051453,1374
868.168823,1463
868.286194,1399
868.403564,1421
868.520935,1422
868.638306,1403
868.755676,1421
868.872986,1423
868.990295,1436
869.107727,1421
869.225037,1400
869.342346,1388
869.459717,1415
869.577026,1383
869.694336,1441
869.811707,1399
869.929016,1427
870.046326,1394
870.163635,1405
870.280945,1424
870.398254,1405
870.515564,1412
870.632812,1411
870.750183,1395
870.867432,1458
870.984741,1382
871.102051,1442
871.219299,1381
871.336609,1408
871.453918,1398
871.571106,1415
871.688416,1390
871.805664,1400
871.922852,1432
872.040222,1417
872.157471,1430
872.274719,1423
872.391968,1441
872.509155,1421
872.626465,1432
872.743652,1407
872.860962,1424
872.978149,1445
873.095337,1430
873.212646,1466
873.329834,1444
873.44696,1435
873.564209,1394
873.681396,1420
873.798645,1382
873.915894,1406
874.03302,1426
874.150208,1407
874.267456,1410
874.384583,1423
874.501831,1427
874.618958,1413
874.736145,1390
874.853333,1433
874.970459,1414
875.087646,1431
875.204834,1416
875.32196,1397
875.439148,1410
875.556274,1463
875.673401,1421
875.790527,1439
875.907715,1421
876.024841,1442
876.141968,1413
876.259094,1399
876.376282,1417
876.493347,1409
876.610474,1459
876.7276,1408
876.844727,1445
876.961853,1459
877.078918,1400
877.195984,1435
877.313171,1455
877.430237,1426
877.547302,1457
877.664368,1439
877.781433,1449
877.898499,1428
878.015625,1416
878.13269,1412
878.249695,1423
878.366821,1412
878.483887,1431
878.600952,1439
878.717957,1404
878.834961,1402
878.952087,1466
879.069092,1403
879.186157,1426
879.303162,1444
879.420227,1439
879.537231,1408
879.654236,1408
879.77124,1421
879.888306,1406
880.005249,1432
880.122314,1436
880.239319,1473
880.356323,1447
880.473328,1430
880.590271,1395
880.707275,1458
880.824341,1448
880.941284,1453
881.058228,1471
881.175232,1408
881.292236,1440
881.40918,1413
881.526123,1427
881.643066,1448
881.760071,1467
881.877014,1469
881.993958,1446
882.11084,1507
882.227783,1419
882.344727,1481
882.46167,1471
882.578613,1444
882.695618,1459
882.812439,1458
882.929382,1450
883.046326,1473
883.163208,1494
883.280151,1480
883.397034,1459
883.513916,1469
883.630798,1422
883.747742,1455
883.864563,1459
883.981506,1481
884.098389,1441
884.21521,1489
884.332153,1483
884.448975,1417
884.565796,1476
884.682678,1456
884.7995,1437
884.916443,1451
885.033264,1445
885.150085,1486
885.266968,1448
885.383789,1450
885.500671,1472
885.617493,1471
885.734314,1435
885.851196,1450
885.967896,1465
886.084717,1453
886.201599,1481
886.318359,1478
886.435181,1423
886.552002,1472
886.668762,1483
886.785645,1492
886.902344,1488
887.019165,1468
887.135925,1472
887.252747,1489
887.369446,1496
887.486267,1495
887.603027,1461
887.719788,1471
887.836548,1465
887.953247,1434
888.070068,1487
888.186829,1453
888.303528,1496
888.420288,1499
888.536987,1458
888.653687,1460
888.770447,1481
888.887146,1511
889.003967,1466
889.120667,1493
889.237305,1469
889.354065,1467
889.470703,1466
889.587463,1498
889.704163,1510
889.820862,1459
889.937561,1514
890.054199,1495
890.170837,1501
890.287598,1468
890.404236,1498
890.520874,1502
890.637634,1509
890.754211,1530
890.87085,1504
890.987549,1509
891.104187,1471
891.220886,1488
891.337463,1478
891.454102,1529
891.57074,1500
891.687378,1481
891.804077,1538
891.920654,1513
892.037231,1456
892.15387,1508
892.270447,1524
892.387085,1499
892.503723,1528
892.6203,1503
892.736877,1488
892.853516,1500
892.970032,1532
893.08667,1466
893.203186,2915
893.319763,2794
893.43634,1975
893.552917,1521
893.669556,1560
893.786011,1495
893.902588,1503
894.019165,1522
894.135681,1527
894.252197,1512
894.368835,1533
894.485291,1528
894.601868,1525
894.718384,1510
894.8349,1545
894.951355,1493
895.067932,1523
895.184448,1540
895.300964,1537
895.417419,1520
895.533936,1566
895.650452,1526
895.766907,1542
895.883423,1491
895.999878,1530
896.116333,1513
896.232849,1518
896.349304,1484
896.465759,1525
896.582214,1531
896.698669,1536
896.815125,1529
896.931641,1517
897.048035,1503
897.164551,1540
897.280884,1486
897.397339,1528
897.513794,1529
897.630249,1533
897.746582,1497
897.863098,1569
897.979431,1534
898.095886,1530
898.212341,1537
898.328674,1557
898.445129,1567
898.561462,1555
898.677795,1546
898.794312,1562
898.910645,1521
899.026978,1519
899.143433,1504
899.259766,1551
899.37616,1537
899.492493,1550
899.608765,1565
899.725159,1562
899.841553,1494
899.957947,1562
900.07428,1557
900.190552,1524
900.306946,1526
900.423157,1577
900.53949,1585
900.655884,1565
900.772156,1527
900.888489,1548
901.004822,1516
901.121033,1562
901.237366,1517
901.353699,1554
901.46991,1500
901.586304,1574
901.702515,1506
901.818787,1531
901.93512,1541
902.051331,1523
902.167603,1540
902.283875,1516
902.400085,1550
902.516418,1527
902.632629,1484
902.74884,1538
902.865112,1563
902.981384,1577
903.097595,1557
903.213867,1564
903.330017,1517
903.446289,1590
903.5625,1536
903.67865,1566
903.794922,1571
903.911072,1553
904.027344,1573
904.143494,1539
904.259705,1585
904.375916,1533
904.492065,1540
904.608215,1519
904.724426,1578
904.840576,1542
904.956726,1580
905.072876,1568
905.189087,1548
905.305176,1599
905.421387,1564
905.537537,1573
905.653687,1537
905.769775,1575
905.885925,1606
906.002014,1562
906.118164,1586
906.234314,1585
906.350403,1610
906.466492,1590
906.582642,1538
906.69873,1594
906.814758,1550
906.930908,1557
907.046936,1565
907.163086,1541
907.279175,1615
907.395264,1595
907.511353,1571
907.62738,1583
907.743408,1602
907.859497,1589
907.975525,1574
908.091553,1614
908.207703,1582
908.32373,1581
908.439758,1635
908.555786,1543
908.671814,1528
908.787842,1553
908.90387,1575
909.019775,1583
909.135864,1548
909.251892,1565
909.367859,1560
909.483826,1586
909.599854,1549
909.715881,1614
909.831848,1586
909.947815,1603
910.063782,1582
910.179749,1556
910.295776,1582
910.411743,1593
910.527649,1554
910.643616,1613
910.759583,1598
910.875488,1595
910.991455,1617
911.107361,1618
911.223267,1596
911.339294,1647
911.4552,1588
911.571106,1562
911.687073,1631
911.802979,1554
911.918823,1585
912.034729,1606
912.150635,1597
912.266602,1606
912.382446,1617
912.498352,1564
912.614197,1600
912.730103,1578
912.846008,1566
792.44574,2209
792.56488,2143
792.68396,2190
792.80304,2153
792.92218,2134
793.041199,2106
793.160339,2129
793.279419,2077
793.398499,2130
793.517578,2038
793.636658,2075
793.755737,2068
793.874817,2079
793.993896,2073
794.112976,2056
794.232056,2014
794.351074,2021
794.470215,2038
794.589233,2058
794.708313,2010
794.827393,2026
794.946411,2051
795.065552,2065
795.18457,2001
795.303589,2043
795.422668,2014
795.541687,2022
795.660767,1969
795.779846,2026
795.898865,2032
796.017883,1991
796.136963,1928
796.255981,1956
796.375061,1993
796.49408,1957
796.613037,1954
796.732117,1910
796.851135,1961
796.970154,1979
797.089233,1915
797.208191,1919
797.327271,1944
797.446228,1949
797.565186,1939
797.684265,1943
797.803223,1965
797.922241,1917
798.04126,1942
798.160278,1901
798.279297,1968
798.398315,1902
798.517273,1933
798.636292,1975
798.75531,1939
798.874268,1944
798.993286,1942
799.112244,1939
799.231323,1982
799.350281,1966
799.469238,1942
799.588257,1937
799.707153,1942
799.826111,1955
799.945129,1901
800.064087,1973
800.183044,1888
800.302063,1980
800.421021,1985
800.539978,1970
800.658936,1938
800.777893,1915
800.896912,1935
801.015747,1930
801.134705,1949
801.253723,2003
801.37262,1961
801.491638,1963
801.610535,2015
801.729492,2000
801.84845,1945
801.967407,1976
802.086243,1989
802.205261,1984
802.324158,2019
802.443115,2012
802.562073,2043
802.680969,2015
802.799927,1997
802.918762,1998
803.037659,1985
803.156677,1992
803.275574,2038
803.39447,2064
803.513428,2063
803.632263,2066
803.751221,1992
803.870117,2060
803.989014,2041
804.107971,2033
804.226746,2103
804.345642,2084
804.4646,2066
804.583496,2063
804.702393,2080
804.821228,2050
804.940125,2072
805.059021,2077
805.177917,2114
805.296814,2087
805.415649,2053
805.534546,2086
805.653442,2085
805.772278,2074
805.891113,2161
806.01001,2216
806.128906,2118
806.247742,2092
806.366577,2113
806.485413,2140
806.604309,2116
806.723145,2161
806.84198,2114
806.960876,2171
807.079712,2182
807.198486,2159
807.317383,2160
807.436218,2151
807.554993,2151
807.673889,2193
807.792725,2135
807.91156,2092
808.030396,2152
808.14917,2166
808.268005,2153
808.386841,2167
808.505676,2160
808.624451,2111
808.743286,2184
808.862122,2196
808.980896,2193
809.099731,2236
809.218506,2252
809.337341,2192
809.456116,2116
809.57489,2227
809.693726,2217
809.8125,2206
809.931274,2223
810.050049,2207
810.168884,2221
810.287659,2191
810.406372,2178
810.525269,2186
810.643982,2202
810.762756,2194
810.881531,2165
811.000305,2230
811.11908,2274
811.237854,2250
811.356567,2140
811.475403,2251
811.594116,2236
811.71283,2231
811.831604,2277
811.950378,2240
812.069153,2175
812.187927,2224
812.30658,2249
812.425415,2206
812.544128,2244
812.662781,2177
812.781616,2198
812.900269,2240
813.019043,2269
813.137756,2260
813.256531,2236
813.375244,2208
813.493896,2268
813.612671,2262
813.731384,2301
813.850037,2228
813.96875,2213
814.087524,2158
814.206238,2216
814.324951,2181
814.443604,2221
814.562256,2202
814.68103,2191
814.799683,2238
814.918335,2146
815.037109,2171
815.155762,2195
815.274475,2167
815.393188,2203
815.511841,2111
815.630554,2141
815.749146,2184
815.867859,2124
815.986572,2122
816.105164,2086
816.223877,2139
816.342529,2122
816.461182,2169
816.579895,2120
816.698486,2139
816.817139,2145
816.935791,2199
817.054504,2162
817.173096,2127
817.291748,2096
817.4104,2140
817.529053,2116
817.647644,2039
817.766235,1992
817.884949,1965
818.00354,1934
818.122192,1907
818.240845,1841
818.359436,1813
818.478088,1832
818.59668,1778
818.715271,1761
818.833923,1734
818.952515,1706
819.071106,1674
819.189758,1637
819.30835,1669
819.426941,1634
819.545532,1648
819.664124,1576
819.782715,1599
819.901306,1545
820.019897,1540
820.138489,1586
820.25708,1580
820.375671,1570
820.494202,1552
820.612732,1553
820.731384,1532
820.849915,1539
820.968506,1556
821.087097,1546
821.205627,1502
821.324158,1576
821.442749,1521
821.561279,1498
821.679871,1493
821.798401,1533
821.916931,1466
822.035461,1513
822.154053,1505
822.272583,1497
822.391174,1511
822.509583,1493
822.628174,1520
822.746704,1496
822.865234,1507
822.983765,1485
823.102295,1511
823.220825,1477
823.339294,1543
823.457825,1475
823.576355,1484
823.694824,1475
823.813354,1510
823.931885,1470
824.050354,1513
824.168884,1528
824.287354,1528
824.405823,1483
824.524353,1557
824.642822,1534
824.761353,1534
824.879822,1488
824.998291,1479
825.116699,1467
825.235291,1513
825.353699,1530
825.472168,1506
825.590637,1499
825.709106,1442
825.827576,1459
825.946045,1472
826.064453,1447
826.182983,1481
826.301392,1471
826.4198,1443
826.53833,1410
826.656738,1434
826.775208,1423
826.893677,1420
827.012024,1368
827.130493,1440
827.248962,1430
827.36731,1371
827.485779,1438
827.604248,1398
827.722595,1439
827.841064,1429
827.959412,1415
828.077942,1408
828.196289,1383
828.314636,1453
828.433105,1391
828.551514,1393
828.669861,1364
828.78833,1354
828.906677,1364
829.025085,1376
829.143433,1377
829.261841,1381
829.38031,1415
829.498657,1387
829.617004,1370
829.735413,1430
829.85376,1346
829.972107,1386
830.090515,1356
830.208862,1400
830.327209,1364
830.445557,1349
830.563904,1391
830.682312,1403
830.800659,1372
830.919006,1380
831.037354,1381
831.155701,1395
831.274048,1399
831.392395,1346
831.51062,1363
831.629028,1381
831.747314,1365
831.865662,1380
831.984009,1363
832.102356,1363
832.220642,1371
832.338928,1428
832.457275,1340
832.575623,1387
832.693909,1344
832.812134,1390
832.930481,1389
833.048828,1384
833.167114,1390
833.2854,1395
833.403687,1397
833.521973,1376
833.640259,1388
833.758545,1381
833.876831,1350
833.995056,1417
834.113281,1374
834.231628,1358
834.349915,1362
834.468201,1393
834.586426,1364
834.704651,1402
834.822998,1381
834.941162,1379
835.059448,1391
835.177673,1398
835.295959,1351
835.414246,1444
835.53241,1408
835.650635,1362
835.768921,1412
835.887146,1367
836.005371,1395
836.123596,1380
836.241821,1365
836.360046,1431
836.478271,1421
836.596497,1483
836.714722,1420
836.832886,1436
836.95105,1452
837.069336,1474
837.1875,1442
837.305725,1471
837.423889,1462
837.542053,1470
837.660339,1485
837.778503,1417
837.896667,1476
838.014832,1480
838.132996,1490
838.25116,1450
838.369385,1476
838.487488,1482
838.605713,1438
838.723877,1517
838.84198,1467
838.960205,1497
839.078308,1414
839.196472,1409
839.314636,1443
839.4328,1462
839.550964,1429
839.669067,1425
839.787231,1439
839.905396,1438
840.023499,1445
840.141602,1400
840.259766,1424
840.377869,1445
840.495972,1379
840.614136,1444
840.732239,1393
840.850342,1445
840.968445,1422
841.086548,1426
841.204651,1427
841.322754,1444
841.440918,1390
841.55896,1392
841.677002,1410
841.795166,1374
841.913208,1416
842.031311,1374
842.149353,1356
842.267456,1376
842.385498,1367
842.503601,1351
842.621643,1381
842.739746,1345
842.857788,1353
842.97583,1377
843.093933,1360
843.211975,1386
843.330017,1367
843.44812,1385
843.566101,1370
843.684204,1321
843.802246,1329
843.920227,1362
844.038269,1354
844.156311,1379
844.274292,1340
844.392395,1348
844.510376,1379
844.628357,1341
844.74646,1345
844.864441,1360
844.982422,1359
845.100403,1371
845.218384,1323
845.336426,1368
845.454468,1376
845.572449,1347
845.69043,1372
845.808411,1318
845.926453,1376
846.044373,1345
846.162354,1322
846.280396,1400
846.398315,1337
846.516296,1391
846.634216,1336
846.752197,1399
846.870178,1356
846.988098,1365
847.106079,1345
847.22406,1371
847.34198,1366
847.4599,1377
847.577881,1337
847.695801,1348
847.813782,1370
847.931641,1333
848.049561,1331
848.167603,1358
848.285461,1354
848.403381,1334
848.521362,1374
848.639221,1369
848.75708,1328
848.875,1365
848.99292,1382
849.110901,1341
849.22876,1369
849.34668,1362
849.464539,1371
849.582458,1347
849.700317,1311
849.818176,1345
849.936096,1344
850.053955,1329
850.171875,1338
850.289673,1352
850.407593,1359
850.525452,1386
850.643311,1373
850.761169,1338
850.878967,1351
850.996887,1326
851.114746,1331
851.232544,1333
851.350403,1338
851.468262,1331
851.58606,1359
851.703979,1347
851.821777,1368
851.939636,1364
852.057434,1393
852.175232,1389
852.293091,1378
852.410889,1380
852.528687,1397
852.646545,1388
852.764343,1386
852.88208,1372
852.999939,1377
853.117676,1405
853.235535,1353
853.353271,1372
853.471069,1346
853.588928,1376
853.706604,1417
853.824402,1358
853.9422,1366
854.059998,1375
854.177734,1370
854.295532,1366
854.413269,1399
854.531006,1359
854.648804,1398
854.766541,1364
854.884277,1383
855.002014,1387
855.119751,1419
855.237549,1397
855.355225,1467
855.473022,1363
855.590698,1418
855.708435,1411
855.826172,1405
855.943848,1397
856.061646,1433
856.179321,1406
856.296997,1406
856.414795,1393
856.53241,1397
856.650085,1391
856.767822,1382
856.885559,1412
857.003174,1446
857.120911,1403
857.238586,1375
857.356201,1411
857.473938,1423
857.591614,1400
857.709351,1412
857.826965,1454
857.944641,1363
858.062317,1403
858.179993,1387
858.297668,1404
858.415283,1387
858.532959,1390
858.650574,1414
858.768188,1407
858.885803,1415
859.003479,1413
859.121094,1375
859.23877,1386
859.356384,1397
859.473999,1401
859.591675,1385
859.709229,1387
859.826843,1412
859.944458,1381
860.062012,1387
860.179626,1384
860.297302,1392
860.414856,1373
860.532471,1396
860.650024,1404
860.767639,1418
860.885193,1375
861.002808,1399
861.120361,1402
861.237976,1394
861.35553,1408
861.473022,1413
861.590698,1394
861.708191,1360
861.825745,1373
861.943298,1407
862.060852,1378
862.178406,1400
862.295959,1424
862.413513,1376
862.531006,1423
862.64856,1399
862.766113,1382
862.883667,1384
863.00116,1404
863.118713,1398
863.236206,1418
863.353699,1415
863.471252,1371
863.588745,1430
863.706177,1431
863.82373,1423
863.941162,1406
864.058716,1423
864.176208,1393
864.29364,1421
864.411194,1413
864.528687,1385
864.646118,1393
864.763611,1404
864.881042,1409
864.998535,1343
865.116028,1403
865.233459,1360
865.350891,1431
865.468384,1419
865.585754,1438
865.703308,1407
865.820679,1407
865.938171,1478
866.055542,1416
866.173035,1433
866.290466,1392
866.407837,1387
866.52533,1420
866.6427,1399
866.760071,1439
866.877563,1466
866.994934,1419
867.112305,1405
867.229736,1459
867.347107,1429
867.464539,1452
867.58197,1413
867.699341,1447
867.81665,1400
867.934082,1461
868.051453,1420
868.168823,1436
868.286194,1418
868.403564,1394
868.520935,1459
868.638306,1406
868.755676,1437
868.872986,1443
868.990295,1408
869.107727,1448
869.225037,1477
869.342346,1414
869.459717,1426
869.577026,1450
869.694336,1490
869.811707,1428
869.929016,1431
870.046326,1411
870.163635,1455
870.280945,1430
870.398254,1393
870.515564,1452
870.632812,1440
870.750183,1456
870.867432,1396
870.984741,1414
871.102051,1422
871.219299,1400
871.336609,1422
871.453918,1446
871.571106,1435
871.688416,1415
871.805664,1399
871.922852,1388
872.040222,1403
872.157471,1420
872.274719,1401
872.391968,1394
872.509155,1403
872.626465,1451
872.743652,1428
872.860962,1456
872.978149,1415
873.095337,1445
873.212646,1429
873.329834,1413
873.44696,1457
873.564209,1419
873.681396,1442
873.798645,1435
873.915894,1440
874.03302,1435
874.150208,1453
874.267456,1358
874.384583,1440
874.501831,1417
874.618958,1443
874.736145,1451
874.853333,1431
874.970459,1426
875.087646,1422
875.204834,1453
875.32196,1393
875.439148,1420
875.556274,1435
875.673401,1430
875.790527,1448
875.907715,1451
876.024841,1409
876.141968,1460
876.259094,1417
876.376282,1470
876.493347,1445
876.610474,1441
876.7276,1455
876.844727,1445
876.961853,1472
877.078918,1429
877.195984,1448
877.313171,1467
877.430237,1435
877.547302,1433
877.664368,1438
877.781433,1448
877.898499,1465
878.015625,1454
878.13269,1467
878.249695,1431
878.366821,1467
878.483887,1431
878.600952,1446
878.717957,1477
878.834961,1432
878.952087,1477
879.069092,1426
879.186157,1438
879.303162,1430
879.420227,1468
879.537231,1412
879.654236,1462
879.77124,1407
879.888306,1445
880.005249,1440
880.122314,1438
880.239319,1434
880.356323,1432
880.473328,1439
880.590271,1433
880.707275,1443
880.824341,1447
880.941284,1413
881.058228,1471
881.175232,1489
881.292236,1418
881.40918,1419
881.526123,1461
881.643066,1443
881.760071,1478
881.877014,1433
881.993958,1476
882.11084,1462
882.227783,1435
882.344727,1476
882.46167,1471
882.578613,1451
882.695618,1459
882.812439,1483
882.929382,1465
883.046326,1440
883.163208,1490
883.280151,1433
883.397034,1446
883.513916,1509
883.630798,1471
883.747742,1444
883.864563,1482
883.981506,1496
884.098389,1479
884.21521,1441
884.332153,1472
884.448975,1461
884.565796,1485
884.682678,1438
884.7995,1472
884.916443,1487
885.033264,1508
885.150085,1472
885.266968,1496
885.383789,1457
885.500671,1467
885.617493,1497
885.734314,1441
885.851196,1442
885.967896,1469
886.084717,1521
886.201599,1520
886.318359,1532
886.435181,1560
886.552002,1524
886.668762,1490
886.785645,1462
886.902344,1495
887.019165,1478
887.135925,1484
887.252747,1461
887.369446,1506
887.486267,1458
887.603027,1473
887.719788,1461
887.836548,1524
887.953247,1489
888.070068,1492
888.186829,1491
888.303528,1463
888.420288,1493
888.536987,1456
888.653687,1534
888.770447,1500
888.887146,1511
889.003967,1507
889.120667,1479
889.237305,1498
889.354065,1484
889.470703,1523
889.587463,1523
889.704163,1504
889.820862,1470
889.937561,1479
890.054199,1490
890.170837,1503
890.287598,1464
890.404236,1480
890.520874,1504
890.637634,1506
890.754211,1547
890.87085,1504
890.987549,1502
891.104187,1523
891.220886,1536
891.337463,1502
891.454102,1533
891.57074,1528
891.687378,1496
891.804077,1501
891.920654,1545
892.037231,1541
892.15387,1520
892.270447,1515
892.387085,1482
892.503723,1545
892.6203,1521
892.736877,1524
892.853516,1517
892.970032,1531
893.08667,1502
893.203186,1487
893.319763,1565
893.43634,1492
893.552917,1501
893.669556,1501
893.786011,1499
893.902588,1560
894.019165,1546
894.135681,1556
894.252197,1527
894.368835,1504
894.485291,1532
894.601868,1516
894.718384,1560
894.8349,1513
894.951355,1591
895.067932,1571
895.184448,1516
895.300964,1537
895.417419,1546
895.533936,1531
895.650452,1507
895.766907,1540
895.883423,1536
895.999878,1569
896.116333,1534
896.232849,1550
896.349304,1527
896.465759,1541
896.582214,1553
896.698669,1562
896.815125,1525
896.931641,1560
897.048035,1544
897.164551,1569
897.280884,1541
897.397339,1538
897.513794,1532
897.630249,1537
897.746582,1572
897.863098,1481
897.979431,1535
898.095886,1532
898.212341,1506
898.328674,1547
898.445129,1539
898.561462,1568
898.677795,1557
898.794312,1518
898.910645,1514
899.026978,1547
899.143433,1536
899.259766,1518
899.37616,1565
899.492493,1579
899.608765,1551
899.725159,1581
899.841553,1520
899.957947,1556
900.07428,1555
900.190552,1564
900.306946,1575
900.423157,1588
900.53949,1561
900.655884,1580
900.772156,1499
900.888489,1550
901.004822,1577
901.121033,1551
901.237366,1576
901.353699,1569
901.46991,1516
901.586304,1596
901.702515,1531
901.818787,1523
901.93512,1548
902.051331,1549
902.167603,1563
902.283875,1574
902.400085,1587
902.516418,1574
902.632629,1527
902.74884,1553
902.865112,1542
902.981384,1615
903.097595,1627
903.213867,1547
903.330017,1557
903.446289,1565
903.5625,1596
903.67865,1585
903.794922,1545
903.911072,1597
904.027344,1618
904.143494,1557
904.259705,1576
904.375916,1546
904.492065,1567
904.608215,1601
904.724426,1604
904.840576,1590
904.956726,1583
905.072876,1582
905.189087,1578
905.305176,1622
905.421387,1595
905.537537,1580
905.653687,1574
905.769775,1627
905.885925,1623
906.002014,1561
906.118164,1540
906.234314,1539
906.350403,1613
906.466492,1599
906.582642,1578
906.69873,1586
906.814758,1597
906.930908,1586
907.046936,1571
907.163086,1602
907.279175,1537
907.395264,1605
907.511353,1565
907.62738,1596
907.743408,1613
907.859497,1629
907.975525,1574
908.091553,1624
908.207703,1561
908.32373,1589
908.439758,1607
908.555786,1614
908.671814,1599
908.787842,1583
908.90387,1614
909.019775,1598
909.135864,1562
909.251892,1578
909.367859,1580
909.483826,1602
909.599854,1574
909.715881,1621
909.831848,1611
909.947815,1654
910.063782,1605
910.179749,1537
910.295776,1553
910.411743,1584
910.527649,1608
910.643616,1585
910.759583,1577
910.875488,1596
910.991455,1623
911.107361,1610
911.223267,1591
911.339294,1580
911.4552,1610
911.571106,1607
911.687073,1576
911.802979,1612
911.918823,1622
912.034729,1586
912.150635,1602
912.266602,1621
912.382446,1615
912.498352,1586
912.614197,1588
912.730103,1606
912.846008,1575
