792.44574,1670
792.56488,1708
792.68396,1698
792.80304,1609
792.92218,1574
793.041199,1575
793.160339,1581
793.279419,1594
793.398499,1570
793.517578,1540
793.636658,1571
793.755737,1585
793.874817,1592
793.993896,1624
794.112976,1588
794.232056,1535
794.351074,1525
794.470215,1584
794.589233,1546
794.708313,1507
794.827393,1560
794.946411,1547
795.065552,1532
795.18457,1522
795.303589,1521
795.422668,1519
795.541687,1511
795.660767,1510
795.779846,1504
795.898865,1510
796.017883,1540
796.136963,1538
796.255981,1524
796.375061,1501
796.49408,1474
796.613037,1509
796.732117,1487
796.851135,1502
796.970154,1444
797.089233,1485
797.208191,1465
797.327271,1499
797.446228,1523
797.565186,1545
797.684265,1499
797.803223,1430
797.922241,1500
798.04126,1453
798.160278,1452
798.279297,1547
798.398315,1490
798.517273,1508
798.636292,1404
798.75531,1474
798.874268,1462
798.993286,1474
799.112244,1456
799.231323,1456
799.350281,1467
799.469238,1490
799.588257,1476
799.707153,1460
799.826111,1474
799.945129,1482
800.064087,1457
800.183044,1488
800.302063,1521
800.421021,1432
800.539978,1474
800.658936,1446
800.777893,1470
800.896912,1429
801.015747,1401
801.134705,1444
801.253723,1461
801.37262,1429
801.491638,1447
801.610535,1425
801.729492,1464
801.84845,1458
801.967407,1454
802.086243,1473
802.205261,1462
802.324158,1455
802.443115,1470
802.562073,1453
802.680969,1404
802.799927,1454
802.918762,1444
803.037659,1454
803.156677,1474
803.275574,1456
803.39447,1429
803.513428,1432
803.632263,1440
803.751221,1475
803.870117,1440
803.989014,1436
804.107971,1435
804.226746,1446
804.345642,1441
804.4646,1486
804.583496,1479
804.702393,1440
804.821228,1449
804.940125,1459
805.059021,1467
805.177917,1423
805.296814,1461
805.415649,1465
805.534546,1447
805.653442,1461
805.772278,1479
805.891113,1425
806.01001,1459
806.128906,1455
806.247742,1445
806.366577,1432
806.485413,1453
806.604309,1430
806.723145,1441
806.84198,1466
806.960876,1443
807.079712,1416
807.198486,1428
807.317383,1391
807.436218,1465
807.554993,1450
807.673889,1401
807.792725,1363
807.91156,1436
808.030396,1433
808.14917,1412
808.268005,1444
808.386841,1450
808.505676,1443
808.624451,1437
808.743286,1472
808.862122,1401
808.980896,1422
809.099731,1438
809.218506,1456
809.337341,1376
809.456116,1397
809.57489,1424
809.693726,1408
809.8125,1461
809.931274,1441
810.050049,1444
810.168884,1453
810.287659,1469
810.406372,1466
810.525269,1442
810.643982,1415
810.762756,1473
810.881531,1401
811.000305,1410
811.11908,1400
811.237854,1406
811.356567,1402
811.475403,1437
811.594116,1396
811.71283,1414
811.831604,1422
811.950378,1423
812.069153,1464
812.187927,1478
812.30658,1414
812.425415,1426
812.544128,1437
812.662781,1370
812.781616,1442
812.900269,1413
813.019043,1436
813.137756,1433
813.256531,1467
813.375244,1398
813.493896,1402
813.612671,1443
813.731384,1373
813.850037,1433
813.96875,1426
814.087524,1439
814.206238,1442
814.324951,1440
814.443604,1372
814.562256,1399
814.68103,1373
814.799683,1405
814.918335,1432
815.037109,1370
815.155762,1413
815.274475,1408
815.393188,1355
815.511841,1444
815.630554,1394
815.749146,1426
815.867859,1372
815.986572,1389
816.105164,1401
816.223877,1396
816.342529,1371
816.461182,1391
816.579895,1380
816.698486,1409
816.817139,1366
816.935791,1393
817.054504,1385
817.173096,1377
817.291748,1342
817.4104,1405
817.529053,1411
817.647644,1421
817.766235,1341
817.884949,1378
818.00354,1387
818.122192,1364
818.240845,1371
818.359436,1358
818.478088,1397
818.59668,1367
818.715271,1335
818.833923,1362
818.952515,1357
819.071106,1407
819.189758,1335
819.30835,1351
819.426941,1350
819.545532,1381
819.664124,1370
819.782715,1342
819.901306,1387
820.019897,1345
820.138489,1380
820.25708,1340
820.375671,1340
820.494202,1313
820.612732,1362
820.731384,1335
820.849915,1325
820.968506,1329
821.087097,1328
821.205627,1332
821.324158,1325
821.442749,1355
821.561279,1329
821.679871,1341
821.798401,1327
821.916931,1358
822.035461,1321
822.154053,1336
822.272583,1350
822.391174,1326
822.509583,1318
822.628174,1321
822.746704,1315
822.865234,1330
822.983765,1311
823.102295,1297
823.220825,1296
823.339294,1300
823.457825,1350
823.576355,1334
823.694824,1315
823.813354,1276
823.931885,1309
824.050354,1351
824.168884,1310
824.287354,1329
824.405823,1313
824.524353,1363
824.642822,1296
824.761353,1309
824.879822,1323
824.998291,1321
825.116699,1253
825.235291,1275
825.353699,1292
825.472168,1326
825.590637,1329
825.709106,1321
825.827576,1361
825.946045,1298
826.064453,1279
826.182983,1300
826.301392,1295
826.4198,1310
826.53833,1263
826.656738,1291
826.775208,1290
826.893677,1311
827.012024,1293
827.130493,1309
827.248962,1285
827.36731,1263
827.485779,1287
827.604248,1285
827.722595,1297
827.841064,1296
827.959412,1303
828.077942,1261
828.196289,1272
828.314636,1273
828.433105,1295
828.551514,1257
828.669861,1309
828.78833,1250
828.906677,1274
829.025085,1318
829.143433,1267
829.261841,1307
829.38031,1305
829.498657,1269
829.617004,1273
829.735413,1302
829.85376,1266
829.972107,1325
830.090515,1283
830.208862,1314
830.327209,1259
830.445557,1274
830.563904,1268
830.682312,1302
830.800659,1307
830.919006,1263
831.037354,1240
831.155701,1287
831.274048,1284
831.392395,1284
831.51062,1263
831.629028,1271
831.747314,1290
831.865662,1266
831.984009,1288
832.102356,1294
832.220642,1267
832.338928,1275
832.457275,1289
832.575623,1296
832.693909,1279
832.812134,1295
832.930481,1278
833.048828,1302
833.167114,1295
833.2854,1280
833.403687,1315
833.521973,1270
833.640259,1294
833.758545,1263
833.876831,1250
833.995056,1279
834.113281,1292
834.231628,1270
834.349915,1255
834.468201,1266
834.586426,1264
834.704651,1270
834.822998,1275
834.941162,1287
835.059448,1254
835.177673,1297
835.295959,1275
835.414246,1314
835.53241,1278
835.650635,1267
835.768921,1292
835.887146,1252
836.005371,1283
836.123596,1281
836.241821,1273
836.360046,1317
836.478271,1289
836.596497,1242
836.714722,1286
836.832886,1271
836.95105,1296
837.069336,1275
837.1875,1286
837.305725,1274
837.423889,1286
837.542053,1282
837.660339,1289
837.778503,1314
837.896667,1264
838.014832,1302
838.132996,1246
838.25116,1266
838.369385,1268
838.487488,1273
838.605713,1299
838.723877,1286
838.84198,1319
838.960205,1237
839.078308,1265
839.196472,1284
839.314636,1274
839.4328,1282
839.550964,1287
839.669067,1296
839.787231,1231
839.905396,1286
840.023499,1303
840.141602,1289
840.259766,1220
840.377869,1234
840.495972,1300
840.614136,1289
840.732239,1251
840.850342,1224
840.968445,1259
841.086548,1254
841.204651,1287
841.322754,1273
841.440918,1304
841.55896,1286
841.677002,1279
841.795166,1295
841.913208,1285
842.031311,1299
842.149353,1270
842.267456,1229
842.385498,1254
842.503601,1272
842.621643,1268
842.739746,1265
842.857788,1299
842.97583,1250
843.093933,1287
843.211975,1273
843.330017,1275
843.44812,1292
843.566101,1271
843.684204,1257
843.802246,1291
843.920227,1215
844.038269,1290
844.156311,1293
844.274292,1308
844.392395,1285
844.510376,1258
844.628357,1252
844.74646,1271
844.864441,1294
844.982422,1272
845.100403,1294
845.218384,1267
845.336426,1278
845.454468,1289
845.572449,1217
845.69043,1251
845.808411,1303
845.926453,1276
846.044373,1283
846.162354,1282
846.280396,1282
846.398315,1283
846.516296,1283
846.634216,1232
846.752197,1277
846.870178,1267
846.988098,1262
847.106079,1286
847.22406,1278
847.34198,1287
847.4599,1279
847.577881,1291
847.695801,1261
847.813782,1259
847.931641,1293
848.049561,1265
848.167603,1257
848.285461,1306
848.403381,1267
848.521362,1283
848.639221,1267
848.75708,1266
848.875,1277
848.99292,1296
849.110901,1269
849.22876,1263
849.34668,1255
849.464539,1263
849.582458,1244
849.700317,1308
849.818176,1304
849.936096,1303
850.053955,1278
850.171875,1236
850.289673,1290
850.407593,1271
850.525452,1282
850.643311,1306
850.761169,1267
850.878967,1267
850.996887,1315
851.114746,1272
851.232544,1316
851.350403,1269
851.468262,1249
851.58606,1286
851.703979,1311
851.821777,1274
851.939636,1254
852.057434,1276
852.175232,1295
852.293091,1326
852.410889,1264
852.528687,1232
852.646545,1267
852.764343,1290
852.88208,1279
852.999939,1261
853.117676,1288
853.235535,1301
853.353271,1260
853.471069,1295
853.588928,1305
853.706604,1297
853.824402,1285
853.9422,1246
854.059998,1282
854.177734,1252
854.295532,1252
854.413269,1281
854.531006,1245
854.648804,1248
854.766541,1271
854.884277,1273
855.002014,1289
855.119751,1304
855.237549,1274
855.355225,1308
855.473022,1295
855.590698,1294
855.708435,1256
855.826172,1296
855.943848,1300
856.061646,1281
856.179321,1267
856.296997,1290
856.414795,1283
856.53241,1273
856.650085,1291
856.767822,1302
856.885559,1295
857.003174,1267
857.120911,1247
857.238586,1293
857.356201,1286
857.473938,1282
857.591614,1305
857.709351,1262
857.826965,1291
857.944641,1266
858.062317,1293
858.179993,1266
858.297668,1283
858.415283,1311
858.532959,1288
858.650574,1294
858.768188,1296
858.885803,1278
859.003479,1272
859.121094,1266
859.23877,1306
859.356384,1298
859.473999,1280
859.591675,1252
859.709229,1275
859.826843,1272
859.944458,1273
860.062012,1322
860.179626,1269
860.297302,1243
860.414856,1290
860.532471,1283
860.650024,1276
860.767639,1285
860.885193,1266
861.002808,1251
861.120361,1295
861.237976,1248
861.35553,1316
861.473022,1282
861.590698,1275
861.708191,1269
861.825745,1268
861.943298,1284
862.060852,1297
862.178406,1276
862.295959,1261
862.413513,1287
862.531006,1308
862.64856,1212
862.766113,1300
862.883667,1281
863.00116,1273
863.118713,1248
863.236206,1284
863.353699,1240
863.471252,1306
863.588745,1281
863.706177,1270
863.82373,1256
863.941162,1265
864.058716,1294
864.176208,1276
864.29364,1244
864.411194,1285
864.528687,1268
864.646118,1300
864.763611,1252
864.881042,1299
864.998535,1337
865.116028,1261
865.233459,1282
865.350891,1272
865.468384,1255
865.585754,1302
865.703308,1270
865.820679,1269
865.938171,1282
866.055542,1296
866.173035,1301
866.290466,1279
866.407837,1288
866.52533,1314
866.6427,1291
866.760071,1268
866.877563,1282
866.994934,1273
867.112305,1317
867.229736,1233
867.347107,1276
867.464539,1270
867.58197,1257
867.699341,1311
867.81665,1302
867.934082,1315
868.051453,1265
868.168823,1266
868.286194,1322
868.403564,1271
868.520935,1292
868.638306,1280
868.755676,1284
868.872986,1289
868.990295,1293
869.107727,1318
869.225037,1281
869.342346,1310
869.459717,1289
869.577026,1293
869.694336,1278
869.811707,1292
869.929016,1261
870.046326,1274
870.163635,1325
870.280945,1280
870.398254,1286
870.515564,1307
870.632812,1321
870.750183,1270
870.867432,1299
870.984741,1283
871.102051,1269
871.219299,1290
871.336609,1311
871.453918,1305
871.571106,1330
871.688416,1305
871.805664,1290
871.922852,1271
872.040222,1289
872.157471,1298
872.274719,1290
872.391968,1304
872.509155,1299
872.626465,1298
872.743652,1297
872.860962,1336
872.978149,1299
873.095337,1286
873.212646,1279
873.329834,1286
873.44696,1296
873.564209,1259
873.681396,1308
873.798645,1249
873.915894,1295
874.03302,1318
874.150208,1326
874.267456,1330
874.384583,1286
874.501831,1289
874.618958,1287
874.736145,1291
874.853333,1343
874.970459,1303
875.087646,1325
875.204834,1269
875.32196,1304
875.439148,1282
875.556274,1312
875.673401,1304
875.790527,1285
875.907715,1313
876.024841,1304
876.141968,1274
876.259094,1300
876.376282,1313
876.493347,1292
876.610474,1336
876.7276,1264
876.844727,1329
876.961853,1329
877.078918,1320
877.195984,1297
877.313171,1319
877.430237,1333
877.547302,1241
877.664368,1307
877.781433,1301
877.898499,1318
878.015625,1366
878.13269,1275
878.249695,1294
878.366821,1306
878.483887,1293
878.600952,1320
878.717957,1297
878.834961,1292
878.952087,1300
879.069092,1292
879.186157,1291
879.303162,1309
879.420227,1270
879.537231,1329
879.654236,1311
879.77124,1298
879.888306,1318
880.005249,1310
880.122314,1288
880.239319,1299
880.356323,1324
880.473328,1275
880.590271,1297
880.707275,1330
880.824341,1315
880.941284,1288
881.058228,1276
881.175232,1317
881.292236,1322
881.40918,1297
881.526123,1279
881.643066,1337
881.760071,1280
881.877014,1271
881.993958,1292
882.11084,1303
882.227783,1353
882.344727,1275
882.46167,1288
882.578613,1309
882.695618,1312
882.812439,1316
882.929382,1258
883.046326,1306
883.163208,1307
883.280151,1271
883.397034,1283
883.513916,1300
883.630798,1317
883.747742,1348
883.864563,1291
883.981506,1294
884.098389,1310
884.21521,1291
884.332153,1298
884.448975,1338
884.565796,1297
884.682678,1320
884.7995,1354
884.916443,1339
885.033264,1357
885.150085,1348
885.266968,1305
885.383789,1351
885.500671,1335
885.617493,1361
885.734314,1338
885.851196,1330
885.967896,1324
886.084717,1359
886.201599,1355
886.318359,1330
886.435181,1349
886.552002,1313
886.668762,1324
886.785645,1354
886.902344,1331
887.019165,1321
887.135925,1360
887.252747,1345
887.369446,1312
887.486267,1308
887.603027,1375
887.719788,1298
887.836548,1329
887.953247,1310
888.070068,1306
888.186829,1354
888.303528,1369
888.420288,1343
888.536987,1316
888.653687,1374
888.770447,1336
888.887146,1331
889.003967,1318
889.120667,1329
889.237305,1320
889.354065,1317
889.470703,1333
889.587463,1331
889.704163,1351
889.820862,1342
889.937561,1322
890.054199,1309
890.170837,1334
890.287598,1341
890.404236,1332
890.520874,1323
890.637634,1353
890.754211,1333
890.87085,1331
890.987549,1317
891.104187,1373
891.220886,1328
891.337463,1340
891.454102,1322
891.57074,1382
891.687378,1332
891.804077,1345
891.920654,1320
892.037231,1333
892.15387,1327
892.270447,1345
892.387085,1308
892.503723,1336
892.6203,1327
892.736877,1327
892.853516,1346
892.970032,1305
893.08667,1341
893.203186,1333
893.319763,1325
893.43634,1344
893.552917,1346
893.669556,1364
893.786011,1359
893.902588,1326
894.019165,1364
894.135681,1338
894.252197,1344
894.368835,1330
894.485291,1340
894.601868,1336
894.718384,1358
894.8349,1368
894.951355,1303
895.067932,1359
895.184448,1324
895.300964,1348
895.417419,1325
895.533936,1377
895.650452,1346
895.766907,1331
895.883423,1355
895.999878,1359
896.116333,1350
896.232849,1351
896.349304,1362
896.465759,1365
896.582214,1322
896.698669,1303
896.815125,1350
896.931641,1347
897.048035,1378
897.164551,1365
897.280884,1338
897.397339,1349
897.513794,1379
897.630249,1371
897.746582,1340
897.863098,1324
897.979431,1336
898.095886,1332
898.212341,1304
898.328674,1346
898.445129,1335
898.561462,1343
898.677795,1367
898.794312,1299
898.910645,1365
899.026978,1360
899.143433,1373
899.259766,1325
899.37616,1338
899.492493,1357
899.608765,1328
899.725159,1327
899.841553,1357
899.957947,1392
900.07428,1382
900.190552,1384
900.306946,1350
900.423157,1328
900.53949,1390
900.655884,1315
900.772156,1380
900.888489,1330
901.004822,1370
901.121033,1321
901.237366,1334
901.353699,1365
901.46991,1368
901.586304,1366
901.702515,1350
901.818787,1395
901.93512,1385
902.051331,1394
902.167603,1386
902.283875,1348
902.400085,1360
902.516418,1372
902.632629,1369
902.74884,1400
902.865112,1364
902.981384,1387
903.097595,1317
903.213867,1391
903.330017,1343
903.446289,1376
903.5625,1375
903.67865,1349
903.794922,1369
903.911072,1377
904.027344,1373
904.143494,1377
904.259705,1397
904.375916,1372
904.492065,1378
904.608215,1376
904.724426,1374
904.840576,1378
904.956726,1343
905.072876,1392
905.189087,1387
905.305176,1413
905.421387,1369
905.537537,1373
905.653687,1360
905.769775,1360
905.885925,1351
906.002014,1397
906.118164,1390
906.234314,1347
906.350403,1395
906.466492,1405
906.582642,1343
906.69873,1381
906.814758,1394
906.930908,1388
907.046936,1363
907.163086,1363
907.279175,1379
907.395264,1385
907.511353,1346
907.62738,1368
907.743408,1380
907.859497,1422
907.975525,1361
908.091553,1380
908.207703,1417
908.32373,1341
908.439758,1413
908.555786,1428
908.671814,1367
908.787842,1385
908.90387,1421
909.019775,1392
909.135864,1355
909.251892,1367
909.367859,1385
909.483826,1404
909.599854,1383
909.715881,1369
909.831848,1373
909.947815,1389
910.063782,1365
910.179749,1387
910.295776,1393
910.411743,1383
910.527649,1376
910.643616,1380
910.759583,1439
910.875488,1370
910.991455,1392
911.107361,1372
911.223267,1412
911.339294,1365
911.4552,1417
911.571106,1376
911.687073,1402
911.802979,1400
911.918823,1400
912.034729,1365
912.150635,1354
912.266602,1430
912.382446,1366
912.498352,1395
912.614197,1368
912.730103,1376
912.846008,1365
792.44574,1720
792.56488,1735
792.68396,1724
792.80304,1685
792.92218,1623
793.041199,1597
793.160339,1632
793.279419,1632
793.398499,1616
793.517578,1594
793.636658,1591
793.755737,1609
793.874817,1609
793.993896,1652
794.112976,1607
794.232056,1588
794.351074,1600
794.470215,1562
794.589233,1573
794.708313,1545
794.827393,1580
794.946411,1587
795.065552,1599
795.18457,1565
795.303589,1541
795.422668,1586
795.541687,1581
795.660767,1550
795.779846,1526
795.898865,1570
796.017883,1534
796.136963,1513
796.255981,1550
796.375061,1554
796.49408,1540
796.613037,1516
796.732117,1546
796.851135,1525
796.970154,1547
797.089233,1515
797.208191,1556
797.327271,1539
797.446228,1497
797.565186,1503
797.684265,1482
797.803223,1532
797.922241,1538
798.04126,1523
798.160278,1497
798.279297,1525
798.398315,1493
798.517273,1484
798.636292,1489
798.75531,1566
798.874268,1523
798.993286,1498
799.112244,1503
799.231323,1535
799.350281,1494
799.469238,1502
799.588257,1523
799.707153,1499
799.826111,1545
799.945129,1489
800.064087,1495
800.183044,1524
800.302063,1534
800.421021,1491
800.539978,1498
800.658936,1511
800.777893,1494
800.896912,1481
801.015747,1475
801.134705,1478
801.253723,1491
801.37262,1449
801.491638,1482
801.610535,1487
801.729492,1434
801.84845,1495
801.967407,1462
802.086243,1475
802.205261,1461
802.324158,1514
802.443115,1454
802.562073,1448
802.680969,1503
802.799927,1476
802.918762,1465
803.037659,1458
803.156677,1458
803.275574,1464
803.39447,1497
803.513428,1522
803.632263,1481
803.751221,1469
803.870117,1453
803.989014,1471
804.107971,1491
804.226746,1432
804.345642,1497
804.4646,1496
804.583496,1510
804.702393,1452
804.821228,1459
804.940125,1486
805.059021,1500
805.177917,1430
805.296814,1455
805.415649,1461
805.534546,1497
805.653442,1446
805.772278,1498
805.891113,1491
806.01001,1482
806.128906,1477
806.247742,1444
806.366577,1475
806.485413,1487
806.604309,1481
806.723145,1489
806.84198,1497
806.960876,1491
807.079712,1476
807.198486,1482
807.317383,1455
807.436218,1457
807.554993,1477
807.673889,1464
807.792725,1452
807.91156,1519
808.030396,1449
808.14917,1477
808.268005,1481
808.386841,1500
808.505676,1491
808.624451,1485
808.743286,1481
808.862122,1441
808.980896,1452
809.099731,1451
809.218506,1460
809.337341,1473
809.456116,1414
809.57489,1527
809.693726,1466
809.8125,1444
809.931274,1482
810.050049,1441
810.168884,1450
810.287659,1470
810.406372,1425
810.525269,1478
810.643982,1493
810.762756,1481
810.881531,1462
811.000305,1457
811.11908,1441
811.237854,1436
811.356567,1501
811.475403,1445
811.594116,1478
811.71283,1476
811.831604,1456
811.950378,1448
812.069153,1486
812.187927,1434
812.30658,1440
812.425415,1485
812.544128,1494
812.662781,1445
812.781616,1447
812.900269,1481
813.019043,1448
813.137756,1428
813.256531,1504
813.375244,1443
813.493896,1473
813.612671,1458
813.731384,1479
813.850037,1443
813.96875,1417
814.087524,1475
814.206238,1411
814.324951,1448
814.443604,1427
814.562256,1475
814.68103,1419
814.799683,1458
814.918335,1441
815.037109,1418
815.155762,1487
815.274475,1422
815.393188,1483
815.511841,1454
815.630554,1431
815.749146,1399
815.867859,1419
815.986572,1470
816.105164,1440
816.223877,1444
816.342529,1403
816.461182,1430
816.579895,1421
816.698486,1433
816.817139,1375
816.935791,1458
817.054504,1400
817.173096,1451
817.291748,1413
817.4104,1453
817.529053,1449
817.647644,1430
817.766235,1407
817.884949,1411
818.00354,1398
818.122192,1383
818.240845,1383
818.359436,1408
818.478088,1398
818.59668,1430
818.715271,1446
818.833923,1386
818.952515,1365
819.071106,1411
819.189758,1376
819.30835,1399
819.426941,1397
819.545532,1374
819.664124,1388
819.782715,1368
819.901306,1374
820.019897,1374
820.138489,1359
820.25708,1381
820.375671,1361
820.494202,1345
820.612732,1349
820.731384,1398
820.849915,1370
820.968506,1375
821.087097,1412
821.205627,1342
821.324158,1395
821.442749,1391
821.561279,1363
821.679871,1322
821.798401,1380
821.916931,1317
822.035461,1347
822.154053,1350
822.272583,1318
822.391174,1359
822.509583,1371
822.628174,1342
822.746704,1332
822.865234,1366
822.983765,1390
823.102295,1327
823.220825,1365
823.339294,1332
823.457825,1368
823.576355,1335
823.694824,1351
823.813354,1357
823.931885,1311
824.050354,1356
824.168884,1396
824.287354,1356
824.405823,1351
824.524353,1339
824.642822,1373
824.761353,1356
824.879822,1345
824.998291,1370
825.116699,1328
825.235291,1346
825.353699,1367
825.472168,1310
825.590637,1326
825.709106,1330
825.827576,1380
825.946045,1333
826.064453,1334
826.182983,1338
826.301392,1332
826.4198,1316
826.53833,1334
826.656738,1299
826.775208,1358
826.893677,1326
827.012024,1351
827.130493,1298
827.248962,1310
827.36731,1294
827.485779,1332
827.604248,1340
827.722595,1327
827.841064,1333
827.959412,1341
828.077942,1300
828.196289,1325
828.314636,1279
828.433105,1322
828.551514,1338
828.669861,1295
828.78833,1289
828.906677,1287
829.025085,1317
829.143433,1294
829.261841,1282
829.38031,1342
829.498657,1281
829.617004,1322
829.735413,1306
829.85376,1302
829.972107,1301
830.090515,1298
830.208862,1304
830.327209,1317
830.445557,1317
830.563904,1359
830.682312,1335
830.800659,1269
830.919006,1299
831.037354,1319
831.155701,1318
831.274048,1293
831.392395,1321
831.51062,1283
831.629028,1307
831.747314,1327
831.865662,1359
831.984009,1359
832.102356,1273
832.220642,1345
832.338928,1309
832.457275,1328
832.575623,1235
832.693909,1338
832.812134,1278
832.930481,1298
833.048828,1319
833.167114,1292
833.2854,1321
833.403687,1287
833.521973,1279
833.640259,1286
833.758545,1322
833.876831,1317
833.995056,1341
834.113281,1322
834.231628,1278
834.349915,1322
834.468201,1277
834.586426,1310
834.704651,1312
834.822998,1330
834.941162,1268
835.059448,1321
835.177673,1282
835.295959,1309
835.414246,1284
835.53241,1273
835.650635,1305
835.768921,1341
835.887146,1312
836.005371,1303
836.123596,1331
836.241821,1309
836.360046,1338
836.478271,1289
836.596497,1315
836.714722,1297
836.832886,1359
836.95105,1291
837.069336,1340
837.1875,1348
837.305725,1356
837.423889,1278
837.542053,1292
837.660339,1321
837.778503,1328
837.896667,1314
838.014832,1294
838.132996,1304
838.25116,1298
838.369385,1308
838.487488,1283
838.605713,1326
838.723877,1306
838.84198,1343
838.960205,1298
839.078308,1285
839.196472,1267
839.314636,1323
839.4328,1305
839.550964,1300
839.669067,1278
839.787231,1308
839.905396,1290
840.023499,1352
840.141602,1316
840.259766,1317
840.377869,1307
840.495972,1286
840.614136,1328
840.732239,1323
840.850342,1310
840.968445,1302
841.086548,1284
841.204651,1290
841.322754,1340
841.440918,1308
841.55896,1318
841.677002,1286
841.795166,1282
841.913208,1305
842.031311,1303
842.149353,1323
842.267456,1293
842.385498,1295
842.503601,1290
842.621643,1299
842.739746,1295
842.857788,1292
842.97583,1296
843.093933,1316
843.211975,1278
843.330017,1297
843.44812,1338
843.566101,1315
843.684204,1265
843.802246,1320
843.920227,1323
844.038269,1300
844.156311,1285
844.274292,1319
844.392395,1286
844.510376,1329
844.628357,1321
844.74646,1331
844.864441,1301
844.982422,1319
845.100403,1306
845.218384,1329
845.336426,1296
845.454468,1288
845.572449,1272
845.69043,1304
845.808411,1302
845.926453,1327
846.044373,1266
846.162354,1275
846.280396,1304
846.398315,1294
846.516296,1320
846.634216,1275
846.752197,1293
846.870178,1316
846.988098,1282
847.106079,1282
847.22406,1229
847.34198,1269
847.4599,1278
847.577881,1293
847.695801,1313
847.813782,1294
847.931641,1287
848.049561,1315
848.167603,1266
848.285461,1293
848.403381,1282
848.521362,1333
848.639221,1323
848.75708,1300
848.875,1293
848.99292,1317
849.110901,1280
849.22876,1333
849.34668,1268
849.464539,1320
849.582458,1312
849.700317,1288
849.818176,1280
849.936096,1313
850.053955,1321
850.171875,1311
850.289673,1307
850.407593,1309
850.525452,1289
850.643311,1347
850.761169,1324
850.878967,1284
850.996887,1302
851.114746,1291
851.232544,1318
851.350403,1301
851.468262,1274
851.58606,1312
851.703979,1310
851.821777,1298
851.939636,1308
852.057434,1322
852.175232,1297
852.293091,1315
852.410889,1286
852.528687,1351
852.646545,1308
852.764343,1306
852.88208,1291
852.999939,1289
853.117676,1293
853.235535,1320
853.353271,1330
853.471069,1301
853.588928,1317
853.706604,1295
853.824402,1307
853.9422,1268
854.059998,1296
854.177734,1284
854.295532,1295
854.413269,1303
854.531006,1268
854.648804,1294
854.766541,1318
854.884277,1286
855.002014,1313
855.119751,1267
855.237549,1344
855.355225,1276
855.473022,1299
855.590698,1302
855.708435,1285
855.826172,1277
855.943848,1322
856.061646,1316
856.179321,1267
856.296997,1297
856.414795,1306
856.53241,1317
856.650085,1306
856.767822,1339
856.885559,1325
857.003174,1292
857.120911,1317
857.238586,1294
857.356201,1326
857.473938,1318
857.591614,1321
857.709351,1316
857.826965,1299
857.944641,1331
858.062317,1329
858.179993,1301
858.297668,1275
858.415283,1312
858.532959,1288
858.650574,1335
858.768188,1293
858.885803,1325
859.003479,1276
859.121094,1274
859.23877,1348
859.356384,1324
859.473999,1271
859.591675,1282
859.709229,1319
859.826843,1334
859.944458,1309
860.062012,1320
860.179626,1327
860.297302,1315
860.414856,1328
860.532471,1278
860.650024,1298
860.767639,1332
860.885193,1337
861.002808,1315
861.120361,1321
861.237976,1301
861.35553,1308
861.473022,1315
861.590698,1338
861.708191,1328
861.825745,1321
861.943298,1309
862.060852,1301
862.178406,1294
862.295959,1280
862.413513,1277
862.531006,1311
862.64856,1333
862.766113,1294
862.883667,1298
863.00116,1294
863.118713,1286
863.236206,1330
863.353699,1282
863.471252,1287
863.588745,1299
863.706177,1326
863.82373,1300
863.941162,1265
864.058716,1321
864.176208,1275
864.29364,1311
864.411194,1288
864.528687,1317
864.646118,1354
864.763611,1287
864.881042,1324
864.998535,1254
865.116028,1303
865.233459,1331
865.350891,1252
865.468384,1315
865.585754,1335
865.703308,1328
865.820679,1282
865.938171,1294
866.055542,1273
866.173035,1290
866.290466,1291
866.407837,1290
866.52533,1303
866.6427,1355
866.760071,1304
866.877563,1307
866.994934,1277
867.112305,1303
867.229736,1323
867.347107,1342
867.464539,1316
867.58197,1314
867.699341,1320
867.81665,1322
867.934082,1300
868.051453,1296
868.168823,1320
868.286194,1310
868.403564,1306
868.520935,1299
868.638306,1292
868.755676,1304
868.872986,1342
868.990295,1287
869.107727,1333
869.225037,1322
869.342346,1273
869.459717,1331
869.577026,1319
869.694336,1331
869.811707,1317
869.929016,1322
870.046326,1324
870.163635,1327
870.280945,1315
870.398254,1334
870.515564,1354
870.632812,1316
870.750183,1356
870.867432,1316
870.984741,1329
871.102051,1324
871.219299,1333
871.336609,1333
871.453918,1329
871.571106,1320
871.688416,1347
871.805664,1316
871.922852,1338
872.040222,1301
872.157471,1293
872.274719,1312
872.391968,1303
872.509155,1351
872.626465,1318
872.743652,1313
872.860962,1334
872.978149,1358
873.095337,1297
873.212646,1296
873.329834,1316
873.44696,1349
873.564209,1321
873.681396,1308
873.798645,1317
873.915894,1346
874.03302,1280
874.150208,1309
874.267456,1358
874.384583,1309
874.501831,1343
874.618958,1318
874.736145,1329
874.853333,1329
874.970459,1349
875.087646,1298
875.204834,1326
875.32196,1326
875.439148,1330
875.556274,1294
875.673401,1359
875.790527,1284
875.907715,1361
876.024841,1340
876.141968,1344
876.259094,1310
876.376282,1302
876.493347,1325
876.610474,1359
876.7276,1328
876.844727,1322
876.961853,1337
877.078918,1365
877.195984,1295
877.313171,1308
877.430237,1298
877.547302,1332
877.664368,1322
877.781433,1310
877.898499,1310
878.015625,1323
878.13269,1306
878.249695,1328
878.366821,1311
878.483887,1345
878.600952,1341
878.717957,1324
878.834961,1330
878.952087,1376
879.069092,1353
879.186157,1336
879.303162,1334
879.420227,1371
879.537231,1341
879.654236,1337
879.77124,1309
879.888306,1319
880.005249,1367
880.122314,1332
880.239319,1344
880.356323,1361
880.473328,1335
880.590271,1331
880.707275,1329
880.824341,1306
880.941284,1284
881.058228,1286
881.175232,1299
881.292236,1341
881.40918,1335
881.526123,1329
881.643066,1357
881.760071,1327
881.877014,1321
881.993958,1360
882.11084,1372
882.227783,1314
882.344727,1311
882.46167,1335
882.578613,1286
882.695618,1327
882.812439,1355
882.929382,1297
883.046326,1338
883.163208,1320
883.280151,1389
883.397034,1325
883.513916,1395
883.630798,1336
883.747742,1314
883.864563,1332
883.981506,1352
884.098389,1351
884.21521,1332
884.332153,1359
884.448975,1348
884.565796,1376
884.682678,1304
884.7995,1360
884.916443,1352
885.033264,1338
885.150085,1366
885.266968,1351
885.383789,1383
885.500671,1356
885.617493,1363
885.734314,1367
885.851196,1380
885.967896,1383
886.084717,1364
886.201599,1359
886.318359,1346
886.435181,1378
886.552002,1368
886.668762,1361
886.785645,1365
886.902344,1380
887.019165,1376
887.135925,1335
887.252747,1334
887.369446,1382
887.486267,1367
887.603027,1374
887.719788,1324
887.836548,1350
887.953247,1330
888.070068,1362
888.186829,1346
888.303528,1347
888.420288,1339
888.536987,1359
888.653687,1393
888.770447,1363
888.887146,1345
889.003967,1354
889.120667,1332
889.237305,1403
889.354065,1344
889.470703,1379
889.587463,1358
889.704163,1394
889.820862,1364
889.937561,1354
890.054199,1348
890.170837,1359
890.287598,1365
890.404236,1359
890.520874,1330
890.637634,1375
890.754211,1382
890.87085,1364
890.987549,1336
891.104187,1386
891.220886,1361
891.337463,1320
891.454102,1424
891.57074,1381
891.687378,1360
891.804077,1348
891.920654,1356
892.037231,1389
892.15387,1383
892.270447,1369
892.387085,1394
892.503723,1360
892.6203,1312
892.736877,1379
892.853516,1380
892.970032,1351
893.08667,1389
893.203186,1386
893.319763,1333
893.43634,1368
893.552917,1355
893.669556,1333
893.786011,1333
893.902588,1353
894.019165,1377
894.135681,1354
894.252197,1392
894.368835,1433
894.485291,1377
894.601868,1369
894.718384,1428
894.8349,1352
894.951355,1391
895.067932,1436
895.184448,1350
895.300964,1382
895.417419,1342
895.533936,1364
895.650452,1411
895.766907,1351
895.883423,1370
895.999878,1365
896.116333,1390
896.232849,1369
896.349304,1393
896.465759,1364
896.582214,1379
896.698669,1404
896.815125,1358
896.931641,1369
897.048035,1356
897.164551,1366
897.280884,1428
897.397339,1393
897.513794,1368
897.630249,1397
897.746582,1420
897.863098,1357
897.979431,1404
898.095886,1381
898.212341,1387
898.328674,1393
898.445129,1343
898.561462,1362
898.677795,1365
898.794312,1444
898.910645,1398
899.026978,1370
899.143433,1398
899.259766,1396
899.37616,1396
899.492493,1374
899.608765,1380
899.725159,1410
899.841553,1405
899.957947,1384
900.07428,1363
900.190552,1384
900.306946,1423
900.423157,1391
900.53949,1404
900.655884,1356
900.772156,1427
900.888489,1396
901.004822,1370
901.121033,1390
901.237366,1399
901.353699,1407
901.46991,1398
901.586304,1368
901.702515,1421
901.818787,1390
901.93512,1374
902.051331,1423
902.167603,1406
902.283875,1398
902.400085,1387
902.516418,1400
902.632629,1406
902.74884,1444
902.865112,1444
902.981384,1424
903.097595,1390
903.213867,1430
903.330017,1427
903.446289,1461
903.5625,1412
903.67865,1415
903.794922,1376
903.911072,1396
904.027344,1405
904.143494,1435
904.259705,1427
904.375916,1417
904.492065,1403
904.608215,1391
904.724426,1402
904.840576,1413
904.956726,1406
905.072876,1402
905.189087,1429
905.305176,1401
905.421387,1389
905.537537,1409
905.653687,1404
905.769775,1396
905.885925,1395
906.002014,1376
906.118164,1410
906.234314,1424
906.350403,1400
906.466492,1418
906.582642,1383
906.69873,1435
906.814758,1443
906.930908,1446
907.046936,1398
907.163086,1428
907.279175,1367
907.395264,1415
907.511353,1353
907.62738,1393
907.743408,1446
907.859497,1451
907.975525,1400
908.091553,1418
908.207703,1448
908.32373,1365
908.439758,1443
908.555786,1413
908.671814,1404
908.787842,1436
908.90387,1405
909.019775,1434
909.135864,1407
909.251892,1453
909.367859,1439
909.483826,1409
909.599854,1423
909.715881,1452
909.831848,1468
909.947815,1479
910.063782,1431
910.179749,1402
910.295776,1395
910.411743,1413
910.527649,1453
910.643616,1386
910.759583,1446
910.875488,1407
910.991455,1427
911.107361,1426
911.223267,1409
911.339294,1428
911.4552,1419
911.571106,1421
911.687073,1401
911.802979,1425
911.918823,1398
912.034729,1440
912.150635,1395
912.266602,1456
912.382446,1444
912.498352,1407
912.614197,1449
912.730103,1411
912.846008,1401
792.44574,1728
792.56488,1761
792.68396,1734
792.80304,1702
792.92218,1656
793.041199,1648
793.160339,1638
793.279419,1698
793.398499,1623
793.517578,1620
793.636658,1656
793.755737,1659
793.874817,1657
793.993896,1603
794.112976,1614
794.232056,1557
794.351074,1595
794.470215,1654
794.589233,1604
794.708313,1552
794.827393,1554
794.946411,1613
795.065552,1592
795.18457,1575
795.303589,1598
795.422668,1584
795.541687,1550
795.660767,1579
795.779846,1597
795.898865,1531
796.017883,1596
796.136963,1579
796.255981,1554
796.375061,1573
796.49408,1608
796.613037,1536
796.732117,1522
796.851135,1540
796.970154,1560
797.089233,1471
797.208191,1570
797.327271,1534
797.446228,1557
797.565186,1542
797.684265,1544
797.803223,1519
797.922241,1544
798.04126,1532
798.160278,1541
798.279297,1502
798.398315,1516
798.517273,1546
798.636292,1527
798.75531,1538
798.874268,1539
798.993286,1495
799.112244,1500
799.231323,1492
799.350281,1515
799.469238,1497
799.588257,1523
799.707153,1550
799.826111,1505
799.945129,1536
800.064087,1504
800.183044,1522
800.302063,1480
800.421021,1508
800.539978,1512
800.658936,1502
800.777893,1515
800.896912,1459
801.015747,1487
801.134705,1506
801.253723,1508
801.37262,1487
801.491638,1510
801.610535,1496
801.729492,1518
801.84845,1475
801.967407,1485
802.086243,1492
802.205261,1486
802.324158,1510
802.443115,1506
802.562073,1504
802.680969,1483
802.799927,1484
802.918762,1464
803.037659,1501
803.156677,1476
803.275574,1477
803.39447,1476
803.513428,1487
803.632263,1521
803.751221,1525
803.870117,1469
803.989014,1484
804.107971,1470
804.226746,1496
804.345642,1475
804.4646,1511
804.583496,1477
804.702393,1503
804.821228,1479
804.940125,1513
805.059021,1491
805.177917,1514
805.296814,1476
805.415649,1457
805.534546,1516
805.653442,1469
805.772278,1470
805.891113,1498
806.01001,1475
806.128906,1488
806.247742,1474
806.366577,1484
806.485413,1488
806.604309,1533
806.723145,1461
806.84198,1482
806.960876,1487
807.079712,1463
807.198486,1421
807.317383,1503
807.436218,1483
807.554993,1475
807.673889,1474
807.792725,1486
807.91156,1465
808.030396,1463
808.14917,1449
808.268005,1463
808.386841,1520
808.505676,1496
808.624451,1461
808.743286,1455
808.862122,1505
808.980896,1459
809.099731,1479
809.218506,1452
809.337341,1531
809.456116,1444
809.57489,1468
809.693726,1466
809.8125,1496
809.931274,1467
810.050049,1434
810.168884,1493
810.287659,1477
810.406372,1485
810.525269,1487
810.643982,1447
810.762756,1454
810.881531,1504
811.000305,1479
811.11908,1497
811.237854,1487
811.356567,1452
811.475403,1479
811.594116,1470
811.71283,1462
811.831604,1488
811.950378,1490
812.069153,1492
812.187927,1485
812.30658,1501
812.425415,1451
812.544128,1506
812.662781,1449
812.781616,1453
812.900269,1478
813.019043,1433
813.137756,1483
813.256531,1483
813.375244,1454
813.493896,1488
813.612671,1459
813.731384,1467
813.850037,1450
813.96875,1471
814.087524,1429
814.206238,1411
814.324951,1470
814.443604,1439
814.562256,1437
814.68103,1450
814.799683,1455
814.918335,1465
815.037109,1469
815.155762,1473
815.274475,1467
815.393188,1452
815.511841,1436
815.630554,1452
815.749146,1444
815.867859,1477
815.986572,1460
816.105164,1447
816.223877,1423
816.342529,1453
816.461182,1415
816.579895,1461
816.698486,1451
816.817139,1408
816.935791,1449
817.054504,1416
817.173096,1420
817.291748,1401
817.4104,1423
817.529053,1461
817.647644,1412
817.766235,1405
817.884949,1459
818.00354,1354
818.122192,1387
818.240845,1436
818.359436,1364
818.478088,1396
818.59668,1405
818.715271,1414
818.833923,1392
818.952515,1418
819.071106,1393
819.189758,1408
819.30835,1387
819.426941,1415
819.545532,1413
819.664124,1369
819.782715,1418
819.901306,1419
820.019897,1356
820.138489,1375
820.25708,1364
820.375671,1376
820.494202,1371
820.612732,1349
820.731384,1378
820.849915,1392
820.968506,1380
821.087097,1354
821.205627,1363
821.324158,1347
821.442749,1388
821.561279,1377
821.679871,1368
821.798401,1377
821.916931,1341
822.035461,1319
822.154053,1369
822.272583,1371
822.391174,1363
822.509583,1376
822.628174,1363
822.746704,1348
822.865234,1373
822.983765,1368
823.102295,1365
823.220825,1351
823.339294,1346
823.457825,1342
823.576355,1373
823.694824,1369
823.813354,1345
823.931885,1353
824.050354,1389
824.168884,1360
824.287354,1372
824.405823,1337
824.524353,1323
824.642822,1332
824.761353,1335
824.879822,1373
824.998291,1344
825.116699,1373
825.235291,1349
825.353699,1360
825.472168,1352
825.590637,1388
825.709106,1316
825.827576,1372
825.946045,1327
826.064453,1356
826.182983,1357
826.301392,1354
826.4198,1299
826.53833,1349
826.656738,1308
826.775208,1353
826.893677,1344
827.012024,1352
827.130493,1367
827.248962,1367
827.36731,1335
827.485779,1356
827.604248,1362
827.722595,1318
827.841064,1337
827.959412,1368
828.077942,1339
828.196289,1332
828.314636,1314
828.433105,1328
828.551514,1350
828.669861,1307
828.78833,1347
828.906677,1327
829.025085,1361
829.143433,1325
829.261841,1343
829.38031,1272
829.498657,1396
829.617004,1336
829.735413,1329
829.85376,1304
829.972107,1293
830.090515,1311
830.208862,1322
830.327209,1318
830.445557,1352
830.563904,1334
830.682312,1329
830.800659,1330
830.919006,1313
831.037354,1337
831.155701,1314
831.274048,1314
831.392395,1308
831.51062,1324
831.629028,1315
831.747314,1303
831.865662,1317
831.984009,1295
832.102356,1306
832.220642,1353
832.338928,1334
832.457275,1289
832.575623,1307
832.693909,1333
832.812134,1332
832.930481,1299
833.048828,1298
833.167114,1335
833.2854,1307
833.403687,1320
833.521973,1289
833.640259,1278
833.758545,1310
833.876831,1275
833.995056,1312
834.113281,1292
834.231628,1336
834.349915,1369
834.468201,1305
834.586426,1302
834.704651,1309
834.822998,1332
834.941162,1317
835.059448,1315
835.177673,1315
835.295959,1286
835.414246,1302
835.53241,1340
835.650635,1350
835.768921,1315
835.887146,1323
836.005371,1289
836.123596,1367
836.241821,1319
836.360046,1295
836.478271,1286
836.596497,1323
836.714722,1324
836.832886,1309
836.95105,1321
837.069336,1289
837.1875,1310
837.305725,1291
837.423889,1321
837.542053,1325
837.660339,1256
837.778503,1338
837.896667,1288
838.014832,1335
838.132996,1331
838.25116,1313
838.369385,1317
838.487488,1328
838.605713,1305
838.723877,1350
838.84198,1322
838.960205,1324
839.078308,1332
839.196472,1300
839.314636,1318
839.4328,1342
839.550964,1290
839.669067,1311
839.787231,1338
839.905396,1307
840.023499,1293
840.141602,1314
840.259766,1315
840.377869,1326
840.495972,1297
840.614136,1337
840.732239,1279
840.850342,1327
840.968445,1322
841.086548,1347
841.204651,1324
841.322754,1302
841.440918,1283
841.55896,1302
841.677002,1324
841.795166,1313
841.913208,1304
842.031311,1315
842.149353,1308
842.267456,1286
842.385498,1304
842.503601,1314
842.621643,1301
842.739746,1326
842.857788,1352
842.97583,1307
843.093933,1312
843.211975,1312
843.330017,1354
843.44812,1345
843.566101,1293
843.684204,1295
843.802246,1279
843.920227,1336
844.038269,1314
844.156311,1279
844.274292,1322
844.392395,1285
844.510376,1343
844.628357,1302
844.74646,1314
844.864441,1294
844.982422,1298
845.100403,1334
845.218384,1296
845.336426,1290
845.454468,1329
845.572449,1307
845.69043,1284
845.808411,1330
845.926453,1322
846.044373,1253
846.162354,1278
846.280396,1329
846.398315,1296
846.516296,1305
846.634216,1317
846.752197,1285
846.870178,1272
846.988098,1279
847.106079,1292
847.22406,1304
847.34198,1316
847.4599,1322
847.577881,1322
847.695801,1315
847.813782,1302
847.931641,1297
848.049561,1305
848.167603,1306
848.285461,1337
848.403381,1344
848.521362,1285
848.639221,1295
848.75708,1330
848.875,1285
848.99292,1338
849.110901,1300
849.22876,1290
849.34668,1304
849.464539,1322
849.582458,1304
849.700317,1308
849.818176,1257
849.936096,1379
850.053955,1285
850.171875,1292
850.289673,1302
850.407593,1299
850.525452,1315
850.643311,1334
850.761169,1306
850.878967,1321
850.996887,1323
851.114746,1318
851.232544,1337
851.350403,1322
851.468262,1362
851.58606,1326
851.703979,1351
851.821777,1313
851.939636,1303
852.057434,1307
852.175232,1321
852.293091,1337
852.410889,1306
852.528687,1349
852.646545,1289
852.764343,1288
852.88208,1302
852.999939,1299
853.117676,1324
853.235535,1303
853.353271,1306
853.471069,1312
853.588928,1324
853.706604,1340
853.824402,1330
853.9422,1332
854.059998,1272
854.177734,1270
854.295532,1286
854.413269,1317
854.531006,1294
854.648804,1302
854.766541,1318
854.884277,1285
855.002014,1306
855.119751,1298
855.237549,1290
855.355225,1322
855.473022,1298
855.590698,1287
855.708435,1299
855.826172,1302
855.943848,1313
856.061646,1312
856.179321,1312
856.296997,1304
856.414795,1277
856.53241,1330
856.650085,1305
856.767822,1293
856.885559,1327
857.003174,1316
857.120911,1289
857.238586,1362
857.356201,1298
857.473938,1314
857.591614,1304
857.709351,1333
857.826965,1338
857.944641,1324
858.062317,1289
858.179993,1318
858.297668,1334
858.415283,1274
858.532959,1301
858.650574,1324
858.768188,1299
858.885803,1314
859.003479,1336
859.121094,1314
859.23877,1294
859.356384,1263
859.473999,1304
859.591675,1328
859.709229,1346
859.826843,1269
859.944458,1289
860.062012,1325
860.179626,1315
860.297302,1303
860.414856,1318
860.532471,1328
860.650024,1312
860.767639,1321
860.885193,1342
861.002808,1280
861.120361,1339
861.237976,1321
861.35553,1385
861.473022,1302
861.590698,1318
861.708191,1331
861.825745,1309
861.943298,1340
862.060852,1264
862.178406,1316
862.295959,1318
862.413513,1334
862.531006,1297
862.64856,1355
862.766113,1298
862.883667,1291
863.00116,1307
863.118713,1313
863.236206,1313
863.353699,1292
863.471252,1363
863.588745,1290
863.706177,1294
863.82373,1310
863.941162,1340
864.058716,1287
864.176208,1314
864.29364,1343
864.411194,1313
864.528687,1304
864.646118,1292
864.763611,1286
864.881042,1324
864.998535,1343
865.116028,1333
865.233459,1322
865.350891,1316
865.468384,1333
865.585754,1300
865.703308,1297
865.820679,1320
865.938171,1339
866.055542,1344
866.173035,1319
866.290466,1301
866.407837,1349
866.52533,1304
866.6427,1289
866.760071,1326
866.877563,1319
866.994934,1335
867.112305,1308
867.229736,1307
867.347107,1353
867.464539,1328
867.58197,1363
867.699341,1337
867.81665,1344
867.934082,1322
868.051453,1310
868.168823,1386
868.286194,1343
868.403564,1305
868.520935,1301
868.638306,1316
868.755676,1363
868.872986,1340
868.990295,1341
869.107727,1305
869.225037,1340
869.342346,1355
869.459717,1329
869.577026,1354
869.694336,1345
869.811707,1307
869.929016,1330
870.046326,1335
870.163635,1355
870.280945,1331
870.398254,1313
870.515564,1322
870.632812,1359
870.750183,1374
870.867432,1318
870.984741,1331
871.102051,1313
871.219299,1295
871.336609,1320
871.453918,1323
871.571106,1313
871.688416,1320
871.805664,1333
871.922852,1341
872.040222,1323
872.157471,1310
872.274719,1363
872.391968,1315
872.509155,1342
872.626465,1309
872.743652,1378
872.860962,1351
872.978149,1351
873.095337,1363
873.212646,1295
873.329834,1329
873.44696,1314
873.564209,1349
873.681396,1347
873.798645,1330
873.915894,1336
874.03302,1316
874.150208,1359
874.267456,1343
874.384583,1343
874.501831,1371
874.618958,1351
874.736145,1313
874.853333,1364
874.970459,1340
875.087646,1374
875.204834,1325
875.32196,1344
875.439148,1337
875.556274,1329
875.673401,1334
875.790527,1351
875.907715,1343
876.024841,1350
876.141968,1361
876.259094,1335
876.376282,1348
876.493347,1325
876.610474,1320
876.7276,1350
876.844727,1327
876.961853,1370
877.078918,1339
877.195984,1350
877.313171,1364
877.430237,1367
877.547302,1351
877.664368,1341
877.781433,1385
877.898499,1317
878.015625,1357
878.13269,1328
878.249695,1369
878.366821,1367
878.483887,1336
878.600952,1347
878.717957,1310
878.834961,1347
878.952087,1326
879.069092,1378
879.186157,1305
879.303162,1348
879.420227,1370
879.537231,1347
879.654236,1351
879.77124,1335
879.888306,1339
880.005249,1318
880.122314,1337
880.239319,1381
880.356323,1338
880.473328,1341
880.590271,1372
880.707275,1359
880.824341,1357
880.941284,1301
881.058228,1344
881.175232,1364
881.292236,1300
881.40918,1313
881.526123,1359
881.643066,1364
881.760071,1361
881.877014,1378
881.993958,1330
882.11084,1350
882.227783,1321
882.344727,1336
882.46167,1354
882.578613,1350
882.695618,1322
882.812439,1325
882.929382,1377
883.046326,1354
883.163208,1334
883.280151,1354
883.397034,1368
883.513916,1338
883.630798,1314
883.747742,1380
883.864563,1363
883.981506,1358
884.098389,1376
884.21521,1349
884.332153,1383
884.448975,1375
884.565796,1391
884.682678,1376
884.7995,1339
884.916443,1362
885.033264,1385
885.150085,1337
885.266968,1351
885.383789,1376
885.500671,1370
885.617493,1392
885.734314,1409
885.851196,1366
885.967896,1377
886.084717,1363
886.201599,1409
886.318359,1375
886.435181,1377
886.552002,1363
886.668762,1386
886.785645,1339
886.902344,1407
887.019165,1358
887.135925,1408
887.252747,1361
887.369446,1384
887.486267,1354
887.603027,1373
887.719788,1362
887.836548,1374
887.953247,1337
888.070068,1378
888.186829,1372
888.303528,1391
888.420288,1345
888.536987,1383
888.653687,1342
888.770447,1363
888.887146,1339
889.003967,1382
889.120667,1336
889.237305,1365
889.354065,1366
889.470703,1355
889.587463,1339
889.704163,1392
889.820862,1316
889.937561,1386
890.054199,1349
890.170837,1366
890.287598,1397
890.404236,1340
890.520874,1355
890.637634,1359
890.754211,1371
890.87085,1346
890.987549,1394
891.104187,1396
891.220886,1399
891.337463,1359
891.454102,1382
891.57074,1401
891.687378,1373
891.804077,1401
891.920654,1397
892.037231,1378
892.15387,1376
892.270447,1407
892.387085,1392
892.503723,1424
892.6203,1342
892.736877,1367
892.853516,1410
892.970032,1352
893.08667,1374
893.203186,1405
893.319763,1394
893.43634,1405
893.552917,1373
893.669556,1383
893.786011,1378
893.902588,1404
894.019165,1350
894.135681,1376
894.252197,1396
894.368835,1385
894.485291,1361
894.601868,1390
894.718384,1369
894.8349,1394
894.951355,1384
895.067932,1397
895.184448,1365
895.300964,1393
895.417419,1386
895.533936,1388
895.650452,1422
895.766907,1404
895.883423,1416
895.999878,1373
896.116333,1393
896.232849,1460
896.349304,1367
896.465759,1376
896.582214,1385
896.698669,1454
896.815125,1388
896.931641,1368
897.048035,1415
897.164551,1392
897.280884,1386
897.397339,1404
897.513794,1425
897.630249,1380
897.746582,1390
897.863098,1426
897.979431,1363
898.095886,1423
898.212341,1434
898.328674,1394
898.445129,1407
898.561462,1420
898.677795,1385
898.794312,1392
898.910645,1396
899.026978,1366
899.143433,1429
899.259766,1424
899.37616,1399
899.492493,1363
899.608765,1432
899.725159,1440
899.841553,1381
899.957947,1430
900.07428,1378
900.190552,1396
900.306946,1367
900.423157,1430
900.53949,1379
900.655884,1380
900.772156,1368
900.888489,1431
901.004822,1397
901.121033,1443
901.237366,1348
901.353699,1415
901.46991,1364
901.586304,1401
901.702515,1425
901.818787,1380
901.93512,1422
902.051331,1449
902.167603,1442
902.283875,1461
902.400085,1393
902.516418,1427
902.632629,1410
902.74884,1396
902.865112,1394
902.981384,1385
903.097595,1422
903.213867,1407
903.330017,1414
903.446289,1410
903.5625,1436
903.67865,1390
903.794922,1445
903.911072,1450
904.027344,1427
904.143494,1438
904.259705,1443
904.375916,1403
904.492065,1396
904.608215,1441
904.724426,1415
904.840576,1404
904.956726,1434
905.072876,1420
905.189087,1418
905.305176,1416
905.421387,1430
905.537537,1474
905.653687,1447
905.769775,1402
905.885925,1434
906.002014,1455
906.118164,1453
906.234314,1408
906.350403,1454
906.466492,1446
906.582642,1365
906.69873,1394
906.814758,1421
906.930908,1447
907.046936,1403
907.163086,1432
907.279175,1442
907.395264,1434
907.511353,1463
907.62738,1369
907.743408,1450
907.859497,1458
907.975525,1418
908.091553,1436
908.207703,1426
908.32373,1510
908.439758,1442
908.555786,1435
908.671814,1412
908.787842,1449
908.90387,1438
909.019775,1425
909.135864,1398
909.251892,1444
909.367859,1427
909.483826,1490
909.599854,1424
909.715881,1443
909.831848,1411
909.947815,1448
910.063782,1441
910.179749,1445
910.295776,1420
910.411743,1442
910.527649,1420
910.643616,1441
910.759583,1424
910.875488,1481
910.991455,1431
911.107361,1414
911.223267,1410
911.339294,1434
911.4552,1408
911.571106,1434
911.687073,1471
911.802979,1423
911.918823,1453
912.034729,1421
912.150635,1479
912.266602,1394
912.382446,1437
912.498352,1409
912.614197,1394
912.730103,1433
912.846008,1453
