792.44574,2167
792.56488,2217
792.68396,2151
792.80304,2131
792.92218,2089
793.041199,2090
793.160339,2074
793.279419,2097
793.398499,2069
793.517578,2086
793.636658,2025
793.755737,2083
793.874817,2086
793.993896,2026
794.112976,2006
794.232056,2002
794.351074,1991
794.470215,2014
794.589233,2025
794.708313,1983
794.827393,2020
794.946411,1978
795.065552,1964
795.18457,1961
795.303589,1976
795.422668,2001
795.541687,1996
795.660767,1998
795.779846,1967
795.898865,2012
796.017883,1968
796.136963,2003
796.255981,1945
796.375061,1950
796.49408,1993
796.613037,1935
796.732117,1979
796.851135,1923
796.970154,1906
797.089233,1901
797.208191,1943
797.327271,1930
797.446228,1925
797.565186,1967
797.684265,1896
797.803223,1928
797.922241,1949
798.04126,1917
798.160278,1920
798.279297,1907
798.398315,1821
798.517273,1883
798.636292,1935
798.75531,1898
798.874268,1908
798.993286,1871
799.112244,1840
799.231323,1926
799.350281,1910
799.469238,1957
799.588257,1939
799.707153,1924
799.826111,1960
799.945129,1885
800.064087,1925
800.183044,1912
800.302063,1910
800.421021,1947
800.539978,1957
800.658936,1931
800.777893,1944
800.896912,1964
801.015747,1894
801.134705,1985
801.253723,1975
801.37262,1935
801.491638,1944
801.610535,1946
801.729492,1949
801.84845,1972
801.967407,1954
802.086243,2029
802.205261,1975
802.324158,1988
802.443115,1948
802.562073,1950
802.680969,1972
802.799927,1990
802.918762,2010
803.037659,2030
803.156677,2063
803.275574,1971
803.39447,2038
803.513428,2020
803.632263,1998
803.751221,2015
803.870117,2037
803.989014,2028
804.107971,2001
804.226746,2030
804.345642,2034
804.4646,2027
804.583496,2030
804.702393,2052
804.821228,2093
804.940125,2060
805.059021,2072
805.177917,2050
805.296814,2063
805.415649,2054
805.534546,2112
805.653442,2039
805.772278,2091
805.891113,2082
806.01001,2113
806.128906,2086
806.247742,2120
806.366577,2081
806.485413,2109
806.604309,2082
806.723145,2127
806.84198,2085
806.960876,2106
807.079712,2139
807.198486,2137
807.317383,2130
807.436218,2135
807.554993,2112
807.673889,2130
807.792725,2122
807.91156,2162
808.030396,2122
808.14917,2122
808.268005,2112
808.386841,2103
808.505676,2173
808.624451,2172
808.743286,2132
808.862122,2159
808.980896,2145
809.099731,2207
809.218506,2117
809.337341,2174
809.456116,2165
809.57489,2177
809.693726,2168
809.8125,2156
809.931274,2173
810.050049,2204
810.168884,2162
810.287659,2191
810.406372,2201
810.525269,2182
810.643982,2192
810.762756,2212
810.881531,2130
811.000305,2210
811.11908,2234
811.237854,2214
811.356567,2193
811.475403,2223
811.594116,2234
811.71283,2235
811.831604,2175
811.950378,2230
812.069153,2235
812.187927,2206
812.30658,2208
812.425415,2242
812.544128,2228
812.662781,2219
812.781616,2125
812.900269,2163
813.019043,2186
813.137756,2208
813.256531,2208
813.375244,2246
813.493896,2264
813.612671,2247
813.731384,2245
813.850037,2187
813.96875,2203
814.087524,2186
814.206238,2151
814.324951,2178
814.443604,2179
814.562256,2151
814.68103,2129
814.799683,2185
814.918335,2176
815.037109,2139
815.155762,2144
815.274475,2142
815.393188,2176
815.511841,2143
815.630554,2119
815.749146,2087
815.867859,2098
815.986572,2135
816.105164,2057
816.223877,2099
816.342529,2077
816.461182,2117
816.579895,2105
816.698486,2129
816.817139,2119
816.935791,2188
817.054504,2138
817.173096,2159
817.291748,2107
817.4104,2081
817.529053,2044
817.647644,2050
817.766235,1976
817.884949,1906
818.00354,1879
818.122192,1959
818.240845,1816
818.359436,1732
818.478088,1793
818.59668,1729
818.715271,1748
818.833923,1685
818.952515,1682
819.071106,1665
819.189758,1621
819.30835,1649
819.426941,1599
819.545532,1581
819.664124,1607
819.782715,1571
819.901306,1555
820.019897,1581
820.138489,1585
820.25708,1561
820.375671,1556
820.494202,1554
820.612732,1492
820.731384,1567
820.849915,1524
820.968506,1521
821.087097,1492
821.205627,1508
821.324158,1525
821.442749,1486
821.561279,1450
821.679871,1513
821.798401,1464
821.916931,1466
822.035461,1508
822.154053,1498
822.272583,1464
822.391174,1422
822.509583,1482
822.628174,1514
822.746704,1483
822.865234,1475
822.983765,1468
823.102295,1494
823.220825,1458
823.339294,1432
823.457825,1444
823.576355,1483
823.694824,1477
823.813354,1455
823.931885,1533
824.050354,1492
824.168884,1488
824.287354,1507
824.405823,1487
824.524353,1501
824.642822,1495
824.761353,1576
824.879822,1527
824.998291,1500
825.116699,1483
825.235291,1461
825.353699,1514
825.472168,1456
825.590637,1494
825.709106,1443
825.827576,1459
825.946045,1468
826.064453,1434
826.182983,1409
826.301392,1449
826.4198,1406
826.53833,1445
826.656738,1409
826.775208,1415
826.893677,1412
827.012024,1373
827.130493,1370
827.248962,1382
827.36731,1391
827.485779,1406
827.604248,1396
827.722595,1400
827.841064,1376
827.959412,1388
828.077942,1428
828.196289,1374
828.314636,1393
828.433105,1411
828.551514,1361
828.669861,1348
828.78833,1373
828.906677,1377
829.025085,1397
829.143433,1409
829.261841,1341
829.38031,1375
829.498657,1349
829.617004,1374
829.735413,1402
829.85376,1345
829.972107,1349
830.090515,1387
830.208862,1323
830.327209,1354
830.445557,1387
830.563904,1332
830.682312,1378
830.800659,1351
830.919006,1381
831.037354,1343
831.155701,1384
831.274048,1323
831.392395,1354
831.51062,1369
831.629028,1350
831.747314,1344
831.865662,1351
831.984009,1354
832.102356,1394
832.220642,1372
832.338928,1399
832.457275,1354
832.575623,1338
832.693909,1349
832.812134,1358
832.930481,1357
833.048828,1359
833.167114,1366
833.2854,1375
833.403687,1372
833.521973,1355
833.640259,1341
833.758545,1377
833.876831,1386
833.995056,1352
834.113281,1377
834.231628,1323
834.349915,1361
834.468201,1293
834.586426,1379
834.704651,1395
834.822998,1373
834.941162,1384
835.059448,1392
835.177673,1392
835.295959,1381
835.414246,1387
835.53241,1384
835.650635,1396
835.768921,1382
835.887146,1401
836.005371,1366
836.123596,1380
836.241821,1407
836.360046,1434
836.478271,1394
836.596497,1426
836.714722,1378
836.832886,1444
836.95105,1447
837.069336,1468
837.1875,1467
837.305725,1463
837.423889,1489
837.542053,1453
837.660339,1464
837.778503,1510
837.896667,1487
838.014832,1442
838.132996,1463
838.25116,1439
838.369385,1453
838.487488,1453
838.605713,1462
838.723877,1438
838.84198,1442
838.960205,1418
839.078308,1386
839.196472,1460
839.314636,1414
839.4328,1428
839.550964,1412
839.669067,1405
839.787231,1415
839.905396,1410
840.023499,1446
840.141602,1402
840.259766,1417
840.377869,1402
840.495972,1401
840.614136,1421
840.732239,1395
840.850342,1398
840.968445,1402
841.086548,1396
841.204651,1367
841.322754,1380
841.440918,1346
841.55896,1373
841.677002,1405
841.795166,1432
841.913208,1361
842.031311,1386
842.149353,1364
842.267456,1354
842.385498,1354
842.503601,1330
842.621643,1343
842.739746,1382
842.857788,1350
842.97583,1317
843.093933,1352
843.211975,1338
843.330017,1345
843.44812,1335
843.566101,1357
843.684204,1338
843.802246,1314
843.920227,1356
844.038269,1317
844.156311,1359
844.274292,1304
844.392395,1304
844.510376,1327
844.628357,1342
844.74646,1287
844.864441,1377
844.982422,1322
845.100403,1336
845.218384,1311
845.336426,1393
845.454468,1344
845.572449,1327
845.69043,1303
845.808411,1339
845.926453,1336
846.044373,1342
846.162354,1363
846.280396,1345
846.398315,1315
846.516296,1351
846.634216,1329
846.752197,1308
846.870178,1334
846.988098,1342
847.106079,1326
847.22406,1303
847.34198,1347
847.4599,1345
847.577881,1348
847.695801,1295
847.813782,1302
847.931641,1339
848.049561,1336
848.167603,1337
848.285461,1339
848.403381,1308
848.521362,1345
848.639221,1327
848.75708,1317
848.875,1323
848.99292,1362
849.110901,1316
849.22876,1317
849.34668,1343
849.464539,1315
849.582458,1371
849.700317,1382
849.818176,1304
849.936096,1314
850.053955,1355
850.171875,1313
850.289673,1312
850.407593,1342
850.525452,1350
850.643311,1364
850.761169,1300
850.878967,1349
850.996887,1326
851.114746,1353
851.232544,1362
851.350403,1373
851.468262,1318
851.58606,1398
851.703979,1318
851.821777,1394
851.939636,1370
852.057434,1320
852.175232,1385
852.293091,1377
852.410889,1352
852.528687,1361
852.646545,1345
852.764343,1334
852.88208,1365
852.999939,1335
853.117676,1336
853.235535,1346
853.353271,1356
853.471069,1357
853.588928,1321
853.706604,1394
853.824402,1347
853.9422,1384
854.059998,1374
854.177734,1347
854.295532,1374
854.413269,1395
854.531006,1372
854.648804,1371
854.766541,1393
854.884277,1348
855.002014,1383
855.119751,1370
855.237549,1398
855.355225,1367
855.473022,1421
855.590698,1429
855.708435,1393
855.826172,1377
855.943848,1365
856.061646,1375
856.179321,1418
856.296997,1340
856.414795,1423
856.53241,1413
856.650085,1420
856.767822,1397
856.885559,1372
857.003174,1428
857.120911,1373
857.238586,1379
857.356201,1412
857.473938,1407
857.591614,1371
857.709351,1351
857.826965,1414
857.944641,1384
858.062317,1401
858.179993,1331
858.297668,1398
858.415283,1400
858.532959,1342
858.650574,1386
858.768188,1372
858.885803,1364
859.003479,1373
859.121094,1362
859.23877,1399
859.356384,1384
859.473999,1363
859.591675,1352
859.709229,1367
859.826843,1399
859.944458,1382
860.062012,1389
860.179626,1328
860.297302,1366
860.414856,1384
860.532471,1358
860.650024,1360
860.767639,1366
860.885193,1386
861.002808,1376
861.120361,1379
861.237976,1380
861.35553,1373
861.473022,1374
861.590698,1332
861.708191,1412
861.825745,1371
861.943298,1349
862.060852,1367
862.178406,1374
862.295959,1369
862.413513,1378
862.531006,1369
862.64856,1370
862.766113,1418
862.883667,1353
863.00116,1365
863.118713,1393
863.236206,1423
863.353699,1373
863.471252,1379
863.588745,1397
863.706177,1380
863.82373,1385
863.941162,1361
864.058716,1382
864.176208,1368
864.29364,1426
864.411194,1369
864.528687,1374
864.646118,1397
864.763611,1388
864.881042,1366
864.998535,1378
865.116028,1410
865.233459,1369
865.350891,1376
865.468384,1380
865.585754,1419
865.703308,1332
865.820679,1412
865.938171,1377
866.055542,1394
866.173035,1378
866.290466,1331
866.407837,1380
866.52533,1428
866.6427,1394
866.760071,1396
866.877563,1407
866.994934,1390
867.112305,1398
867.229736,1392
867.347107,1390
867.464539,1418
867.58197,1392
867.699341,1399
867.81665,1389
867.934082,1390
868.051453,1376
868.168823,1366
868.286194,1424
868.403564,1383
868.520935,1445
868.638306,1437
868.755676,1426
868.872986,1402
868.990295,1455
869.107727,1389
869.225037,1422
869.342346,1393
869.459717,1412
869.577026,1435
869.694336,1438
869.811707,1410
869.929016,1411
870.046326,1422
870.163635,1399
870.280945,1373
870.398254,1379
870.515564,1434
870.632812,1405
870.750183,1441
870.867432,1385
870.984741,1413
871.102051,1391
871.219299,1338
871.336609,1400
871.453918,1424
871.571106,1440
871.688416,1353
871.805664,1411
871.922852,1400
872.040222,1345
872.157471,1417
872.274719,1417
872.391968,1411
872.509155,1410
872.626465,1364
872.743652,1441
872.860962,1392
872.978149,1355
873.095337,1389
873.212646,1427
873.329834,1399
873.44696,1396
873.564209,1412
873.681396,1413
873.798645,1360
873.915894,1421
874.03302,1387
874.150208,1421
874.267456,1419
874.384583,1394
874.501831,1356
874.618958,1379
874.736145,1381
874.853333,1396
874.970459,1364
875.087646,1433
875.204834,1423
875.32196,1421
875.439148,1418
875.556274,1399
875.673401,1426
875.790527,1425
875.907715,1441
876.024841,1394
876.141968,1411
876.259094,1426
876.376282,1424
876.493347,1385
876.610474,1447
876.7276,1402
876.844727,1384
876.961853,1404
877.078918,1434
877.195984,1417
877.313171,1430
877.430237,1404
877.547302,1385
877.664368,1458
877.781433,1449
877.898499,1393
878.015625,1439
878.13269,1442
878.249695,1395
878.366821,1428
878.483887,1402
878.600952,1391
878.717957,1404
878.834961,1450
878.952087,1480
879.069092,1425
879.186157,1426
879.303162,1386
879.420227,1425
879.537231,1401
879.654236,1434
879.77124,1412
879.888306,1424
880.005249,1454
880.122314,1413
880.239319,1406
880.356323,1433
880.473328,1428
880.590271,1427
880.707275,1408
880.824341,1404
880.941284,1427
881.058228,1429
881.175232,1446
881.292236,1418
881.40918,1443
881.526123,1397
881.643066,1424
881.760071,1426
881.877014,1461
881.993958,1398
882.11084,1435
882.227783,1452
882.344727,1425
882.46167,1440
882.578613,1447
882.695618,1410
882.812439,1416
882.929382,1427
883.046326,1434
883.163208,1432
883.280151,1429
883.397034,1450
883.513916,1454
883.630798,1433
883.747742,1440
883.864563,1454
883.981506,1471
884.098389,1390
884.21521,1447
884.332153,1444
884.448975,1444
884.565796,1443
884.682678,1468
884.7995,1447
884.916443,1449
885.033264,1484
885.150085,1436
885.266968,1477
885.383789,1435
885.500671,1445
885.617493,1479
885.734314,1455
885.851196,1448
885.967896,1459
886.084717,1436
886.201599,1446
886.318359,1496
886.435181,1460
886.552002,1462
886.668762,1477
886.785645,1481
886.902344,1459
887.019165,1465
887.135925,1469
887.252747,1455
887.369446,1489
887.486267,1447
887.603027,1463
887.719788,1437
887.836548,1450
887.953247,1427
888.070068,1453
888.186829,1450
888.303528,1464
888.420288,1460
888.536987,1438
888.653687,1469
888.770447,1520
888.887146,1445
889.003967,1519
889.120667,1450
889.237305,1498
889.354065,1472
889.470703,1459
889.587463,1442
889.704163,1511
889.820862,1471
889.937561,1480
890.054199,1464
890.170837,1446
890.287598,1470
890.404236,1454
890.520874,1456
890.637634,1479
890.754211,1479
890.87085,1461
890.987549,1466
891.104187,1507
891.220886,1496
891.337463,1480
891.454102,1521
891.57074,1498
891.687378,1481
891.804077,1504
891.920654,1485
892.037231,1499
892.15387,1482
892.270447,1534
892.387085,1496
892.503723,1489
892.6203,1493
892.736877,1512
892.853516,1467
892.970032,1485
893.08667,1479
893.203186,1489
893.319763,1494
893.43634,1513
893.552917,1492
893.669556,1519
893.786011,1503
893.902588,1506
894.019165,1474
894.135681,1490
894.252197,1461
894.368835,1516
894.485291,1508
894.601868,1533
894.718384,1470
894.8349,1482
894.951355,1483
895.067932,1526
895.184448,1470
895.300964,1514
895.417419,1528
895.533936,1506
895.650452,1474
895.766907,1481
895.883423,1493
895.999878,1509
896.116333,1514
896.232849,1541
896.349304,1487
896.465759,1485
896.582214,1508
896.698669,1532
896.815125,1529
896.931641,1524
897.048035,1507
897.164551,1503
897.280884,1485
897.397339,1491
897.513794,1518
897.630249,1509
897.746582,1504
897.863098,1521
897.979431,1472
898.095886,1505
898.212341,1498
898.328674,1536
898.445129,1489
898.561462,1495
898.677795,1515
898.794312,1524
898.910645,1530
899.026978,1538
899.143433,1492
899.259766,1534
899.37616,1498
899.492493,1525
899.608765,1475
899.725159,1542
899.841553,1471
899.957947,1512
900.07428,1498
900.190552,1520
900.306946,1521
900.423157,1538
900.53949,1526
900.655884,1513
900.772156,1525
900.888489,1564
901.004822,1519
901.121033,1555
901.237366,1477
901.353699,1554
901.46991,1506
901.586304,1472
901.702515,1539
901.818787,1511
901.93512,1529
902.051331,1510
902.167603,1540
902.283875,1536
902.400085,1514
902.516418,1561
902.632629,1508
902.74884,1540
902.865112,1535
902.981384,1516
903.097595,1567
903.213867,1528
903.330017,1502
903.446289,1501
903.5625,1505
903.67865,1555
903.794922,1488
903.911072,1513
904.027344,1503
904.143494,1535
904.259705,1529
904.375916,1530
904.492065,1507
904.608215,1529
904.724426,1535
904.840576,1559
904.956726,1562
905.072876,1540
905.189087,1502
905.305176,1524
905.421387,1527
905.537537,1594
905.653687,1512
905.769775,1540
905.885925,1549
906.002014,1561
906.118164,1475
906.234314,1522
906.350403,1487
906.466492,1500
906.582642,1575
906.69873,1567
906.814758,1512
906.930908,1520
907.046936,1507
907.163086,1564
907.279175,1486
907.395264,1559
907.511353,1524
907.62738,1544
907.743408,1519
907.859497,1572
907.975525,1548
908.091553,1512
908.207703,1508
908.32373,1552
908.439758,1557
908.555786,1552
908.671814,1543
908.787842,1534
908.90387,1532
909.019775,1529
909.135864,1536
909.251892,1529
909.367859,1519
909.483826,1555
909.599854,1563
909.715881,1535
909.831848,1562
909.947815,1559
910.063782,1578
910.179749,1551
910.295776,1513
910.411743,1540
910.527649,1502
910.643616,1539
910.759583,1560
910.875488,1563
910.991455,1556
911.107361,1521
911.223267,1569
911.339294,1520
911.4552,1556
911.571106,1506
911.687073,1542
911.802979,1575
911.918823,1574
912.034729,1561
912.150635,1578
912.266602,1554
912.382446,1564
912.498352,1528
912.614197,1510
912.730103,1586
912.846008,1545
792.44574,2202
792.56488,2191
792.68396,2218
792.80304,2170
792.92218,2164
793.041199,2092
793.160339,2127
793.279419,2133
793.398499,2085
793.517578,2084
793.636658,2098
793.755737,2135
793.874817,2059
793.993896,2058
794.112976,2078
794.232056,2047
794.351074,2041
794.470215,2071
794.589233,2063
794.708313,2055
794.827393,1968
794.946411,2036
795.065552,2012
795.18457,1975
795.303589,2011
795.422668,2021
795.541687,1972
795.660767,2014
795.779846,1996
795.898865,1987
796.017883,1988
796.136963,2011
796.255981,1995
796.375061,1967
796.49408,1968
796.613037,1992
796.732117,1975
796.851135,1991
796.970154,1958
797.089233,1988
797.208191,1965
797.327271,1987
797.446228,1941
797.565186,1956
797.684265,1965
797.803223,1943
797.922241,1985
798.04126,1977
798.160278,1931
798.279297,1935
798.398315,1957
798.517273,1958
798.636292,1907
798.75531,1963
798.874268,1942
798.993286,1941
799.112244,1980
799.231323,2014
799.350281,1929
799.469238,1977
799.588257,1983
799.707153,1897
799.826111,1995
799.945129,1976
800.064087,1998
800.183044,1950
800.302063,1953
800.421021,1999
800.539978,1991
800.658936,1944
800.777893,1972
800.896912,1986
801.015747,1967
801.134705,1960
801.253723,1919
801.37262,2004
801.491638,1962
801.610535,2030
801.729492,1985
801.84845,2014
801.967407,2008
802.086243,2016
802.205261,1981
802.324158,1989
802.443115,2068
802.562073,2011
802.680969,2028
802.799927,2042
802.918762,2052
803.037659,2020
803.156677,2029
803.275574,2067
803.39447,2081
803.513428,2065
803.632263,2060
803.751221,2080
803.870117,2020
803.989014,2082
804.107971,2068
804.226746,2094
804.345642,2068
804.4646,2050
804.583496,2105
804.702393,2059
804.821228,2144
804.940125,2102
805.059021,2088
805.177917,2115
805.296814,2095
805.415649,2138
805.534546,2072
805.653442,2088
805.772278,2089
805.891113,2118
806.01001,2106
806.128906,2111
806.247742,2121
806.366577,2160
806.485413,2125
806.604309,2159
806.723145,2067
806.84198,2162
806.960876,2090
807.079712,2186
807.198486,2156
807.317383,2176
807.436218,2158
807.554993,2176
807.673889,2088
807.792725,2159
807.91156,2147
808.030396,2148
808.14917,2159
808.268005,2188
808.386841,2223
808.505676,2229
808.624451,2235
808.743286,2171
808.862122,2157
808.980896,2194
809.099731,2187
809.218506,2183
809.337341,2235
809.456116,2183
809.57489,2221
809.693726,2244
809.8125,2216
809.931274,2197
810.050049,2199
810.168884,2259
810.287659,2241
810.406372,2180
810.525269,2226
810.643982,2256
810.762756,2236
810.881531,2238
811.000305,2217
811.11908,2239
811.237854,2235
811.356567,2161
811.475403,2271
811.594116,2173
811.71283,2209
811.831604,2229
811.950378,2275
812.069153,2187
812.187927,2269
812.30658,2252
812.425415,2223
812.544128,2229
812.662781,2241
812.781616,2238
812.900269,2258
813.019043,2197
813.137756,2252
813.256531,2319
813.375244,2223
813.493896,2255
813.612671,2201
813.731384,2233
813.850037,2238
813.96875,2248
814.087524,2205
814.206238,2187
814.324951,2193
814.443604,2188
814.562256,2207
814.68103,2206
814.799683,2198
814.918335,2146
815.037109,2195
815.155762,2210
815.274475,2216
815.393188,2158
815.511841,2157
815.630554,2183
815.749146,2155
815.867859,2152
815.986572,2123
816.105164,2124
816.223877,2062
816.342529,2124
816.461182,2196
816.579895,2131
816.698486,2195
816.817139,2151
816.935791,2185
817.054504,2141
817.173096,2168
817.291748,2094
817.4104,2144
817.529053,2054
817.647644,2041
817.766235,2054
817.884949,2002
818.00354,1968
818.122192,1890
818.240845,1858
818.359436,1825
818.478088,1817
818.59668,1762
818.715271,1732
818.833923,1689
818.952515,1703
819.071106,1666
819.189758,1691
819.30835,1622
819.426941,1648
819.545532,1632
819.664124,1617
819.782715,1618
819.901306,1611
820.019897,1609
820.138489,1611
820.25708,1543
820.375671,1583
820.494202,1589
820.612732,1595
820.731384,1610
820.849915,1534
820.968506,1601
821.087097,1554
821.205627,1550
821.324158,1547
821.442749,1524
821.561279,1537
821.679871,1475
821.798401,1517
821.916931,1541
822.035461,1504
822.154053,1507
822.272583,1519
822.391174,1488
822.509583,1471
822.628174,1501
822.746704,1501
822.865234,1498
822.983765,1499
823.102295,1504
823.220825,1486
823.339294,1494
823.457825,1524
823.576355,1477
823.694824,1526
823.813354,1508
823.931885,1493
824.050354,1538
824.168884,1523
824.287354,1517
824.405823,1509
824.524353,1521
824.642822,1542
824.761353,1529
824.879822,1554
824.998291,1503
825.116699,1491
825.235291,1511
825.353699,1474
825.472168,1514
825.590637,1516
825.709106,1448
825.827576,1447
825.946045,1464
826.064453,1474
826.182983,1489
826.301392,1433
826.4198,1458
826.53833,1456
826.656738,1448
826.775208,1434
826.893677,1420
827.012024,1446
827.130493,1433
827.248962,1470
827.36731,1384
827.485779,1410
827.604248,1411
827.722595,1376
827.841064,1402
827.959412,1398
828.077942,1420
828.196289,1399
828.314636,1381
828.433105,1412
828.551514,1390
828.669861,1404
828.78833,1392
828.906677,1404
829.025085,1426
829.143433,1373
829.261841,1357
829.38031,1377
829.498657,1405
829.617004,1350
829.735413,1381
829.85376,1374
829.972107,1378
830.090515,1379
830.208862,1383
830.327209,1378
830.445557,1383
830.563904,1396
830.682312,1365
830.800659,1377
830.919006,1389
831.037354,1396
831.155701,1403
831.274048,1392
831.392395,1347
831.51062,1392
831.629028,1379
831.747314,1372
831.865662,1392
831.984009,1359
832.102356,1393
832.220642,1366
832.338928,1398
832.457275,1368
832.575623,1366
832.693909,1383
832.812134,1386
832.930481,1373
833.048828,1378
833.167114,1410
833.2854,1393
833.403687,1391
833.521973,1386
833.640259,1395
833.758545,1410
833.876831,1403
833.995056,1395
834.113281,1399
834.231628,1408
834.349915,1393
834.468201,1407
834.586426,1396
834.704651,1382
834.822998,1421
834.941162,1367
835.059448,1417
835.177673,1414
835.295959,1405
835.414246,1401
835.53241,1416
835.650635,1395
835.768921,1401
835.887146,1433
836.005371,1456
836.123596,1400
836.241821,1442
836.360046,1439
836.478271,1431
836.596497,1466
836.714722,1412
836.832886,1473
836.95105,1420
837.069336,1466
837.1875,1508
837.305725,1429
837.423889,1483
837.542053,1474
837.660339,1458
837.778503,1507
837.896667,1444
838.014832,1516
838.132996,1469
838.25116,1504
838.369385,1445
838.487488,1475
838.605713,1487
838.723877,1453
838.84198,1499
838.960205,1436
839.078308,1424
839.196472,1475
839.314636,1468
839.4328,1507
839.550964,1471
839.669067,1472
839.787231,1452
839.905396,1431
840.023499,1470
840.141602,1397
840.259766,1453
840.377869,1425
840.495972,1466
840.614136,1397
840.732239,1469
840.850342,1384
840.968445,1464
841.086548,1423
841.204651,1407
841.322754,1416
841.440918,1404
841.55896,1411
841.677002,1426
841.795166,1382
841.913208,1429
842.031311,1378
842.149353,1397
842.267456,1336
842.385498,1418
842.503601,1371
842.621643,1366
842.739746,1403
842.857788,1381
842.97583,1383
843.093933,1368
843.211975,1369
843.330017,1335
843.44812,1363
843.566101,1354
843.684204,1373
843.802246,1343
843.920227,1359
844.038269,1394
844.156311,1380
844.274292,1321
844.392395,1379
844.510376,1339
844.628357,1392
844.74646,1373
844.864441,1337
844.982422,1372
845.100403,1409
845.218384,1317
845.336426,1359
845.454468,1420
845.572449,1328
845.69043,1356
845.808411,1341
845.926453,1335
846.044373,1393
846.162354,1342
846.280396,1337
846.398315,1391
846.516296,1338
846.634216,1369
846.752197,1325
846.870178,1380
846.988098,1339
847.106079,1362
847.22406,1355
847.34198,1366
847.4599,1385
847.577881,1384
847.695801,1350
847.813782,1340
847.931641,1357
848.049561,1357
848.167603,1336
848.285461,1374
848.403381,1426
848.521362,1324
848.639221,1388
848.75708,1367
848.875,1388
848.99292,1379
849.110901,1405
849.22876,1374
849.34668,1334
849.464539,1344
849.582458,1314
849.700317,1361
849.818176,1387
849.936096,1357
850.053955,1408
850.171875,1352
850.289673,1370
850.407593,1353
850.525452,1379
850.643311,1368
850.761169,1367
850.878967,1408
850.996887,1355
851.114746,1402
851.232544,1339
851.350403,1393
851.468262,1367
851.58606,1362
851.703979,1361
851.821777,1390
851.939636,1360
852.057434,1393
852.175232,1359
852.293091,1363
852.410889,1405
852.528687,1382
852.646545,1401
852.764343,1376
852.88208,1359
852.999939,1368
853.117676,1375
853.235535,1403
853.353271,1376
853.471069,1365
853.588928,1393
853.706604,1371
853.824402,1395
853.9422,1326
854.059998,1390
854.177734,1373
854.295532,1369
854.413269,1364
854.531006,1394
854.648804,1378
854.766541,1404
854.884277,1372
855.002014,1429
855.119751,1416
855.237549,1445
855.355225,1416
855.473022,1360
855.590698,1410
855.708435,1392
855.826172,1405
855.943848,1418
856.061646,1401
856.179321,1413
856.296997,1413
856.414795,1450
856.53241,1401
856.650085,1439
856.767822,1415
856.885559,1407
857.003174,1404
857.120911,1439
857.238586,1402
857.356201,1426
857.473938,1381
857.591614,1385
857.709351,1378
857.826965,1423
857.944641,1419
858.062317,1386
858.179993,1436
858.297668,1377
858.415283,1416
858.532959,1423
858.650574,1432
858.768188,1388
858.885803,1439
859.003479,1412
859.121094,1400
859.23877,1402
859.356384,1397
859.473999,1426
859.591675,1374
859.709229,1415
859.826843,1400
859.944458,1395
860.062012,1402
860.179626,1396
860.297302,1456
860.414856,1369
860.532471,1361
860.650024,1408
860.767639,1418
860.885193,1397
861.002808,1388
861.120361,1383
861.237976,1353
861.35553,1419
861.473022,1407
861.590698,1338
861.708191,1370
861.825745,1382
861.943298,1405
862.060852,1375
862.178406,1418
862.295959,1357
862.413513,1400
862.531006,1423
862.64856,1405
862.766113,1388
862.883667,1380
863.00116,1394
863.118713,1416
863.236206,1389
863.353699,1425
863.471252,1414
863.588745,1405
863.706177,1433
863.82373,1363
863.941162,1401
864.058716,1408
864.176208,1421
864.29364,1380
864.411194,1429
864.528687,1413
864.646118,1447
864.763611,1412
864.881042,1391
864.998535,1405
865.116028,1460
865.233459,1415
865.350891,1429
865.468384,1403
865.585754,1422
865.703308,1421
865.820679,1405
865.938171,1418
866.055542,1420
866.173035,1430
866.290466,1447
866.407837,1430
866.52533,1444
866.6427,1413
866.760071,1406
866.877563,1430
866.994934,1425
867.112305,1405
867.229736,1451
867.347107,1416
867.464539,1432
867.58197,1441
867.699341,1446
867.81665,1444
867.934082,1435
868.051453,1380
868.168823,1428
868.286194,1501
868.403564,1425
868.520935,1439
868.638306,1417
868.755676,1435
868.872986,1457
868.990295,1444
869.107727,1424
869.225037,1400
869.342346,1431
869.459717,1453
869.577026,1410
869.694336,1412
869.811707,1417
869.929016,1433
870.046326,1411
870.163635,1430
870.280945,1376
870.398254,1408
870.515564,1448
870.632812,1397
870.750183,1483
870.867432,1421
870.984741,1406
871.102051,1384
871.219299,1428
871.336609,1444
871.453918,1419
871.571106,1463
871.688416,1397
871.805664,1437
871.922852,1417
872.040222,1439
872.157471,1456
872.274719,1445
872.391968,1429
872.509155,1466
872.626465,1425
872.743652,1419
872.860962,1419
872.978149,1414
873.095337,1411
873.212646,1397
873.329834,1435
873.44696,1398
873.564209,1397
873.681396,1421
873.798645,1415
873.915894,1394
874.03302,1412
874.150208,1409
874.267456,1435
874.384583,1418
874.501831,1439
874.618958,1379
874.736145,1439
874.853333,1442
874.970459,1453
875.087646,1417
875.204834,1417
875.32196,1411
875.439148,1461
875.556274,1437
875.673401,1448
875.790527,1480
875.907715,1445
876.024841,1461
876.141968,1425
876.259094,1426
876.376282,1411
876.493347,1424
876.610474,1450
876.7276,1444
876.844727,1438
876.961853,1419
877.078918,1448
877.195984,1438
877.313171,1451
877.430237,1485
877.547302,1463
877.664368,1465
877.781433,1449
877.898499,1409
878.015625,1456
878.13269,1472
878.249695,1426
878.366821,1425
878.483887,1499
878.600952,1440
878.717957,1431
878.834961,1431
878.952087,1473
879.069092,1431
879.186157,1443
879.303162,1455
879.420227,1452
879.537231,1434
879.654236,1474
879.77124,1476
879.888306,1438
880.005249,1463
880.122314,1448
880.239319,1435
880.356323,1425
880.473328,1432
880.590271,1493
880.707275,1464
880.824341,1496
880.941284,1435
881.058228,1475
881.175232,1433
881.292236,1463
881.40918,1435
881.526123,1469
881.643066,1414
881.760071,1437
881.877014,1469
881.993958,1466
882.11084,1468
882.227783,1456
882.344727,1415
882.46167,1480
882.578613,1447
882.695618,1461
882.812439,1454
882.929382,1436
883.046326,1472
883.163208,1434
883.280151,1485
883.397034,1475
883.513916,1467
883.630798,1516
883.747742,1541
883.864563,1494
883.981506,1473
884.098389,1453
884.21521,1441
884.332153,1508
884.448975,1405
884.565796,1462
884.682678,1471
884.7995,1490
884.916443,1468
885.033264,1438
885.150085,1467
885.266968,1448
885.383789,1484
885.500671,1441
885.617493,1528
885.734314,1505
885.851196,1460
885.967896,1448
886.084717,1524
886.201599,1462
886.318359,1438
886.435181,1466
886.552002,1474
886.668762,1489
886.785645,1474
886.902344,1511
887.019165,1465
887.135925,1491
887.252747,1474
887.369446,1504
887.486267,1484
887.603027,1497
887.719788,1477
887.836548,1515
887.953247,1465
888.070068,1447
888.186829,1471
888.303528,1463
888.420288,1472
888.536987,1471
888.653687,1535
888.770447,1495
888.887146,1490
889.003967,1452
889.120667,1492
889.237305,1460
889.354065,1490
889.470703,1523
889.587463,1427
889.704163,1484
889.820862,1507
889.937561,1522
890.054199,1516
890.170837,1499
890.287598,1497
890.404236,1459
890.520874,1474
890.637634,1533
890.754211,1503
890.87085,1495
890.987549,1529
891.104187,1518
891.220886,1500
891.337463,1483
891.454102,1530
891.57074,1528
891.687378,1533
891.804077,1503
891.920654,1540
892.037231,1509
892.15387,1570
892.270447,1512
892.387085,1534
892.503723,1501
892.6203,1500
892.736877,1485
892.853516,1500
892.970032,1538
893.08667,1551
893.203186,1547
893.319763,1499
893.43634,1521
893.552917,1547
893.669556,1510
893.786011,1585
893.902588,1502
894.019165,1530
894.135681,1513
894.252197,1509
894.368835,1546
894.485291,1540
894.601868,1494
894.718384,1547
894.8349,1525
894.951355,1523
895.067932,1555
895.184448,1533
895.300964,1565
895.417419,1505
895.533936,1532
895.650452,1537
895.766907,1518
895.883423,1538
895.999878,1540
896.116333,1561
896.232849,1569
896.349304,1523
896.465759,1569
896.582214,1562
896.698669,1567
896.815125,1550
896.931641,1499
897.048035,1546
897.164551,1513
897.280884,1532
897.397339,1547
897.513794,1558
897.630249,1547
897.746582,1561
897.863098,1551
897.979431,1546
898.095886,1543
898.212341,1545
898.328674,1555
898.445129,1531
898.561462,1555
898.677795,1524
898.794312,1535
898.910645,1538
899.026978,1552
899.143433,1510
899.259766,1514
899.37616,1521
899.492493,1568
899.608765,1570
899.725159,1534
899.841553,1567
899.957947,1587
900.07428,1556
900.190552,1538
900.306946,1519
900.423157,1553
900.53949,1540
900.655884,1565
900.772156,1624
900.888489,1611
901.004822,1506
901.121033,1540
901.237366,1565
901.353699,1546
901.46991,1554
901.586304,1535
901.702515,1562
901.818787,1565
901.93512,1519
902.051331,1552
902.167603,1554
902.283875,1537
902.400085,1582
902.516418,1527
902.632629,1525
902.74884,1547
902.865112,1553
902.981384,1549
903.097595,1571
903.213867,1566
903.330017,1561
903.446289,1555
903.5625,1584
903.67865,1560
903.794922,1586
903.911072,1553
904.027344,1592
904.143494,1543
904.259705,1546
904.375916,1575
904.492065,1543
904.608215,1526
904.724426,1510
904.840576,1577
904.956726,1533
905.072876,1551
905.189087,1565
905.305176,1538
905.421387,1586
905.537537,1580
905.653687,1568
905.769775,1584
905.885925,1550
906.002014,1580
906.118164,1539
906.234314,1608
906.350403,1588
906.466492,1594
906.582642,1555
906.69873,1541
906.814758,1546
906.930908,1563
907.046936,1573
907.163086,1573
907.279175,1568
907.395264,1592
907.511353,1581
907.62738,1584
907.743408,1598
907.859497,1567
907.975525,1605
908.091553,1537
908.207703,1584
908.32373,1600
908.439758,1582
908.555786,1601
908.671814,1621
908.787842,1586
908.90387,1594
909.019775,1573
909.135864,1603
909.251892,1619
909.367859,1615
909.483826,1591
909.599854,1564
909.715881,1528
909.831848,1605
909.947815,1570
910.063782,1593
910.179749,1632
910.295776,1555
910.411743,1594
910.527649,1651
910.643616,1600
910.759583,1611
910.875488,1578
910.991455,1594
911.107361,1567
911.223267,1619
911.339294,1624
911.4552,1603
911.571106,1587
911.687073,1587
911.802979,1631
911.918823,1575
912.034729,1561
912.150635,1595
912.266602,1582
912.382446,1570
912.498352,1566
912.614197,1593
912.730103,1573
912.846008,1623
792.44574,2224
792.56488,2245
792.68396,2242
792.80304,2180
792.92218,2103
793.041199,2089
793.160339,2107
793.279419,2147
793.398499,2084
793.517578,2114
793.636658,2063
793.755737,2097
793.874817,2115
793.993896,2086
794.112976,2100
794.232056,2052
794.351074,2080
794.470215,2102
794.589233,1999
794.708313,2043
794.827393,2023
794.946411,2002
795.065552,2056
795.18457,2037
795.303589,2023
795.422668,2053
795.541687,2022
795.660767,2028
795.779846,1996
795.898865,2009
796.017883,2045
796.136963,1980
796.255981,2055
796.375061,1960
796.49408,2026
796.613037,2052
796.732117,2045
796.851135,1959
796.970154,1996
797.089233,1965
797.208191,1915
797.327271,1973
797.446228,1996
797.565186,1966
797.684265,2015
797.803223,2004
797.922241,1976
798.04126,1989
798.160278,1927
798.279297,1991
798.398315,2001
798.517273,2010
798.636292,1946
798.75531,1950
798.874268,1977
798.993286,1973
799.112244,1997
799.231323,1950
799.350281,2006
799.469238,1955
799.588257,1977
799.707153,1981
799.826111,1939
799.945129,2014
800.064087,1993
800.183044,1925
800.302063,1977
800.421021,1999
800.539978,1963
800.658936,1944
800.777893,2016
800.896912,1975
801.015747,2026
801.134705,1976
801.253723,2010
801.37262,1967
801.491638,2021
801.610535,1983
801.729492,1965
801.84845,2045
801.967407,2024
802.086243,2010
802.205261,1996
802.324158,1990
802.443115,1959
802.562073,2015
802.680969,2064
802.799927,2070
802.918762,2044
803.037659,2056
803.156677,2054
803.275574,2061
803.39447,2067
803.513428,2054
803.632263,2060
803.751221,2037
803.870117,2061
803.989014,2063
804.107971,2057
804.226746,2112
804.345642,2070
804.4646,2104
804.583496,2087
804.702393,2038
804.821228,2065
804.940125,2112
805.059021,2119
805.177917,2070
805.296814,2109
805.415649,2114
805.534546,2126
805.653442,2135
805.772278,2119
805.891113,2154
806.01001,2146
806.128906,2118
806.247742,2108
806.366577,2149
806.485413,2146
806.604309,2168
806.723145,2155
806.84198,2201
806.960876,2203
807.079712,2158
807.198486,2122
807.317383,2178
807.436218,2162
807.554993,2207
807.673889,2147
807.792725,2153
807.91156,2183
808.030396,2160
808.14917,2146
808.268005,2202
808.386841,2149
808.505676,2185
808.624451,2232
808.743286,2182
808.862122,2164
808.980896,2255
809.099731,2197
809.218506,2198
809.337341,2202
809.456116,2232
809.57489,2215
809.693726,2222
809.8125,2213
809.931274,2283
810.050049,2210
810.168884,2251
810.287659,2206
810.406372,2234
810.525269,2237
810.643982,2242
810.762756,2252
810.881531,2243
811.000305,2238
811.11908,2218
811.237854,2234
811.356567,2150
811.475403,2222
811.594116,2238
811.71283,2260
811.831604,2261
811.950378,2216
812.069153,2218
812.187927,2310
812.30658,2289
812.425415,2221
812.544128,2256
812.662781,2245
812.781616,2269
812.900269,2256
813.019043,2228
813.137756,2216
813.256531,2276
813.375244,2209
813.493896,2232
813.612671,2321
813.731384,2273
813.850037,2223
813.96875,2226
814.087524,2193
814.206238,2269
814.324951,2180
814.443604,2184
814.562256,2219
814.68103,2256
814.799683,2223
814.918335,2157
815.037109,2223
815.155762,2223
815.274475,2118
815.393188,2126
815.511841,2189
815.630554,2222
815.749146,2140
815.867859,2134
815.986572,2087
816.105164,2168
816.223877,2117
816.342529,2142
816.461182,2178
816.579895,2119
816.698486,2195
816.817139,2144
816.935791,2165
817.054504,2177
817.173096,2156
817.291748,2104
817.4104,2145
817.529053,2084
817.647644,2040
817.766235,1973
817.884949,1969
818.00354,1949
818.122192,1948
818.240845,1900
818.359436,1825
818.478088,1773
818.59668,1776
818.715271,1730
818.833923,1759
818.952515,1706
819.071106,1715
819.189758,1649
819.30835,1685
819.426941,1627
819.545532,1645
819.664124,1613
819.782715,1604
819.901306,1629
820.019897,1593
820.138489,1631
820.25708,1606
820.375671,1551
820.494202,1544
820.612732,1596
820.731384,1565
820.849915,1512
820.968506,1535
821.087097,1541
821.205627,1546
821.324158,1538
821.442749,1547
821.561279,1545
821.679871,1523
821.798401,1516
821.916931,1505
822.035461,1553
822.154053,1503
822.272583,1525
822.391174,1545
822.509583,1525
822.628174,1515
822.746704,1490
822.865234,1511
822.983765,1436
823.102295,1505
823.220825,1497
823.339294,1513
823.457825,1524
823.576355,1509
823.694824,1537
823.813354,1492
823.931885,1508
824.050354,1561
824.168884,1494
824.287354,1564
824.405823,1519
824.524353,1519
824.642822,1507
824.761353,1541
824.879822,1538
824.998291,1520
825.116699,1500
825.235291,1535
825.353699,1539
825.472168,1502
825.590637,1510
825.709106,1489
825.827576,1518
825.946045,1468
826.064453,1445
826.182983,1476
826.301392,1454
826.4198,1457
826.53833,1472
826.656738,1460
826.775208,1435
826.893677,1471
827.012024,1433
827.130493,1448
827.248962,1406
827.36731,1439
827.485779,1406
827.604248,1439
827.722595,1447
827.841064,1425
827.959412,1408
828.077942,1421
828.196289,1447
828.314636,1407
828.433105,1433
828.551514,1418
828.669861,1427
828.78833,1367
828.906677,1428
829.025085,1384
829.143433,1420
829.261841,1424
829.38031,1402
829.498657,1391
829.617004,1402
829.735413,1440
829.85376,1385
829.972107,1391
830.090515,1415
830.208862,1444
830.327209,1422
830.445557,1406
830.563904,1393
830.682312,1421
830.800659,1419
830.919006,1421
831.037354,1388
831.155701,1395
831.274048,1429
831.392395,1398
831.51062,1339
831.629028,1384
831.747314,1425
831.865662,1381
831.984009,1335
832.102356,1415
832.220642,1421
832.338928,1431
832.457275,1435
832.575623,1400
832.693909,1376
832.812134,1364
832.930481,1373
833.048828,1376
833.167114,1394
833.2854,1391
833.403687,1368
833.521973,1403
833.640259,1391
833.758545,1416
833.876831,1403
833.995056,1411
834.113281,1376
834.231628,1425
834.349915,1338
834.468201,1401
834.586426,1422
834.704651,1385
834.822998,1411
834.941162,1386
835.059448,1430
835.177673,1459
835.295959,1404
835.414246,1405
835.53241,1378
835.650635,1383
835.768921,1418
835.887146,1404
836.005371,1450
836.123596,1499
836.241821,1434
836.360046,1452
836.478271,1437
836.596497,1492
836.714722,1451
836.832886,1468
836.95105,1481
837.069336,1474
837.1875,1531
837.305725,1544
837.423889,1492
837.542053,1479
837.660339,1493
837.778503,1495
837.896667,1468
838.014832,1557
838.132996,1505
838.25116,1484
838.369385,1493
838.487488,1462
838.605713,1491
838.723877,1567
838.84198,1467
838.960205,1447
839.078308,1508
839.196472,1444
839.314636,1460
839.4328,1463
839.550964,1449
839.669067,1469
839.787231,1455
839.905396,1471
840.023499,1440
840.141602,1476
840.259766,1429
840.377869,1486
840.495972,1481
840.614136,1434
840.732239,1484
840.850342,1416
840.968445,1415
841.086548,1371
841.204651,1432
841.322754,1422
841.440918,1406
841.55896,1445
841.677002,1401
841.795166,1400
841.913208,1404
842.031311,1394
842.149353,1434
842.267456,1389
842.385498,1413
842.503601,1364
842.621643,1400
842.739746,1390
842.857788,1375
842.97583,1363
843.093933,1364
843.211975,1390
843.330017,1364
843.44812,1393
843.566101,1433
843.684204,1410
843.802246,1361
843.920227,1398
844.038269,1395
844.156311,1362
844.274292,1372
844.392395,1393
844.510376,1386
844.628357,1377
844.74646,1374
844.864441,1397
844.982422,1336
845.100403,1395
845.218384,1371
845.336426,1375
845.454468,1367
845.572449,1324
845.69043,1353
845.808411,1351
845.926453,1353
846.044373,1366
846.162354,1344
846.280396,1334
846.398315,1413
846.516296,1362
846.634216,1349
846.752197,1382
846.870178,1374
846.988098,1341
847.106079,1389
847.22406,1390
847.34198,1373
847.4599,1376
847.577881,1354
847.695801,1372
847.813782,1385
847.931641,1405
848.049561,1362
848.167603,1360
848.285461,1394
848.403381,1402
848.521362,1386
848.639221,1320
848.75708,1357
848.875,1368
848.99292,1378
849.110901,1309
849.22876,1365
849.34668,1392
849.464539,1366
849.582458,1360
849.700317,1359
849.818176,1344
849.936096,1351
850.053955,1358
850.171875,1414
850.289673,1369
850.407593,1328
850.525452,1380
850.643311,1361
850.761169,1429
850.878967,1320
850.996887,1381
851.114746,1392
851.232544,1344
851.350403,1396
851.468262,1356
851.58606,1394
851.703979,1381
851.821777,1383
851.939636,1384
852.057434,1350
852.175232,1429
852.293091,1367
852.410889,1384
852.528687,1376
852.646545,1349
852.764343,1368
852.88208,1392
852.999939,1393
853.117676,1401
853.235535,1389
853.353271,1393
853.471069,1367
853.588928,1442
853.706604,1377
853.824402,1403
853.9422,1434
854.059998,1384
854.177734,1420
854.295532,1433
854.413269,1437
854.531006,1399
854.648804,1442
854.766541,1389
854.884277,1372
855.002014,1395
855.119751,1399
855.237549,1420
855.355225,1438
855.473022,1388
855.590698,1449
855.708435,1395
855.826172,1409
855.943848,1431
856.061646,1417
856.179321,1391
856.296997,1412
856.414795,1422
856.53241,1437
856.650085,1409
856.767822,1444
856.885559,1449
857.003174,1448
857.120911,1418
857.238586,1430
857.356201,1440
857.473938,1419
857.591614,1422
857.709351,1396
857.826965,1427
857.944641,1388
858.062317,1427
858.179993,1399
858.297668,1393
858.415283,1432
858.532959,1423
858.650574,1422
858.768188,1372
858.885803,1417
859.003479,1410
859.121094,1422
859.23877,1444
859.356384,1420
859.473999,1404
859.591675,1425
859.709229,1397
859.826843,1458
859.944458,1380
860.062012,1404
860.179626,1356
860.297302,1393
860.414856,1391
860.532471,1438
860.650024,1395
860.767639,1432
860.885193,1391
861.002808,1391
861.120361,1401
861.237976,1392
861.35553,1435
861.473022,1408
861.590698,1437
861.708191,1398
861.825745,1437
861.943298,1394
862.060852,1394
862.178406,1419
862.295959,1401
862.413513,1389
862.531006,1401
862.64856,1399
862.766113,1405
862.883667,1394
863.00116,1373
863.118713,1423
863.236206,1424
863.353699,1409
863.471252,1408
863.588745,1419
863.706177,1420
863.82373,1367
863.941162,1387
864.058716,1400
864.176208,1462
864.29364,1409
864.411194,1404
864.528687,1437
864.646118,1426
864.763611,1406
864.881042,1421
864.998535,1390
865.116028,1451
865.233459,1395
865.350891,1449
865.468384,1447
865.585754,1411
865.703308,1420
865.820679,1415
865.938171,1458
866.055542,1412
866.173035,1421
866.290466,1423
866.407837,1441
866.52533,1428
866.6427,1471
866.760071,1410
866.877563,1434
866.994934,1415
867.112305,1452
867.229736,1464
867.347107,1436
867.464539,1416
867.58197,1422
867.699341,1437
867.81665,1472
867.934082,1459
868.051453,1436
868.168823,1463
868.286194,1424
868.403564,1441
868.520935,1435
868.638306,1452
868.755676,1430
868.872986,1415
868.990295,1480
869.107727,1483
869.225037,1425
869.342346,1466
869.459717,1403
869.577026,1448
869.694336,1418
869.811707,1443
869.929016,1431
870.046326,1466
870.163635,1431
870.280945,1427
870.398254,1466
870.515564,1448
870.632812,1436
870.750183,1472
870.867432,1484
870.984741,1430
871.102051,1445
871.219299,1441
871.336609,1447
871.453918,1447
871.571106,1446
871.688416,1445
871.805664,1465
871.922852,1412
872.040222,1433
872.157471,1475
872.274719,1439
872.391968,1467
872.509155,1410
872.626465,1446
872.743652,1461
872.860962,1466
872.978149,1441
873.095337,1419
873.212646,1428
873.329834,1494
873.44696,1455
873.564209,1460
873.681396,1448
873.798645,1439
873.915894,1422
874.03302,1403
874.150208,1469
874.267456,1454
874.384583,1443
874.501831,1425
874.618958,1441
874.736145,1440
874.853333,1421
874.970459,1445
875.087646,1417
875.204834,1481
875.32196,1447
875.439148,1438
875.556274,1431
875.673401,1490
875.790527,1426
875.907715,1428
876.024841,1461
876.141968,1423
876.259094,1437
876.376282,1442
876.493347,1420
876.610474,1453
876.7276,1429
876.844727,1449
876.961853,1466
877.078918,1462
877.195984,1481
877.313171,1452
877.430237,1494
877.547302,1447
877.664368,1462
877.781433,1467
877.898499,1465
878.015625,1460
878.13269,1484
878.249695,1435
878.366821,1430
878.483887,1425
878.600952,1457
878.717957,1447
878.834961,1478
878.952087,1438
879.069092,1443
879.186157,1509
879.303162,1466
879.420227,1473
879.537231,1444
879.654236,1494
879.77124,1463
879.888306,1456
880.005249,1468
880.122314,1490
880.239319,1475
880.356323,1433
880.473328,1512
880.590271,1438
880.707275,1445
880.824341,1449
880.941284,1472
881.058228,1450
881.175232,1484
881.292236,1454
881.40918,1439
881.526123,1467
881.643066,1442
881.760071,1494
881.877014,1492
881.993958,1452
882.11084,1463
882.227783,1468
882.344727,1430
882.46167,1483
882.578613,1447
882.695618,1502
882.812439,1452
882.929382,1464
883.046326,1456
883.163208,1458
883.280151,1479
883.397034,1486
883.513916,1527
883.630798,1500
883.747742,1477
883.864563,1488
883.981506,1494
884.098389,1440
884.21521,1508
884.332153,1476
884.448975,1492
884.565796,1483
884.682678,1488
884.7995,1507
884.916443,1474
885.033264,1508
885.150085,1467
885.266968,1487
885.383789,1495
885.500671,1474
885.617493,1503
885.734314,1498
885.851196,1472
885.967896,1504
886.084717,1507
886.201599,1487
886.318359,1477
886.435181,1544
886.552002,1485
886.668762,1475
886.785645,1501
886.902344,1498
887.019165,1490
887.135925,1514
887.252747,1526
887.369446,1499
887.486267,1508
887.603027,1489
887.719788,1531
887.836548,1536
887.953247,1501
888.070068,1489
888.186829,1499
888.303528,1497
888.420288,1543
888.536987,1497
888.653687,1495
888.770447,1462
888.887146,1519
889.003967,1469
889.120667,1484
889.237305,1495
889.354065,1530
889.470703,1541
889.587463,1514
889.704163,1516
889.820862,1517
889.937561,1468
890.054199,1534
890.170837,1477
890.287598,1485
890.404236,1533
890.520874,1528
890.637634,1545
890.754211,1554
890.87085,1500
890.987549,1510
891.104187,1545
891.220886,1537
891.337463,1498
891.454102,1545
891.57074,1529
891.687378,1544
891.804077,1554
891.920654,1496
892.037231,1519
892.15387,1545
892.270447,1541
892.387085,1531
892.503723,1543
892.6203,1524
892.736877,1542
892.853516,1536
892.970032,1497
893.08667,1545
893.203186,1501
893.319763,1540
893.43634,1550
893.552917,1563
893.669556,1504
893.786011,1535
893.902588,1553
894.019165,1561
894.135681,1521
894.252197,1596
894.368835,1539
894.485291,1552
894.601868,1562
894.718384,1505
894.8349,1526
894.951355,1606
895.067932,1566
895.184448,1556
895.300964,1524
895.417419,1545
895.533936,1527
895.650452,1540
895.766907,1574
895.883423,1538
895.999878,1566
896.116333,1537
896.232849,1540
896.349304,1571
896.465759,1573
896.582214,1564
896.698669,1529
896.815125,1527
896.931641,1559
897.048035,1540
897.164551,1558
897.280884,1516
897.397339,1564
897.513794,1532
897.630249,1606
897.746582,1546
897.863098,1522
897.979431,1506
898.095886,1589
898.212341,1550
898.328674,1566
898.445129,1556
898.561462,1561
898.677795,1594
898.794312,1594
898.910645,1560
899.026978,1569
899.143433,1565
899.259766,1570
899.37616,1553
899.492493,1536
899.608765,1539
899.725159,1525
899.841553,1573
899.957947,1552
900.07428,1546
900.190552,1584
900.306946,1540
900.423157,1587
900.53949,1568
900.655884,1583
900.772156,1534
900.888489,1571
901.004822,1590
901.121033,1564
901.237366,1519
901.353699,1576
901.46991,1604
901.586304,1572
901.702515,1558
901.818787,1573
901.93512,1564
902.051331,1584
902.167603,1535
902.283875,1537
902.400085,1573
902.516418,1543
902.632629,1608
902.74884,1592
902.865112,1526
902.981384,1556
903.097595,1573
903.213867,1620
903.330017,1555
903.446289,1556
903.5625,1588
903.67865,1584
903.794922,1592
903.911072,1527
904.027344,1581
904.143494,1588
904.259705,1599
904.375916,1622
904.492065,1575
904.608215,1586
904.724426,1566
904.840576,1542
904.956726,1529
905.072876,1561
905.189087,1596
905.305176,1601
905.421387,1600
905.537537,1555
905.653687,1593
905.769775,1574
905.885925,1543
906.002014,1560
906.118164,1566
906.234314,1591
906.350403,1594
906.466492,1646
906.582642,1572
906.69873,1597
906.814758,1601
906.930908,1601
907.046936,1572
907.163086,1570
907.279175,1602
907.395264,1559
907.511353,1613
907.62738,1597
907.743408,1597
907.859497,1570
907.975525,1608
908.091553,1632
908.207703,1586
908.32373,1580
908.439758,1593
908.555786,1610
908.671814,1573
908.787842,1580
908.90387,1559
909.019775,1606
909.135864,1625
909.251892,1619
909.367859,1634
909.483826,1583
909.599854,1557
909.715881,1627
909.831848,1613
909.947815,1598
910.063782,1630
910.179749,1659
910.295776,1602
910.411743,1576
910.527649,1591
910.643616,1603
910.759583,1628
910.875488,1590
910.991455,1606
911.107361,1576
911.223267,1601
911.339294,1606
911.4552,1576
911.571106,1595
911.687073,1576
911.802979,1566
911.918823,1616
912.034729,1663
912.150635,1552
912.266602,1627
912.382446,1581
912.498352,1594
912.614197,1611
912.730103,1612
912.846008,1591
