792.44574,1643
792.56488,1637
792.68396,1667
792.80304,1597
792.92218,1610
793.041199,1565
793.160339,1569
793.279419,1538
793.398499,1602
793.517578,1539
793.636658,1557
793.755737,1549
793.874817,1562
793.993896,1579
794.112976,1515
794.232056,1540
794.351074,1568
794.470215,1593
794.589233,1536
794.708313,1528
794.827393,1574
794.946411,1505
795.065552,1526
795.18457,1520
795.303589,1532
795.422668,1531
795.541687,1530
795.660767,1531
795.779846,1514
795.898865,1538
796.017883,1493
796.136963,1489
796.255981,1537
796.375061,1537
796.49408,1473
796.613037,1530
796.732117,1526
796.851135,1501
796.970154,1493
797.089233,1494
797.208191,1488
797.327271,1481
797.446228,1472
797.565186,1511
797.684265,1542
797.803223,1497
797.922241,1525
798.04126,1459
798.160278,1460
798.279297,1482
798.398315,1450
798.517273,1461
798.636292,1426
798.75531,1485
798.874268,1504
798.993286,1489
799.112244,1425
799.231323,1469
799.350281,1450
799.469238,1450
799.588257,1464
799.707153,1466
799.826111,1495
799.945129,1494
800.064087,1445
800.183044,1465
800.302063,1455
800.421021,1472
800.539978,1456
800.658936,1502
800.777893,1505
800.896912,1443
801.015747,1484
801.134705,1409
801.253723,1503
801.37262,1468
801.491638,1461
801.610535,1424
801.729492,1456
801.84845,1483
801.967407,1464
802.086243,1464
802.205261,1446
802.324158,1476
802.443115,1497
802.562073,1489
802.680969,1495
802.799927,1468
802.918762,1480
803.037659,1471
803.156677,1470
803.275574,1486
803.39447,1519
803.513428,1464
803.632263,1481
803.751221,1447
803.870117,1478
803.989014,1433
804.107971,1472
804.226746,1448
804.345642,1460
804.4646,1450
804.583496,1470
804.702393,1488
804.821228,1428
804.940125,1547
805.059021,1446
805.177917,1479
805.296814,1443
805.415649,1466
805.534546,1464
805.653442,1496
805.772278,1445
805.891113,1439
806.01001,1484
806.128906,1458
806.247742,1507
806.366577,1440
806.485413,1495
806.604309,1487
806.723145,1509
806.84198,1479
806.960876,1438
807.079712,1458
807.198486,1471
807.317383,1479
807.436218,1459
807.554993,1459
807.673889,1489
807.792725,1482
807.91156,1467
808.030396,1458
808.14917,1487
808.268005,1441
808.386841,1487
808.505676,1471
808.624451,1471
808.743286,1492
808.862122,1463
808.980896,1492
809.099731,1470
809.218506,1464
809.337341,1492
809.456116,1458
809.57489,1488
809.693726,1470
809.8125,1478
809.931274,1498
810.050049,1501
810.168884,1472
810.287659,1479
810.406372,1441
810.525269,1480
810.643982,1470
810.762756,1500
810.881531,1491
811.000305,1472
811.11908,1446
811.237854,1434
811.356567,1460
811.475403,1475
811.594116,1470
811.71283,1481
811.831604,1461
811.950378,1492
812.069153,1421
812.187927,1488
812.30658,1514
812.425415,1476
812.544128,1460
812.662781,1445
812.781616,1502
812.900269,1457
813.019043,1498
813.137756,1490
813.256531,1442
813.375244,1438
813.493896,1451
813.612671,1442
813.731384,1428
813.850037,1434
813.96875,1505
814.087524,1466
814.206238,1451
814.324951,1461
814.443604,1454
814.562256,1442
814.68103,1503
814.799683,1448
814.918335,1409
815.037109,1415
815.155762,1437
815.274475,1428
815.393188,1399
815.511841,1427
815.630554,1413
815.749146,1418
815.867859,1451
815.986572,1440
816.105164,1440
816.223877,1436
816.342529,1436
816.461182,1442
816.579895,1422
816.698486,1438
816.817139,1442
816.935791,1468
817.054504,1447
817.173096,1449
817.291748,1452
817.4104,1443
817.529053,1430
817.647644,1463
817.766235,1382
817.884949,1384
818.00354,1447
818.122192,1394
818.240845,1415
818.359436,1370
818.478088,1372
818.59668,1392
818.715271,1393
818.833923,1381
818.952515,1406
819.071106,1347
819.189758,1304
819.30835,1380
819.426941,1366
819.545532,1346
819.664124,1369
819.782715,1343
819.901306,1357
820.019897,1326
820.138489,1340
820.25708,1359
820.375671,1386
820.494202,1342
820.612732,1378
820.731384,1335
820.849915,1354
820.968506,1301
821.087097,1346
821.205627,1355
821.324158,1328
821.442749,1314
821.561279,1370
821.679871,1339
821.798401,1334
821.916931,1336
822.035461,1319
822.154053,1321
822.272583,1310
822.391174,1305
822.509583,1340
822.628174,1300
822.746704,1354
822.865234,1303
822.983765,1319
823.102295,1370
823.220825,1349
823.339294,1329
823.457825,1287
823.576355,1292
823.694824,1348
823.813354,1353
823.931885,1316
824.050354,1322
824.168884,1306
824.287354,1370
824.405823,1340
824.524353,1320
824.642822,1348
824.761353,1288
824.879822,1331
824.998291,1343
825.116699,1305
825.235291,1263
825.353699,1291
825.472168,1288
825.590637,1334
825.709106,1291
825.827576,1361
825.946045,1305
826.064453,1307
826.182983,1310
826.301392,1329
826.4198,1288
826.53833,1292
826.656738,1296
826.775208,1334
826.893677,1297
827.012024,1297
827.130493,1285
827.248962,1280
827.36731,1329
827.485779,1311
827.604248,1289
827.722595,1242
827.841064,1283
827.959412,1274
828.077942,1264
828.196289,1264
828.314636,1286
828.433105,1265
828.551514,1311
828.669861,1271
828.78833,1254
828.906677,1310
829.025085,1280
829.143433,1325
829.261841,1287
829.38031,1326
829.498657,1271
829.617004,1292
829.735413,1276
829.85376,1285
829.972107,1269
830.090515,1275
830.208862,1257
830.327209,1320
830.445557,1251
830.563904,1280
830.682312,1332
830.800659,1281
830.919006,1335
831.037354,1297
831.155701,1278
831.274048,1291
831.392395,1293
831.51062,1297
831.629028,1289
831.747314,1270
831.865662,1261
831.984009,1281
832.102356,1272
832.220642,1270
832.338928,1253
832.457275,1310
832.575623,1267
832.693909,1292
832.812134,1294
832.930481,1292
833.048828,1315
833.167114,1258
833.2854,1300
833.403687,1278
833.521973,1309
833.640259,1317
833.758545,1257
833.876831,1279
833.995056,1275
834.113281,1286
834.231628,1291
834.349915,1294
834.468201,1263
834.586426,1252
834.704651,1305
834.822998,1327
834.941162,1331
835.059448,1298
835.177673,1299
835.295959,1294
835.414246,1263
835.53241,1280
835.650635,1298
835.768921,1308
835.887146,1225
836.005371,1337
836.123596,1284
836.241821,1272
836.360046,1232
836.478271,1281
836.596497,1304
836.714722,1279
836.832886,1308
836.95105,1277
837.069336,1292
837.1875,1279
837.305725,1257
837.423889,1279
837.542053,1311
837.660339,1253
837.778503,1277
837.896667,1320
838.014832,1311
838.132996,1255
838.25116,1290
838.369385,1293
838.487488,1262
838.605713,1282
838.723877,1269
838.84198,1312
838.960205,1270
839.078308,1259
839.196472,1256
839.314636,1281
839.4328,1249
839.550964,1250
839.669067,1252
839.787231,1309
839.905396,1273
840.023499,1287
840.141602,1235
840.259766,1240
840.377869,1273
840.495972,1304
840.614136,1281
840.732239,1292
840.850342,1242
840.968445,1254
841.086548,1234
841.204651,1266
841.322754,1305
841.440918,1287
841.55896,1288
841.677002,1315
841.795166,1261
841.913208,1261
842.031311,1262
842.149353,1273
842.267456,1297
842.385498,1315
842.503601,1234
842.621643,1294
842.739746,1279
842.857788,1228
842.97583,1245
843.093933,1251
843.211975,1247
843.330017,1281
843.44812,1278
843.566101,1280
843.684204,1277
843.802246,1234
843.920227,1265
844.038269,1275
844.156311,1308
844.274292,1247
844.392395,1260
844.510376,1278
844.628357,1256
844.74646,1256
844.864441,1251
844.982422,1265
845.100403,1289
845.218384,1313
845.336426,1285
845.454468,1258
845.572449,1260
845.69043,1276
845.808411,1304
845.926453,1249
846.044373,1199
846.162354,1303
846.280396,1245
846.398315,1245
846.516296,1271
846.634216,1286
846.752197,1255
846.870178,1246
846.988098,1265
847.106079,1260
847.22406,1234
847.34198,1263
847.4599,1260
847.577881,1260
847.695801,1257
847.813782,1260
847.931641,1268
848.049561,1284
848.167603,1265
848.285461,1298
848.403381,1311
848.521362,1229
848.639221,1242
848.75708,1317
848.875,1296
848.99292,1283
849.110901,1269
849.22876,1242
849.34668,1243
849.464539,1262
849.582458,1242
849.700317,1234
849.818176,1306
849.936096,1279
850.053955,1287
850.171875,1265
850.289673,1255
850.407593,1259
850.525452,1293
850.643311,1281
850.761169,1287
850.878967,1252
850.996887,1270
851.114746,1244
851.232544,1259
851.350403,1266
851.468262,1279
851.58606,1282
851.703979,1286
851.821777,1269
851.939636,1278
852.057434,1227
852.175232,1277
852.293091,1256
852.410889,1316
852.528687,1279
852.646545,1284
852.764343,1288
852.88208,1266
852.999939,1252
853.117676,1273
853.235535,1285
853.353271,1283
853.471069,1291
853.588928,1293
853.706604,1290
853.824402,1276
853.9422,1276
854.059998,1260
854.177734,1238
854.295532,1270
854.413269,1272
854.531006,1222
854.648804,1260
854.766541,1264
854.884277,1254
855.002014,1254
855.119751,1294
855.237549,1270
855.355225,1256
855.473022,1273
855.590698,1286
855.708435,1281
855.826172,1299
855.943848,1289
856.061646,1314
856.179321,1275
856.296997,1269
856.414795,1252
856.53241,1286
856.650085,1296
856.767822,1315
856.885559,1305
857.003174,1267
857.120911,1255
857.238586,1288
857.356201,1294
857.473938,1267
857.591614,1288
857.709351,1264
857.826965,1302
857.944641,1250
858.062317,1263
858.179993,1295
858.297668,1279
858.415283,1293
858.532959,1261
858.650574,1277
858.768188,1271
858.885803,1274
859.003479,1287
859.121094,1293
859.23877,1288
859.356384,1284
859.473999,1286
859.591675,1259
859.709229,1278
859.826843,1281
859.944458,1296
860.062012,1289
860.179626,1252
860.297302,1268
860.414856,1274
860.532471,1286
860.650024,1326
860.767639,1293
860.885193,1273
861.002808,1259
861.120361,1302
861.237976,1264
861.35553,1295
861.473022,1275
861.590698,1290
861.708191,1328
861.825745,1320
861.943298,1254
862.060852,1308
862.178406,1277
862.295959,1300
862.413513,1306
862.531006,1260
862.64856,1279
862.766113,1298
862.883667,1280
863.00116,1253
863.118713,1281
863.236206,1266
863.353699,1293
863.471252,1249
863.588745,1266
863.706177,1287
863.82373,1282
863.941162,1266
864.058716,1277
864.176208,1276
864.29364,1317
864.411194,1267
864.528687,1313
864.646118,1279
864.763611,1268
864.881042,1300
864.998535,1267
865.116028,1313
865.233459,1274
865.350891,1259
865.468384,1299
865.585754,1320
865.703308,1268
865.820679,1283
865.938171,1286
866.055542,1254
866.173035,1265
866.290466,1262
866.407837,1317
866.52533,1325
866.6427,1296
866.760071,1305
866.877563,1252
866.994934,1272
867.112305,1267
867.229736,1343
867.347107,1266
867.464539,1324
867.58197,1314
867.699341,1282
867.81665,1307
867.934082,1279
868.051453,1304
868.168823,1285
868.286194,1299
868.403564,1258
868.520935,1277
868.638306,1243
868.755676,1297
868.872986,1311
868.990295,1268
869.107727,1295
869.225037,1325
869.342346,1260
869.459717,1302
869.577026,1303
869.694336,1290
869.811707,1302
869.929016,1286
870.046326,1305
870.163635,1284
870.280945,1297
870.398254,1296
870.515564,1302
870.632812,1267
870.750183,1314
870.867432,1315
870.984741,1325
871.102051,1265
871.219299,1300
871.336609,1308
871.453918,1288
871.571106,1336
871.688416,1317
871.805664,1282
871.922852,1288
872.040222,1300
872.157471,1245
872.274719,1296
872.391968,1309
872.509155,1269
872.626465,1323
872.743652,1294
872.860962,1322
872.978149,1315
873.095337,1319
873.212646,1316
873.329834,1321
873.44696,1279
873.564209,1250
873.681396,1314
873.798645,1312
873.915894,1282
874.03302,1317
874.150208,1292
874.267456,1299
874.384583,1299
874.501831,1257
874.618958,1265
874.736145,1348
874.853333,1285
874.970459,1294
875.087646,1316
875.204834,1299
875.32196,1292
875.439148,1316
875.556274,1259
875.673401,1322
875.790527,1275
875.907715,1311
876.024841,1349
876.141968,1315
876.259094,1324
876.376282,1311
876.493347,1302
876.610474,1317
876.7276,1337
876.844727,1324
876.961853,1329
877.078918,1289
877.195984,1284
877.313171,1254
877.430237,1297
877.547302,1295
877.664368,1304
877.781433,1303
877.898499,1314
878.015625,1335
878.13269,1309
878.249695,1307
878.366821,1313
878.483887,1297
878.600952,1306
878.717957,1336
878.834961,1334
878.952087,1321
879.069092,1319
879.186157,1347
879.303162,1285
879.420227,1307
879.537231,1359
879.654236,1314
879.77124,1348
879.888306,1281
880.005249,1299
880.122314,1331
880.239319,1342
880.356323,1322
880.473328,1311
880.590271,1316
880.707275,1337
880.824341,1267
880.941284,1306
881.058228,1318
881.175232,1336
881.292236,1307
881.40918,1267
881.526123,1305
881.643066,1301
881.760071,1335
881.877014,1278
881.993958,1315
882.11084,1346
882.227783,1303
882.344727,1297
882.46167,1272
882.578613,1339
882.695618,1336
882.812439,1317
882.929382,1311
883.046326,1332
883.163208,1322
883.280151,1313
883.397034,1326
883.513916,1297
883.630798,1305
883.747742,1309
883.864563,1272
883.981506,1273
884.098389,1312
884.21521,1328
884.332153,1281
884.448975,1324
884.565796,1298
884.682678,1329
884.7995,1309
884.916443,1333
885.033264,1351
885.150085,1302
885.266968,1350
885.383789,1302
885.500671,1324
885.617493,1352
885.734314,1304
885.851196,1346
885.967896,1342
886.084717,1325
886.201599,1329
886.318359,1310
886.435181,1339
886.552002,1261
886.668762,1330
886.785645,1308
886.902344,1310
887.019165,1351
887.135925,1347
887.252747,1332
887.369446,1346
887.486267,1296
887.603027,1347
887.719788,1331
887.836548,1363
887.953247,1304
888.070068,1314
888.186829,1339
888.303528,1323
888.420288,1324
888.536987,1311
888.653687,1301
888.770447,1364
888.887146,1308
889.003967,1334
889.120667,1372
889.237305,1348
889.354065,1335
889.470703,1384
889.587463,1363
889.704163,1366
889.820862,1320
889.937561,1372
890.054199,1358
890.170837,1321
890.287598,1341
890.404236,1311
890.520874,1341
890.637634,1329
890.754211,1349
890.87085,1352
890.987549,1319
891.104187,1389
891.220886,1365
891.337463,1381
891.454102,1361
891.57074,1360
891.687378,1350
891.804077,1359
891.920654,1361
892.037231,1392
892.15387,1334
892.270447,1379
892.387085,1353
892.503723,1358
892.6203,1345
892.736877,1380
892.853516,1383
892.970032,1366
893.08667,1370
893.203186,1354
893.319763,1305
893.43634,1353
893.552917,1372
893.669556,1356
893.786011,1342
893.902588,1408
894.019165,1381
894.135681,1369
894.252197,1373
894.368835,1367
894.485291,1349
894.601868,1336
894.718384,1345
894.8349,1368
894.951355,1342
895.067932,1388
895.184448,1342
895.300964,1395
895.417419,1369
895.533936,1375
895.650452,1342
895.766907,1386
895.883423,1398
895.999878,1364
896.116333,1387
896.232849,1354
896.349304,1396
896.465759,1346
896.582214,1400
896.698669,1305
896.815125,1403
896.931641,1330
897.048035,1350
897.164551,1369
897.280884,1427
897.397339,1325
897.513794,1358
897.630249,1363
897.746582,1396
897.863098,1399
897.979431,1375
898.095886,1367
898.212341,1386
898.328674,1336
898.445129,1412
898.561462,1382
898.677795,1388
898.794312,1372
898.910645,1395
899.026978,1369
899.143433,1384
899.259766,1386
899.37616,1368
899.492493,1381
899.608765,1325
899.725159,1388
899.841553,1408
899.957947,1385
900.07428,1352
900.190552,1393
900.306946,1368
900.423157,1406
900.53949,1308
900.655884,1376
900.772156,1366
900.888489,1386
901.004822,1369
901.121033,1385
901.237366,1363
901.353699,1386
901.46991,1359
901.586304,1431
901.702515,1383
901.818787,1384
901.93512,1392
902.051331,1344
902.167603,1373
902.283875,1381
902.400085,1401
902.516418,1401
902.632629,1388
902.74884,1425
902.865112,1386
902.981384,1393
903.097595,1365
903.213867,1381
903.330017,1409
903.446289,1363
903.5625,1392
903.67865,1391
903.794922,1453
903.911072,1393
904.027344,1413
904.143494,1408
904.259705,1385
904.375916,1327
904.492065,1399
904.608215,1403
904.724426,1372
904.840576,1411
904.956726,1380
905.072876,1372
905.189087,1373
905.305176,1384
905.421387,1432
905.537537,1363
905.653687,1346
905.769775,1412
905.885925,1397
906.002014,1391
906.118164,1387
906.234314,1365
906.350403,1417
906.466492,1407
906.582642,1413
906.69873,1370
906.814758,1394
906.930908,1407
907.046936,1359
907.163086,1421
907.279175,1358
907.395264,1385
907.511353,1370
907.62738,1417
907.743408,1405
907.859497,1361
907.975525,1405
908.091553,1395
908.207703,1420
908.32373,1372
908.439758,1401
908.555786,1392
908.671814,1363
908.787842,1420
908.90387,1400
909.019775,1392
909.135864,1407
909.251892,1412
909.367859,1370
909.483826,1438
909.599854,1390
909.715881,1444
909.831848,1395
909.947815,1357
910.063782,1385
910.179749,1401
910.295776,1425
910.411743,1417
910.527649,1400
910.643616,1424
910.759583,1383
910.875488,1432
910.991455,1421
911.107361,1424
911.223267,1413
911.339294,1450
911.4552,1397
911.571106,1421
911.687073,1420
911.802979,1394
911.918823,1432
912.034729,1431
912.150635,1418
912.266602,1433
912.382446,1426
912.498352,1395
912.614197,1395
912.730103,1417
912.846008,1402
792.44574,1691
792.56488,1658
792.68396,1673
792.80304,1635
792.92218,1588
793.041199,1560
793.160339,1567
793.279419,1596
793.398499,1676
793.517578,1590
793.636658,1568
793.755737,1554
793.874817,1598
793.993896,1611
794.112976,1547
794.232056,1582
794.351074,1552
794.470215,1585
794.589233,1594
794.708313,1528
794.827393,1559
794.946411,1546
795.065552,1526
795.18457,1537
795.303589,1560
795.422668,1541
795.541687,1555
795.660767,1567
795.779846,1519
795.898865,1545
796.017883,1549
796.136963,1517
796.255981,1538
796.375061,1527
796.49408,1562
796.613037,1514
796.732117,1510
796.851135,1542
796.970154,1559
797.089233,1520
797.208191,1468
797.327271,1560
797.446228,1520
797.565186,1552
797.684265,1486
797.803223,1509
797.922241,1514
798.04126,1521
798.160278,1509
798.279297,1484
798.398315,1552
798.517273,1508
798.636292,1495
798.75531,1508
798.874268,1514
798.993286,1502
799.112244,1479
799.231323,1504
799.350281,1533
799.469238,1480
799.588257,1505
799.707153,1457
799.826111,1558
799.945129,1489
800.064087,1518
800.183044,1487
800.302063,1497
800.421021,1526
800.539978,1510
800.658936,1482
800.777893,1477
800.896912,1444
801.015747,1500
801.134705,1477
801.253723,1535
801.37262,1476
801.491638,1461
801.610535,1534
801.729492,1488
801.84845,1443
801.967407,1487
802.086243,1498
802.205261,1452
802.324158,1479
802.443115,1484
802.562073,1464
802.680969,1497
802.799927,1476
802.918762,1502
803.037659,1487
803.156677,1494
803.275574,1474
803.39447,1532
803.513428,1488
803.632263,1510
803.751221,1472
803.870117,1461
803.989014,1495
804.107971,1468
804.226746,1465
804.345642,1476
804.4646,1478
804.583496,1479
804.702393,1510
804.821228,1509
804.940125,1561
805.059021,1446
805.177917,1479
805.296814,1500
805.415649,1505
805.534546,1441
805.653442,1476
805.772278,1461
805.891113,1499
806.01001,1555
806.128906,1477
806.247742,1494
806.366577,1449
806.485413,1504
806.604309,1470
806.723145,1501
806.84198,1510
806.960876,1511
807.079712,1485
807.198486,1488
807.317383,1499
807.436218,1486
807.554993,1530
807.673889,1452
807.792725,1484
807.91156,1426
808.030396,1485
808.14917,1506
808.268005,1496
808.386841,1460
808.505676,1508
808.624451,1493
808.743286,1485
808.862122,1497
808.980896,1502
809.099731,1452
809.218506,1447
809.337341,1438
809.456116,1480
809.57489,1492
809.693726,1449
809.8125,1483
809.931274,1470
810.050049,1473
810.168884,1457
810.287659,1459
810.406372,1508
810.525269,1452
810.643982,1442
810.762756,1510
810.881531,1531
811.000305,1489
811.11908,1489
811.237854,1468
811.356567,1467
811.475403,1540
811.594116,1470
811.71283,1523
811.831604,1490
811.950378,1485
812.069153,1484
812.187927,1500
812.30658,1492
812.425415,1455
812.544128,1511
812.662781,1498
812.781616,1456
812.900269,1449
813.019043,1502
813.137756,1460
813.256531,1517
813.375244,1471
813.493896,1473
813.612671,1454
813.731384,1449
813.850037,1493
813.96875,1465
814.087524,1483
814.206238,1433
814.324951,1449
814.443604,1424
814.562256,1455
814.68103,1431
814.799683,1495
814.918335,1485
815.037109,1446
815.155762,1483
815.274475,1447
815.393188,1452
815.511841,1406
815.630554,1442
815.749146,1435
815.867859,1436
815.986572,1459
816.105164,1424
816.223877,1429
816.342529,1452
816.461182,1482
816.579895,1482
816.698486,1468
816.817139,1487
816.935791,1470
817.054504,1511
817.173096,1480
817.291748,1437
817.4104,1439
817.529053,1454
817.647644,1440
817.766235,1373
817.884949,1397
818.00354,1407
818.122192,1402
818.240845,1434
818.359436,1377
818.478088,1407
818.59668,1365
818.715271,1409
818.833923,1396
818.952515,1395
819.071106,1427
819.189758,1405
819.30835,1361
819.426941,1357
819.545532,1392
819.664124,1342
819.782715,1369
819.901306,1375
820.019897,1337
820.138489,1379
820.25708,1405
820.375671,1382
820.494202,1391
820.612732,1383
820.731384,1379
820.849915,1349
820.968506,1387
821.087097,1355
821.205627,1364
821.324158,1336
821.442749,1367
821.561279,1356
821.679871,1312
821.798401,1333
821.916931,1337
822.035461,1343
822.154053,1380
822.272583,1319
822.391174,1352
822.509583,1335
822.628174,1336
822.746704,1319
822.865234,1339
822.983765,1343
823.102295,1349
823.220825,1337
823.339294,1326
823.457825,1364
823.576355,1322
823.694824,1346
823.813354,1350
823.931885,1301
824.050354,1347
824.168884,1354
824.287354,1346
824.405823,1361
824.524353,1367
824.642822,1365
824.761353,1334
824.879822,1333
824.998291,1336
825.116699,1335
825.235291,1320
825.353699,1382
825.472168,1347
825.590637,1345
825.709106,1329
825.827576,1327
825.946045,1278
826.064453,1357
826.182983,1317
826.301392,1326
826.4198,1349
826.53833,1343
826.656738,1335
826.775208,1316
826.893677,1333
827.012024,1316
827.130493,1309
827.248962,1330
827.36731,1312
827.485779,1324
827.604248,1327
827.722595,1333
827.841064,1304
827.959412,1340
828.077942,1326
828.196289,1346
828.314636,1308
828.433105,1347
828.551514,1299
828.669861,1337
828.78833,1321
828.906677,1264
829.025085,1314
829.143433,1301
829.261841,1320
829.38031,1282
829.498657,1315
829.617004,1307
829.735413,1301
829.85376,1349
829.972107,1276
830.090515,1318
830.208862,1290
830.327209,1292
830.445557,1304
830.563904,1316
830.682312,1294
830.800659,1324
830.919006,1291
831.037354,1301
831.155701,1296
831.274048,1315
831.392395,1310
831.51062,1311
831.629028,1268
831.747314,1336
831.865662,1303
831.984009,1315
832.102356,1335
832.220642,1281
832.338928,1305
832.457275,1323
832.575623,1323
832.693909,1305
832.812134,1334
832.930481,1299
833.048828,1321
833.167114,1321
833.2854,1304
833.403687,1312
833.521973,1274
833.640259,1277
833.758545,1338
833.876831,1312
833.995056,1321
834.113281,1319
834.231628,1276
834.349915,1284
834.468201,1295
834.586426,1302
834.704651,1303
834.822998,1255
834.941162,1295
835.059448,1323
835.177673,1320
835.295959,1310
835.414246,1325
835.53241,1292
835.650635,1276
835.768921,1321
835.887146,1323
836.005371,1320
836.123596,1294
836.241821,1281
836.360046,1297
836.478271,1292
836.596497,1325
836.714722,1307
836.832886,1306
836.95105,1325
837.069336,1311
837.1875,1283
837.305725,1296
837.423889,1281
837.542053,1305
837.660339,1306
837.778503,1302
837.896667,1279
838.014832,1336
838.132996,1317
838.25116,1284
838.369385,1323
838.487488,1310
838.605713,1322
838.723877,1328
838.84198,1312
838.960205,1314
839.078308,1273
839.196472,1276
839.314636,1303
839.4328,1314
839.550964,1329
839.669067,1271
839.787231,1293
839.905396,1271
840.023499,1301
840.141602,1289
840.259766,1302
840.377869,1260
840.495972,1298
840.614136,1318
840.732239,1291
840.850342,1276
840.968445,1293
841.086548,1263
841.204651,1288
841.322754,1300
841.440918,1284
841.55896,1288
841.677002,1280
841.795166,1298
841.913208,1310
842.031311,1308
842.149353,1257
842.267456,1321
842.385498,1283
842.503601,1269
842.621643,1288
842.739746,1293
842.857788,1268
842.97583,1300
843.093933,1315
843.211975,1275
843.330017,1284
843.44812,1308
843.566101,1284
843.684204,1311
843.802246,1291
843.920227,1286
844.038269,1313
844.156311,1281
844.274292,1316
844.392395,1248
844.510376,1305
844.628357,1303
844.74646,1243
844.864441,1277
844.982422,1268
845.100403,1292
845.218384,1291
845.336426,1280
845.454468,1309
845.572449,1293
845.69043,1287
845.808411,1272
845.926453,1298
846.044373,1315
846.162354,1276
846.280396,1254
846.398315,1275
846.516296,1305
846.634216,1257
846.752197,1307
846.870178,1301
846.988098,1287
847.106079,1300
847.22406,1263
847.34198,1291
847.4599,1302
847.577881,1306
847.695801,1268
847.813782,1260
847.931641,1309
848.049561,1311
848.167603,1278
848.285461,1279
848.403381,1320
848.521362,1276
848.639221,1281
848.75708,1301
848.875,1301
848.99292,1282
849.110901,1305
849.22876,1273
849.34668,1273
849.464539,1312
849.582458,1301
849.700317,1322
849.818176,1269
849.936096,1272
850.053955,1303
850.171875,1349
850.289673,1294
850.407593,1271
850.525452,1297
850.643311,1293
850.761169,1329
850.878967,1309
850.996887,1290
851.114746,1286
851.232544,1261
851.350403,1272
851.468262,1323
851.58606,1255
851.703979,1296
851.821777,1298
851.939636,1260
852.057434,1275
852.175232,1295
852.293091,1306
852.410889,1329
852.528687,1312
852.646545,1317
852.764343,1296
852.88208,1281
852.999939,1302
853.117676,1298
853.235535,1280
853.353271,1274
853.471069,1292
853.588928,1316
853.706604,1300
853.824402,1301
853.9422,1312
854.059998,1316
854.177734,1315
854.295532,1305
854.413269,1315
854.531006,1281
854.648804,1272
854.766541,1313
854.884277,1269
855.002014,1308
855.119751,1291
855.237549,1272
855.355225,1297
855.473022,1315
855.590698,1270
855.708435,1283
855.826172,1295
855.943848,1287
856.061646,1274
856.179321,1308
856.296997,1304
856.414795,1289
856.53241,1329
856.650085,1254
856.767822,1296
856.885559,1279
857.003174,1272
857.120911,1286
857.238586,1316
857.356201,1311
857.473938,1316
857.591614,1320
857.709351,1299
857.826965,1339
857.944641,1296
858.062317,1287
858.179993,1323
858.297668,1303
858.415283,1267
858.532959,1294
858.650574,1299
858.768188,1324
858.885803,1293
859.003479,1274
859.121094,1290
859.23877,1337
859.356384,1284
859.473999,1309
859.591675,1296
859.709229,1292
859.826843,1325
859.944458,1312
860.062012,1295
860.179626,1297
860.297302,1329
860.414856,1253
860.532471,1306
860.650024,1317
860.767639,1273
860.885193,1290
861.002808,1294
861.120361,1333
861.237976,1291
861.35553,1329
861.473022,1338
861.590698,1299
861.708191,1275
861.825745,1341
861.943298,1280
862.060852,1271
862.178406,1326
862.295959,1308
862.413513,1261
862.531006,1316
862.64856,1306
862.766113,1318
862.883667,1334
863.00116,1306
863.118713,1346
863.236206,1345
863.353699,1268
863.471252,1289
863.588745,1287
863.706177,1325
863.82373,1293
863.941162,1267
864.058716,1267
864.176208,1296
864.29364,1318
864.411194,1291
864.528687,1299
864.646118,1297
864.763611,1290
864.881042,1307
864.998535,1338
865.116028,1298
865.233459,1338
865.350891,1339
865.468384,1304
865.585754,1314
865.703308,1341
865.820679,1316
865.938171,1343
866.055542,1272
866.173035,1317
866.290466,1318
866.407837,1291
866.52533,1356
866.6427,1325
866.760071,1324
866.877563,1282
866.994934,1318
867.112305,1297
867.229736,1319
867.347107,1334
867.464539,1293
867.58197,1323
867.699341,1348
867.81665,1305
867.934082,1344
868.051453,1288
868.168823,1346
868.286194,1310
868.403564,1309
868.520935,1330
868.638306,1344
868.755676,1283
868.872986,1314
868.990295,1335
869.107727,1288
869.225037,1321
869.342346,1326
869.459717,1340
869.577026,1335
869.694336,1349
869.811707,1300
869.929016,1345
870.046326,1335
870.163635,1323
870.280945,1309
870.398254,1295
870.515564,1312
870.632812,1294
870.750183,1334
870.867432,1312
870.984741,1339
871.102051,1329
871.219299,1321
871.336609,1306
871.453918,1352
871.571106,1311
871.688416,1322
871.805664,1299
871.922852,1321
872.040222,1303
872.157471,1334
872.274719,1308
872.391968,1337
872.509155,1305
872.626465,1327
872.743652,1357
872.860962,1353
872.978149,1315
873.095337,1317
873.212646,1367
873.329834,1321
873.44696,1319
873.564209,1293
873.681396,1324
873.798645,1311
873.915894,1309
874.03302,1324
874.150208,1289
874.267456,1359
874.384583,1312
874.501831,1339
874.618958,1303
874.736145,1302
874.853333,1310
874.970459,1346
875.087646,1347
875.204834,1334
875.32196,1312
875.439148,1355
875.556274,1321
875.673401,1352
875.790527,1318
875.907715,1349
876.024841,1337
876.141968,1324
876.259094,1316
876.376282,1331
876.493347,1316
876.610474,1346
876.7276,1360
876.844727,1285
876.961853,1332
877.078918,1348
877.195984,1365
877.313171,1342
877.430237,1339
877.547302,1309
877.664368,1341
877.781433,1332
877.898499,1326
878.015625,1291
878.13269,1297
878.249695,1325
878.366821,1317
878.483887,1376
878.600952,1349
878.717957,1298
878.834961,1317
878.952087,1315
879.069092,1320
879.186157,1344
879.303162,1314
879.420227,1350
879.537231,1339
879.654236,1303
879.77124,1312
879.888306,1336
880.005249,1381
880.122314,1323
880.239319,1358
880.356323,1325
880.473328,1315
880.590271,1312
880.707275,1349
880.824341,1339
880.941284,1346
881.058228,1334
881.175232,1339
881.292236,1367
881.40918,1324
881.526123,1311
881.643066,1326
881.760071,1309
881.877014,1348
881.993958,1361
882.11084,1328
882.227783,1316
882.344727,1374
882.46167,1320
882.578613,1321
882.695618,1347
882.812439,1380
882.929382,1303
883.046326,1315
883.163208,1328
883.280151,1382
883.397034,1337
883.513916,1326
883.630798,1376
883.747742,1339
883.864563,1340
883.981506,1354
884.098389,1325
884.21521,1339
884.332153,1367
884.448975,1364
884.565796,1351
884.682678,1327
884.7995,1380
884.916443,1364
885.033264,1373
885.150085,1353
885.266968,1361
885.383789,1371
885.500671,1380
885.617493,1345
885.734314,1338
885.851196,1351
885.967896,1349
886.084717,1344
886.201599,1373
886.318359,1366
886.435181,1400
886.552002,1353
886.668762,1364
886.785645,1365
886.902344,1333
887.019165,1401
887.135925,1378
887.252747,1352
887.369446,1411
887.486267,1397
887.603027,1380
887.719788,1392
887.836548,1384
887.953247,1380
888.070068,1374
888.186829,1350
888.303528,1324
888.420288,1353
888.536987,1321
888.653687,1343
888.770447,1351
888.887146,1382
889.003967,1348
889.120667,1400
889.237305,1363
889.354065,1337
889.470703,1367
889.587463,1383
889.704163,1352
889.820862,1376
889.937561,1334
890.054199,1357
890.170837,1412
890.287598,1367
890.404236,1358
890.520874,1371
890.637634,1362
890.754211,1353
890.87085,1365
890.987549,1360
891.104187,1405
891.220886,1372
891.337463,1378
891.454102,1320
891.57074,1419
891.687378,1380
891.804077,1345
891.920654,1434
892.037231,1362
892.15387,1366
892.270447,1383
892.387085,1395
892.503723,1389
892.6203,1375
892.736877,1379
892.853516,1365
892.970032,1397
893.08667,1347
893.203186,1374
893.319763,1358
893.43634,1355
893.552917,1408
893.669556,1391
893.786011,1369
893.902588,1397
894.019165,1386
894.135681,1383
894.252197,1411
894.368835,1387
894.485291,1463
894.601868,1380
894.718384,1429
894.8349,1364
894.951355,1383
895.067932,1393
895.184448,1423
895.300964,1406
895.417419,1416
895.533936,1394
895.650452,1394
895.766907,1424
895.883423,1383
895.999878,1401
896.116333,1358
896.232849,1414
896.349304,1338
896.465759,1370
896.582214,1368
896.698669,1434
896.815125,1376
896.931641,1424
897.048035,1382
897.164551,1412
897.280884,1426
897.397339,1383
897.513794,1387
897.630249,1419
897.746582,1415
897.863098,1386
897.979431,1367
898.095886,1445
898.212341,1415
898.328674,1394
898.445129,1434
898.561462,1427
898.677795,1412
898.794312,1419
898.910645,1415
899.026978,1417
899.143433,1360
899.259766,1444
899.37616,1374
899.492493,1416
899.608765,1381
899.725159,1413
899.841553,1418
899.957947,1371
900.07428,1422
900.190552,1415
900.306946,1380
900.423157,1438
900.53949,1359
900.655884,1396
900.772156,1411
900.888489,1421
901.004822,1441
901.121033,1401
901.237366,1404
901.353699,1382
901.46991,1398
901.586304,1426
901.702515,1403
901.818787,1371
901.93512,1373
902.051331,1453
902.167603,1384
902.283875,1416
902.400085,1419
902.516418,1448
902.632629,1405
902.74884,1414
902.865112,1430
902.981384,1404
903.097595,1442
903.213867,1377
903.330017,1413
903.446289,1423
903.5625,1410
903.67865,1377
903.794922,1427
903.911072,1452
904.027344,1412
904.143494,1387
904.259705,1397
904.375916,1376
904.492065,1383
904.608215,1398
904.724426,1399
904.840576,1413
904.956726,1396
905.072876,1415
905.189087,1448
905.305176,1414
905.421387,1408
905.537537,1436
905.653687,1433
905.769775,1394
905.885925,1426
906.002014,1395
906.118164,1430
906.234314,1445
906.350403,1419
906.466492,1435
906.582642,1386
906.69873,1422
906.814758,1440
906.930908,1427
907.046936,1429
907.163086,1452
907.279175,1401
907.395264,1467
907.511353,1423
907.62738,1466
907.743408,1416
907.859497,1440
907.975525,1416
908.091553,1427
908.207703,1467
908.32373,1430
908.439758,1456
908.555786,1431
908.671814,1414
908.787842,1414
908.90387,1456
909.019775,1452
909.135864,1420
909.251892,1442
909.367859,1443
909.483826,1453
909.599854,1429
909.715881,1452
909.831848,1438
909.947815,1463
910.063782,1453
910.179749,1448
910.295776,1445
910.411743,1439
910.527649,1458
910.643616,1422
910.759583,1433
910.875488,1465
910.991455,1452
911.107361,1420
911.223267,1449
911.339294,1494
911.4552,1434
911.571106,1436
911.687073,1422
911.802979,1480
911.918823,1472
912.034729,1429
912.150635,1411
912.266602,1423
912.382446,1408
912.498352,1459
912.614197,1459
912.730103,1438
912.846008,1425
792.44574,1651
792.56488,1646
792.68396,1653
792.80304,1581
792.92218,1568
793.041199,1602
793.160339,1590
793.279419,1619
793.398499,1571
793.517578,1608
793.636658,1613
793.755737,1583
793.874817,1610
793.993896,1569
794.112976,1592
794.232056,1555
794.351074,1545
794.470215,1589
794.589233,1559
794.708313,1565
794.827393,1525
794.946411,1560
795.065552,1548
795.18457,1556
795.303589,1585
795.422668,1587
795.541687,1522
795.660767,1589
795.779846,1512
795.898865,1542
796.017883,1446
796.136963,1563
796.255981,1533
796.375061,1555
796.49408,1498
796.613037,1485
796.732117,1550
796.851135,1509
796.970154,1514
797.089233,1493
797.208191,1511
797.327271,1540
797.446228,1479
797.565186,1586
797.684265,1534
797.803223,1485
797.922241,1480
798.04126,1538
798.160278,1527
798.279297,1515
798.398315,1462
798.517273,1509
798.636292,1504
798.75531,1493
798.874268,1540
798.993286,1506
799.112244,1490
799.231323,1531
799.350281,1482
799.469238,1522
799.588257,1533
799.707153,1497
799.826111,1532
799.945129,1494
800.064087,1476
800.183044,1489
800.302063,1476
800.421021,1507
800.539978,1483
800.658936,1487
800.777893,1505
800.896912,1495
801.015747,1476
801.134705,1514
801.253723,1495
801.37262,1490
801.491638,1472
801.610535,1502
801.729492,1469
801.84845,1465
801.967407,1500
802.086243,1472
802.205261,1499
802.324158,1446
802.443115,1516
802.562073,1493
802.680969,1472
802.799927,1456
802.918762,1478
803.037659,1505
803.156677,1484
803.275574,1478
803.39447,1550
803.513428,1490
803.632263,1498
803.751221,1492
803.870117,1458
803.989014,1493
804.107971,1476
804.226746,1516
804.345642,1454
804.4646,1525
804.583496,1483
804.702393,1477
804.821228,1509
804.940125,1462
805.059021,1463
805.177917,1490
805.296814,1487
805.415649,1510
805.534546,1475
805.653442,1508
805.772278,1477
805.891113,1502
806.01001,1487
806.128906,1495
806.247742,1476
806.366577,1505
806.485413,1482
806.604309,1518
806.723145,1490
806.84198,1525
806.960876,1457
807.079712,1544
807.198486,1475
807.317383,1487
807.436218,1502
807.554993,1475
807.673889,1519
807.792725,1484
807.91156,1466
808.030396,1485
808.14917,1466
808.268005,1505
808.386841,1485
808.505676,1510
808.624451,1484
808.743286,1436
808.862122,1479
808.980896,1507
809.099731,1473
809.218506,1465
809.337341,1498
809.456116,1418
809.57489,1501
809.693726,1530
809.8125,1466
809.931274,1488
810.050049,1469
810.168884,1512
810.287659,1467
810.406372,1444
810.525269,1464
810.643982,1496
810.762756,1517
810.881531,1451
811.000305,1509
811.11908,1518
811.237854,1419
811.356567,1508
811.475403,1494
811.594116,1482
811.71283,1504
811.831604,1483
811.950378,1484
812.069153,1463
812.187927,1478
812.30658,1504
812.425415,1478
812.544128,1425
812.662781,1467
812.781616,1494
812.900269,1476
813.019043,1480
813.137756,1453
813.256531,1478
813.375244,1476
813.493896,1477
813.612671,1437
813.731384,1450
813.850037,1486
813.96875,1437
814.087524,1500
814.206238,1481
814.324951,1446
814.443604,1467
814.562256,1423
814.68103,1421
814.799683,1452
814.918335,1432
815.037109,1410
815.155762,1458
815.274475,1486
815.393188,1443
815.511841,1476
815.630554,1432
815.749146,1434
815.867859,1473
815.986572,1470
816.105164,1481
816.223877,1479
816.342529,1475
816.461182,1457
816.579895,1440
816.698486,1498
816.817139,1414
816.935791,1436
817.054504,1505
817.173096,1433
817.291748,1447
817.4104,1449
817.529053,1403
817.647644,1404
817.766235,1416
817.884949,1431
818.00354,1435
818.122192,1421
818.240845,1416
818.359436,1444
818.478088,1430
818.59668,1383
818.715271,1392
818.833923,1403
818.952515,1366
819.071106,1371
819.189758,1418
819.30835,1334
819.426941,1400
819.545532,1390
819.664124,1363
819.782715,1380
819.901306,1392
820.019897,1333
820.138489,1383
820.25708,1374
820.375671,1379
820.494202,1354
820.612732,1380
820.731384,1350
820.849915,1371
820.968506,1398
821.087097,1361
821.205627,1387
821.324158,1369
821.442749,1376
821.561279,1384
821.679871,1367
821.798401,1377
821.916931,1349
822.035461,1350
822.154053,1378
822.272583,1347
822.391174,1371
822.509583,1374
822.628174,1320
822.746704,1355
822.865234,1343
822.983765,1362
823.102295,1350
823.220825,1310
823.339294,1330
823.457825,1344
823.576355,1349
823.694824,1337
823.813354,1390
823.931885,1380
824.050354,1351
824.168884,1333
824.287354,1360
824.405823,1387
824.524353,1359
824.642822,1366
824.761353,1366
824.879822,1367
824.998291,1351
825.116699,1352
825.235291,1320
825.353699,1343
825.472168,1333
825.590637,1347
825.709106,1341
825.827576,1359
825.946045,1310
826.064453,1326
826.182983,1319
826.301392,1327
826.4198,1339
826.53833,1354
826.656738,1296
826.775208,1323
826.893677,1334
827.012024,1335
827.130493,1322
827.248962,1381
827.36731,1314
827.485779,1330
827.604248,1326
827.722595,1323
827.841064,1296
827.959412,1325
828.077942,1377
828.196289,1322
828.314636,1274
828.433105,1330
828.551514,1335
828.669861,1312
828.78833,1330
828.906677,1324
829.025085,1310
829.143433,1330
829.261841,1319
829.38031,1345
829.498657,1312
829.617004,1321
829.735413,1339
829.85376,1306
829.972107,1305
830.090515,1347
830.208862,1299
830.327209,1348
830.445557,1297
830.563904,1331
830.682312,1335
830.800659,1269
830.919006,1317
831.037354,1307
831.155701,1307
831.274048,1329
831.392395,1311
831.51062,1322
831.629028,1343
831.747314,1314
831.865662,1287
831.984009,1304
832.102356,1316
832.220642,1320
832.338928,1323
832.457275,1337
832.575623,1310
832.693909,1324
832.812134,1281
832.930481,1334
833.048828,1318
833.167114,1298
833.2854,1281
833.403687,1330
833.521973,1299
833.640259,1291
833.758545,1326
833.876831,1313
833.995056,1303
834.113281,1307
834.231628,1283
834.349915,1295
834.468201,1304
834.586426,1285
834.704651,1305
834.822998,1316
834.941162,1290
835.059448,1335
835.177673,1327
835.295959,1308
835.414246,1304
835.53241,1314
835.650635,1287
835.768921,1289
835.887146,1294
836.005371,1303
836.123596,1320
836.241821,1311
836.360046,1349
836.478271,1317
836.596497,1296
836.714722,1320
836.832886,1322
836.95105,1329
837.069336,1314
837.1875,1322
837.305725,1343
837.423889,1283
837.542053,1336
837.660339,1319
837.778503,1273
837.896667,1317
838.014832,1301
838.132996,1319
838.25116,1315
838.369385,1294
838.487488,1315
838.605713,1307
838.723877,1301
838.84198,1297
838.960205,1325
839.078308,1305
839.196472,1295
839.314636,1322
839.4328,1316
839.550964,1297
839.669067,1293
839.787231,1314
839.905396,1328
840.023499,1279
840.141602,1298
840.259766,1281
840.377869,1308
840.495972,1354
840.614136,1310
840.732239,1299
840.850342,1323
840.968445,1277
841.086548,1309
841.204651,1317
841.322754,1302
841.440918,1321
841.55896,1292
841.677002,1257
841.795166,1345
841.913208,1283
842.031311,1338
842.149353,1280
842.267456,1294
842.385498,1315
842.503601,1299
842.621643,1307
842.739746,1336
842.857788,1365
842.97583,1305
843.093933,1324
843.211975,1249
843.330017,1288
843.44812,1309
843.566101,1295
843.684204,1306
843.802246,1318
843.920227,1289
844.038269,1266
844.156311,1302
844.274292,1232
844.392395,1302
844.510376,1326
844.628357,1290
844.74646,1340
844.864441,1260
844.982422,1271
845.100403,1288
845.218384,1262
845.336426,1276
845.454468,1327
845.572449,1287
845.69043,1290
845.808411,1271
845.926453,1318
846.044373,1294
846.162354,1246
846.280396,1310
846.398315,1311
846.516296,1309
846.634216,1281
846.752197,1272
846.870178,1288
846.988098,1287
847.106079,1289
847.22406,1304
847.34198,1324
847.4599,1274
847.577881,1321
847.695801,1260
847.813782,1295
847.931641,1284
848.049561,1266
848.167603,1298
848.285461,1258
848.403381,1308
848.521362,1299
848.639221,1294
848.75708,1311
848.875,1288
848.99292,1301
849.110901,1313
849.22876,1296
849.34668,1275
849.464539,1268
849.582458,1304
849.700317,1302
849.818176,1231
849.936096,1292
850.053955,1312
850.171875,1294
850.289673,1273
850.407593,1305
850.525452,1307
850.643311,1292
850.761169,1285
850.878967,1296
850.996887,1312
851.114746,1308
851.232544,1237
851.350403,1312
851.468262,1330
851.58606,1290
851.703979,1292
851.821777,1286
851.939636,1306
852.057434,1306
852.175232,1310
852.293091,1313
852.410889,1303
852.528687,1298
852.646545,1301
852.764343,1318
852.88208,1330
852.999939,1296
853.117676,1316
853.235535,1312
853.353271,1321
853.471069,1294
853.588928,1273
853.706604,1323
853.824402,1275
853.9422,1299
854.059998,1269
854.177734,1307
854.295532,1316
854.413269,1303
854.531006,1315
854.648804,1297
854.766541,1315
854.884277,1314
855.002014,1314
855.119751,1273
855.237549,1308
855.355225,1277
855.473022,1313
855.590698,1316
855.708435,1291
855.826172,1285
855.943848,1363
856.061646,1313
856.179321,1325
856.296997,1272
856.414795,1330
856.53241,1293
856.650085,1308
856.767822,1298
856.885559,1316
857.003174,1325
857.120911,1309
857.238586,1290
857.356201,1342
857.473938,1326
857.591614,1286
857.709351,1310
857.826965,1329
857.944641,1307
858.062317,1307
858.179993,1289
858.297668,1331
858.415283,1306
858.532959,1317
858.650574,1356
858.768188,1323
858.885803,1310
859.003479,1328
859.121094,1326
859.23877,1342
859.356384,1340
859.473999,1287
859.591675,1323
859.709229,1322
859.826843,1326
859.944458,1311
860.062012,1331
860.179626,1307
860.297302,1316
860.414856,1341
860.532471,1317
860.650024,1306
860.767639,1295
860.885193,1300
861.002808,1317
861.120361,1297
861.237976,1320
861.35553,1298
861.473022,1342
861.590698,1308
861.708191,1305
861.825745,1303
861.943298,1305
862.060852,1287
862.178406,1319
862.295959,1281
862.413513,1316
862.531006,1299
862.64856,1264
862.766113,1305
862.883667,1343
863.00116,1297
863.118713,1323
863.236206,1296
863.353699,1306
863.471252,1307
863.588745,1266
863.706177,1281
863.82373,1312
863.941162,1294
864.058716,1339
864.176208,1310
864.29364,1298
864.411194,1306
864.528687,1328
864.646118,1337
864.763611,1342
864.881042,1289
864.998535,1270
865.116028,1326
865.233459,1315
865.350891,1337
865.468384,1335
865.585754,1335
865.703308,1330
865.820679,1282
865.938171,1310
866.055542,1304
866.173035,1335
866.290466,1332
866.407837,1326
866.52533,1266
866.6427,1315
866.760071,1294
866.877563,1295
866.994934,1321
867.112305,1289
867.229736,1381
867.347107,1290
867.464539,1313
867.58197,1289
867.699341,1356
867.81665,1349
867.934082,1328
868.051453,1299
868.168823,1335
868.286194,1298
868.403564,1293
868.520935,1338
868.638306,1347
868.755676,1285
868.872986,1312
868.990295,1327
869.107727,1299
869.225037,1349
869.342346,1299
869.459717,1355
869.577026,1304
869.694336,1331
869.811707,1335
869.929016,1343
870.046326,1344
870.163635,1324
870.280945,1335
870.398254,1348
870.515564,1365
870.632812,1296
870.750183,1314
870.867432,1338
870.984741,1328
871.102051,1317
871.219299,1340
871.336609,1316
871.453918,1325
871.571106,1325
871.688416,1320
871.805664,1348
871.922852,1313
872.040222,1345
872.157471,1318
872.274719,1325
872.391968,1357
872.509155,1299
872.626465,1313
872.743652,1329
872.860962,1331
872.978149,1340
873.095337,1362
873.212646,1350
873.329834,1289
873.44696,1324
873.564209,1338
873.681396,1340
873.798645,1313
873.915894,1364
874.03302,1379
874.150208,1355
874.267456,1337
874.384583,1322
874.501831,1332
874.618958,1323
874.736145,1332
874.853333,1325
874.970459,1335
875.087646,1330
875.204834,1351
875.32196,1332
875.439148,1351
875.556274,1336
875.673401,1365
875.790527,1299
875.907715,1310
876.024841,1322
876.141968,1388
876.259094,1353
876.376282,1374
876.493347,1354
876.610474,1350
876.7276,1265
876.844727,1353
876.961853,1312
877.078918,1358
877.195984,1312
877.313171,1350
877.430237,1348
877.547302,1354
877.664368,1344
877.781433,1356
877.898499,1320
878.015625,1365
878.13269,1333
878.249695,1362
878.366821,1347
878.483887,1331
878.600952,1323
878.717957,1367
878.834961,1335
878.952087,1329
879.069092,1355
879.186157,1343
879.303162,1326
879.420227,1337
879.537231,1349
879.654236,1329
879.77124,1342
879.888306,1346
880.005249,1315
880.122314,1354
880.239319,1332
880.356323,1356
880.473328,1302
880.590271,1318
880.707275,1341
880.824341,1315
880.941284,1336
881.058228,1380
881.175232,1339
881.292236,1369
881.40918,1355
881.526123,1327
881.643066,1381
881.760071,1363
881.877014,1375
881.993958,1357
882.11084,1331
882.227783,1377
882.344727,1311
882.46167,1357
882.578613,1377
882.695618,1365
882.812439,1350
882.929382,1370
883.046326,1332
883.163208,1363
883.280151,1351
883.397034,1323
883.513916,1351
883.630798,1367
883.747742,1354
883.864563,1326
883.981506,1355
884.098389,1345
884.21521,1339
884.332153,1339
884.448975,1348
884.565796,1361
884.682678,1336
884.7995,1344
884.916443,1349
885.033264,1378
885.150085,1302
885.266968,1366
885.383789,1323
885.500671,1409
885.617493,1352
885.734314,1381
885.851196,1385
885.967896,1385
886.084717,1400
886.201599,1323
886.318359,1376
886.435181,1385
886.552002,1366
886.668762,1356
886.785645,1378
886.902344,1356
887.019165,1378
887.135925,1396
887.252747,1368
887.369446,1388
887.486267,1408
887.603027,1361
887.719788,1389
887.836548,1352
887.953247,1369
888.070068,1359
888.186829,1379
888.303528,1380
888.420288,1381
888.536987,1358
888.653687,1374
888.770447,1344
888.887146,1365
889.003967,1347
889.120667,1368
889.237305,1380
889.354065,1352
889.470703,1387
889.587463,1342
889.704163,1361
889.820862,1373
889.937561,1420
890.054199,1364
890.170837,1374
890.287598,1371
890.404236,1403
890.520874,1425
890.637634,1374
890.754211,1369
890.87085,1399
890.987549,1360
891.104187,1409
891.220886,1323
891.337463,1375
891.454102,1394
891.57074,1365
891.687378,1357
891.804077,1406
891.920654,1375
892.037231,1417
892.15387,1382
892.270447,1404
892.387085,1407
892.503723,1388
892.6203,1394
892.736877,1375
892.853516,1374
892.970032,1431
893.08667,1429
893.203186,1411
893.319763,1407
893.43634,1347
893.552917,1387
893.669556,1401
893.786011,1430
893.902588,1397
894.019165,1363
894.135681,1435
894.252197,1374
894.368835,1460
894.485291,1389
894.601868,1412
894.718384,1412
894.8349,1367
894.951355,1432
895.067932,1415
895.184448,1386
895.300964,1397
895.417419,1416
895.533936,1440
895.650452,1415
895.766907,1396
895.883423,1382
895.999878,1410
896.116333,1378
896.232849,1360
896.349304,1361
896.465759,1419
896.582214,1357
896.698669,1409
896.815125,1393
896.931641,1416
897.048035,1411
897.164551,1382
897.280884,1369
897.397339,1397
897.513794,1420
897.630249,1411
897.746582,1410
897.863098,1408
897.979431,1388
898.095886,1428
898.212341,1406
898.328674,1414
898.445129,1444
898.561462,1419
898.677795,1427
898.794312,1417
898.910645,1381
899.026978,1447
899.143433,1426
899.259766,1386
899.37616,1395
899.492493,1398
899.608765,1405
899.725159,1428
899.841553,1392
899.957947,1427
900.07428,1422
900.190552,1414
900.306946,1372
900.423157,1450
900.53949,1382
900.655884,1430
900.772156,1382
900.888489,1475
901.004822,1435
901.121033,1374
901.237366,1408
901.353699,1443
901.46991,1384
901.586304,1409
901.702515,1422
901.818787,1384
901.93512,1439
902.051331,1452
902.167603,1452
902.283875,1406
902.400085,1400
902.516418,1457
902.632629,1452
902.74884,1416
902.865112,1406
902.981384,1457
903.097595,1450
903.213867,1393
903.330017,1429
903.446289,1452
903.5625,1448
903.67865,1416
903.794922,1442
903.911072,1410
904.027344,1408
904.143494,1427
904.259705,1448
904.375916,1492
904.492065,1418
904.608215,1429
904.724426,1449
904.840576,1417
904.956726,1449
905.072876,1424
905.189087,1400
905.305176,1452
905.421387,1408
905.537537,1476
905.653687,1444
905.769775,1433
905.885925,1399
906.002014,1434
906.118164,1453
906.234314,1432
906.350403,1434
906.466492,1436
906.582642,1426
906.69873,1441
906.814758,1415
906.930908,1424
907.046936,1412
907.163086,1429
907.279175,1438
907.395264,1426
907.511353,1470
907.62738,1403
907.743408,1418
907.859497,1443
907.975525,1424
908.091553,1424
908.207703,1411
908.32373,1448
908.439758,1489
908.555786,1421
908.671814,1437
908.787842,1438
908.90387,1452
909.019775,1439
909.135864,1427
909.251892,1468
909.367859,1460
909.483826,1486
909.599854,1435
909.715881,1461
909.831848,1438
909.947815,1465
910.063782,1446
910.179749,1414
910.295776,1424
910.411743,1424
910.527649,1463
910.643616,1502
910.759583,1482
910.875488,1467
910.991455,1446
911.107361,1420
911.223267,1447
911.339294,1445
911.4552,1458
911.571106,1471
911.687073,1450
911.802979,1463
911.918823,1436
912.034729,1423
912.150635,1431
912.266602,1448
912.382446,1432
912.498352,1468
912.614197,1458
912.730103,1466
912.846008,1435
