792.44574,1594
792.56488,1545
792.68396,1578
792.80304,1563
792.92218,1465
793.041199,1528
793.160339,1492
793.279419,1502
793.398499,1496
793.517578,1494
793.636658,1482
793.755737,1507
793.874817,1467
793.993896,1495
794.112976,1496
794.232056,1503
794.351074,1485
794.470215,1467
794.589233,1466
794.708313,1478
794.827393,1455
794.946411,1453
795.065552,1438
795.18457,1490
795.303589,1479
795.422668,1466
795.541687,1471
795.660767,1455
795.779846,1435
795.898865,1436
796.017883,1468
796.136963,1446
796.255981,1467
796.375061,1458
796.49408,1435
796.613037,1514
796.732117,1432
796.851135,1464
796.970154,1424
797.089233,1425
797.208191,1461
797.327271,1448
797.446228,1407
797.565186,1450
797.684265,1418
797.803223,1452
797.922241,1426
798.04126,1436
798.160278,1409
798.279297,1434
798.398315,1413
798.517273,1424
798.636292,1428
798.75531,1466
798.874268,1404
798.993286,1434
799.112244,1380
799.231323,1471
799.350281,1427
799.469238,1473
799.588257,1429
799.707153,1441
799.826111,1454
799.945129,1421
800.064087,1423
800.183044,1425
800.302063,1390
800.421021,1441
800.539978,1378
800.658936,1424
800.777893,1442
800.896912,1438
801.015747,1365
801.134705,1447
801.253723,1412
801.37262,1428
801.491638,1389
801.610535,1454
801.729492,1394
801.84845,1446
801.967407,1423
802.086243,1392
802.205261,1431
802.324158,1438
802.443115,1402
802.562073,1431
802.680969,1410
802.799927,1427
802.918762,1412
803.037659,1443
803.156677,1383
803.275574,1438
803.39447,1402
803.513428,1435
803.632263,1457
803.751221,1422
803.870117,1387
803.989014,1415
804.107971,1418
804.226746,1445
804.345642,1387
804.4646,1452
804.583496,1360
804.702393,1399
804.821228,1421
804.940125,1409
805.059021,1421
805.177917,1422
805.296814,1399
805.415649,1412
805.534546,1426
805.653442,1431
805.772278,1445
805.891113,1412
806.01001,1414
806.128906,1430
806.247742,1413
806.366577,1391
806.485413,1457
806.604309,1428
806.723145,1389
806.84198,1432
806.960876,1395
807.079712,1447
807.198486,1407
807.317383,1421
807.436218,1397
807.554993,1402
807.673889,1427
807.792725,1374
807.91156,1396
808.030396,1432
808.14917,1420
808.268005,1432
808.386841,1430
808.505676,1432
808.624451,1389
808.743286,1377
808.862122,1353
808.980896,1402
809.099731,1434
809.218506,1411
809.337341,1416
809.456116,1373
809.57489,1414
809.693726,1428
809.8125,1369
809.931274,1421
810.050049,1391
810.168884,1418
810.287659,1404
810.406372,1416
810.525269,1402
810.643982,1413
810.762756,1386
810.881531,1421
811.000305,1416
811.11908,1352
811.237854,1391
811.356567,1383
811.475403,1414
811.594116,1389
811.71283,1427
811.831604,1409
811.950378,1413
812.069153,1409
812.187927,1451
812.30658,1402
812.425415,1412
812.544128,1449
812.662781,1393
812.781616,1396
812.900269,1396
813.019043,1402
813.137756,1373
813.256531,1371
813.375244,1398
813.493896,1430
813.612671,1393
813.731384,1371
813.850037,1344
813.96875,1404
814.087524,1370
814.206238,1427
814.324951,1357
814.443604,1357
814.562256,1424
814.68103,1370
814.799683,1379
814.918335,1402
815.037109,1399
815.155762,1375
815.274475,1364
815.393188,1383
815.511841,1380
815.630554,1408
815.749146,1380
815.867859,1370
815.986572,1356
816.105164,1364
816.223877,1371
816.342529,1358
816.461182,1396
816.579895,1392
816.698486,1374
816.817139,1397
816.935791,1330
817.054504,1374
817.173096,1360
817.291748,1364
817.4104,1350
817.529053,1399
817.647644,1372
817.766235,1351
817.884949,1378
818.00354,1335
818.122192,1363
818.240845,1371
818.359436,1376
818.478088,1371
818.59668,1324
818.715271,1356
818.833923,1386
818.952515,1332
819.071106,1338
819.189758,1346
819.30835,1339
819.426941,1350
819.545532,1338
819.664124,1324
819.782715,1331
819.901306,1327
820.019897,1342
820.138489,1332
820.25708,1324
820.375671,1290
820.494202,1352
820.612732,1311
820.731384,1338
820.849915,1304
820.968506,1336
821.087097,1293
821.205627,1334
821.324158,1289
821.442749,1314
821.561279,1302
821.679871,1316
821.798401,1304
821.916931,1316
822.035461,1286
822.154053,1342
822.272583,1291
822.391174,1312
822.509583,1296
822.628174,1289
822.746704,1297
822.865234,1293
822.983765,1275
823.102295,1267
823.220825,1328
823.339294,1276
823.457825,1291
823.576355,1307
823.694824,1289
823.813354,1280
823.931885,1261
824.050354,1279
824.168884,1280
824.287354,1294
824.405823,1236
824.524353,1310
824.642822,1290
824.761353,1297
824.879822,1309
824.998291,1247
825.116699,1329
825.235291,1274
825.353699,1284
825.472168,1296
825.590637,1247
825.709106,1316
825.827576,1296
825.946045,1252
826.064453,1288
826.182983,1272
826.301392,1260
826.4198,1274
826.53833,1294
826.656738,1289
826.775208,1293
826.893677,1281
827.012024,1283
827.130493,1281
827.248962,1280
827.36731,1310
827.485779,1267
827.604248,1278
827.722595,1238
827.841064,1255
827.959412,1277
828.077942,1264
828.196289,1269
828.314636,1294
828.433105,1233
828.551514,1285
828.669861,1261
828.78833,1282
828.906677,1266
829.025085,1248
829.143433,1260
829.261841,1257
829.38031,1303
829.498657,1262
829.617004,1254
829.735413,1249
829.85376,1265
829.972107,1269
830.090515,1282
830.208862,1283
830.327209,1288
830.445557,1229
830.563904,1297
830.682312,1267
830.800659,1253
830.919006,1325
831.037354,1317
831.155701,1254
831.274048,1281
831.392395,1248
831.51062,1233
831.629028,1239
831.747314,1277
831.865662,1259
831.984009,1253
832.102356,1239
832.220642,1248
832.338928,1216
832.457275,1251
832.575623,1270
832.693909,1273
832.812134,1239
832.930481,1276
833.048828,1281
833.167114,1274
833.2854,1270
833.403687,1298
833.521973,1258
833.640259,1272
833.758545,1278
833.876831,1243
833.995056,1266
834.113281,1283
834.231628,1275
834.349915,1255
834.468201,1235
834.586426,1295
834.704651,1242
834.822998,1266
834.941162,1263
835.059448,1284
835.177673,1244
835.295959,1239
835.414246,1261
835.53241,1282
835.650635,1221
835.768921,1209
835.887146,1301
836.005371,1270
836.123596,1243
836.241821,1249
836.360046,1271
836.478271,1255
836.596497,1260
836.714722,1233
836.832886,1224
836.95105,1267
837.069336,1283
837.1875,1233
837.305725,1249
837.423889,1287
837.542053,1226
837.660339,1243
837.778503,1265
837.896667,1274
838.014832,1289
838.132996,1254
838.25116,1262
838.369385,1283
838.487488,1249
838.605713,1318
838.723877,1222
838.84198,1257
838.960205,1250
839.078308,1237
839.196472,1260
839.314636,1237
839.4328,1225
839.550964,1272
839.669067,1256
839.787231,1233
839.905396,1232
840.023499,1261
840.141602,1285
840.259766,1247
840.377869,1270
840.495972,1228
840.614136,1237
840.732239,1268
840.850342,1211
840.968445,1268
841.086548,1275
841.204651,1260
841.322754,1285
841.440918,1249
841.55896,1293
841.677002,1287
841.795166,1282
841.913208,1230
842.031311,1296
842.149353,1267
842.267456,1224
842.385498,1254
842.503601,1205
842.621643,1235
842.739746,1225
842.857788,1238
842.97583,1247
843.093933,1263
843.211975,1250
843.330017,1289
843.44812,1255
843.566101,1225
843.684204,1219
843.802246,1266
843.920227,1244
844.038269,1245
844.156311,1234
844.274292,1228
844.392395,1257
844.510376,1265
844.628357,1240
844.74646,1282
844.864441,1232
844.982422,1251
845.100403,1237
845.218384,1237
845.336426,1240
845.454468,1272
845.572449,1231
845.69043,1231
845.808411,1238
845.926453,1224
846.044373,1212
846.162354,1245
846.280396,1194
846.398315,1226
846.516296,1238
846.634216,1230
846.752197,1235
846.870178,1267
846.988098,1212
847.106079,1244
847.22406,1221
847.34198,1295
847.4599,1229
847.577881,1249
847.695801,1210
847.813782,1201
847.931641,1267
848.049561,1262
848.167603,1212
848.285461,1228
848.403381,1201
848.521362,1207
848.639221,1269
848.75708,1246
848.875,1236
848.99292,1245
849.110901,1254
849.22876,1261
849.34668,1196
849.464539,1241
849.582458,1204
849.700317,1268
849.818176,1243
849.936096,1229
850.053955,1243
850.171875,1246
850.289673,1261
850.407593,1236
850.525452,1254
850.643311,1237
850.761169,1200
850.878967,1215
850.996887,1219
851.114746,1218
851.232544,1244
851.350403,1224
851.468262,1232
851.58606,1238
851.703979,1250
851.821777,1241
851.939636,1245
852.057434,1212
852.175232,1254
852.293091,1237
852.410889,1246
852.528687,1243
852.646545,1229
852.764343,1266
852.88208,1259
852.999939,1249
853.117676,1235
853.235535,1245
853.353271,1231
853.471069,1300
853.588928,1243
853.706604,1243
853.824402,1250
853.9422,1238
854.059998,1253
854.177734,1259
854.295532,1228
854.413269,1235
854.531006,1247
854.648804,1247
854.766541,1266
854.884277,1209
855.002014,1225
855.119751,1225
855.237549,1220
855.355225,1249
855.473022,1243
855.590698,1255
855.708435,1251
855.826172,1215
855.943848,1271
856.061646,1231
856.179321,1267
856.296997,1256
856.414795,1246
856.53241,1239
856.650085,1240
856.767822,1270
856.885559,1256
857.003174,1260
857.120911,1250
857.238586,1245
857.356201,1216
857.473938,1269
857.591614,1252
857.709351,1234
857.826965,1223
857.944641,1236
858.062317,1230
858.179993,1253
858.297668,1278
858.415283,1253
858.532959,1293
858.650574,1256
858.768188,1249
858.885803,1244
859.003479,1266
859.121094,1223
859.23877,1253
859.356384,1244
859.473999,1255
859.591675,1268
859.709229,1269
859.826843,1248
859.944458,1225
860.062012,1261
860.179626,1205
860.297302,1226
860.414856,1268
860.532471,1247
860.650024,1226
860.767639,1244
860.885193,1253
861.002808,1234
861.120361,1255
861.237976,1250
861.35553,1237
861.473022,1244
861.590698,1245
861.708191,1245
861.825745,1295
861.943298,1236
862.060852,1223
862.178406,1253
862.295959,1252
862.413513,1235
862.531006,1238
862.64856,1260
862.766113,1264
862.883667,1244
863.00116,1240
863.118713,1234
863.236206,1256
863.353699,1243
863.471252,1279
863.588745,1252
863.706177,1262
863.82373,1244
863.941162,1231
864.058716,1271
864.176208,1258
864.29364,1241
864.411194,1281
864.528687,1226
864.646118,1286
864.763611,1228
864.881042,1280
864.998535,1273
865.116028,1236
865.233459,1275
865.350891,1260
865.468384,1232
865.585754,1254
865.703308,1257
865.820679,1260
865.938171,1268
866.055542,1260
866.173035,1250
866.290466,1263
866.407837,1212
866.52533,1244
866.6427,1271
866.760071,1257
866.877563,1242
866.994934,1258
867.112305,1299
867.229736,1285
867.347107,1265
867.464539,1272
867.58197,1290
867.699341,1253
867.81665,1275
867.934082,1266
868.051453,1253
868.168823,1262
868.286194,1269
868.403564,1276
868.520935,1260
868.638306,1248
868.755676,1265
868.872986,1220
868.990295,1253
869.107727,1275
869.225037,1282
869.342346,1267
869.459717,1249
869.577026,1250
869.694336,1270
869.811707,1255
869.929016,1233
870.046326,1261
870.163635,1277
870.280945,1258
870.398254,1271
870.515564,1289
870.632812,1218
870.750183,1280
870.867432,1228
870.984741,1299
871.102051,1242
871.219299,1228
871.336609,1219
871.453918,1232
871.571106,1226
871.688416,1274
871.805664,1261
871.922852,1250
872.040222,1272
872.157471,1259
872.274719,1294
872.391968,1284
872.509155,1274
872.626465,1251
872.743652,1274
872.860962,1289
872.978149,1272
873.095337,1259
873.212646,1283
873.329834,1256
873.44696,1277
873.564209,1269
873.681396,1268
873.798645,1285
873.915894,1238
874.03302,1264
874.150208,1264
874.267456,1295
874.384583,1259
874.501831,1263
874.618958,1241
874.736145,1280
874.853333,1295
874.970459,1259
875.087646,1262
875.204834,1253
875.32196,1266
875.439148,1267
875.556274,1293
875.673401,1296
875.790527,1249
875.907715,1273
876.024841,1257
876.141968,1269
876.259094,1277
876.376282,1286
876.493347,1259
876.610474,1321
876.7276,1293
876.844727,1297
876.961853,1257
877.078918,1275
877.195984,1250
877.313171,1313
877.430237,1305
877.547302,1294
877.664368,1293
877.781433,1233
877.898499,1258
878.015625,1301
878.13269,1259
878.249695,1276
878.366821,1274
878.483887,1300
878.600952,1295
878.717957,1267
878.834961,1310
878.952087,1235
879.069092,1264
879.186157,1277
879.303162,1313
879.420227,1287
879.537231,1261
879.654236,1249
879.77124,1276
879.888306,1243
880.005249,1261
880.122314,1319
880.239319,1316
880.356323,1296
880.473328,1296
880.590271,1218
880.707275,1257
880.824341,1291
880.941284,1309
881.058228,1292
881.175232,1253
881.292236,1285
881.40918,1266
881.526123,1269
881.643066,1251
881.760071,1309
881.877014,1280
881.993958,1267
882.11084,1287
882.227783,1281
882.344727,1270
882.46167,1283
882.578613,1283
882.695618,1273
882.812439,1314
882.929382,1277
883.046326,1261
883.163208,1314
883.280151,1285
883.397034,1276
883.513916,1278
883.630798,1312
883.747742,1282
883.864563,1281
883.981506,1276
884.098389,1273
884.21521,1265
884.332153,1318
884.448975,1289
884.565796,1298
884.682678,1298
884.7995,1266
884.916443,1317
885.033264,1272
885.150085,1320
885.266968,1299
885.383789,1308
885.500671,1336
885.617493,1293
885.734314,1335
885.851196,1266
885.967896,1312
886.084717,1271
886.201599,1304
886.318359,1315
886.435181,1304
886.552002,1321
886.668762,1307
886.785645,1302
886.902344,1338
887.019165,1311
887.135925,1341
887.252747,1285
887.369446,1307
887.486267,1266
887.603027,1313
887.719788,1288
887.836548,1326
887.953247,1270
888.070068,1321
888.186829,1307
888.303528,1287
888.420288,1284
888.536987,1291
888.653687,1305
888.770447,1305
888.887146,1288
889.003967,1283
889.120667,1255
889.237305,1303
889.354065,1300
889.470703,1330
889.587463,1275
889.704163,1303
889.820862,1285
889.937561,1331
890.054199,1282
890.170837,1314
890.287598,1312
890.404236,1326
890.520874,1319
890.637634,1298
890.754211,1317
890.87085,1303
890.987549,1312
891.104187,1292
891.220886,1347
891.337463,1307
891.454102,1348
891.57074,1266
891.687378,1324
891.804077,1319
891.920654,1301
892.037231,1309
892.15387,1311
892.270447,1312
892.387085,1336
892.503723,1338
892.6203,1337
892.736877,1306
892.853516,1333
892.970032,1305
893.08667,1348
893.203186,1288
893.319763,1341
893.43634,1303
893.552917,1368
893.669556,1331
893.786011,1312
893.902588,1310
894.019165,1348
894.135681,1281
894.252197,1278
894.368835,1363
894.485291,1324
894.601868,1344
894.718384,1324
894.8349,1326
894.951355,1314
895.067932,1301
895.184448,1332
895.300964,1320
895.417419,1355
895.533936,1315
895.650452,1324
895.766907,1298
895.883423,1326
895.999878,1357
896.116333,1359
896.232849,1335
896.349304,1375
896.465759,1311
896.582214,1311
896.698669,1316
896.815125,1296
896.931641,1344
897.048035,1302
897.164551,1311
897.280884,1333
897.397339,1329
897.513794,1325
897.630249,1349
897.746582,1365
897.863098,1318
897.979431,1321
898.095886,1337
898.212341,1331
898.328674,1339
898.445129,1391
898.561462,1340
898.677795,1338
898.794312,1332
898.910645,1329
899.026978,1340
899.143433,1363
899.259766,1338
899.37616,1375
899.492493,1296
899.608765,1369
899.725159,1315
899.841553,1330
899.957947,1346
900.07428,1324
900.190552,1336
900.306946,1370
900.423157,1328
900.53949,1292
900.655884,1322
900.772156,1376
900.888489,1320
901.004822,1334
901.121033,1298
901.237366,1353
901.353699,1323
901.46991,1334
901.586304,1357
901.702515,1318
901.818787,1304
901.93512,1335
902.051331,1361
902.167603,1333
902.283875,1376
902.400085,1354
902.516418,1348
902.632629,1355
902.74884,1383
902.865112,1380
902.981384,1346
903.097595,1342
903.213867,1360
903.330017,1346
903.446289,1336
903.5625,1365
903.67865,1351
903.794922,1344
903.911072,1338
904.027344,1352
904.143494,1370
904.259705,1369
904.375916,1364
904.492065,1369
904.608215,1360
904.724426,1376
904.840576,1353
904.956726,1387
905.072876,1355
905.189087,1398
905.305176,1367
905.421387,1317
905.537537,1344
905.653687,1357
905.769775,1336
905.885925,1385
906.002014,1348
906.118164,1345
906.234314,1353
906.350403,1332
906.466492,1367
906.582642,1369
906.69873,1359
906.814758,1393
906.930908,1339
907.046936,1373
907.163086,1405
907.279175,1344
907.395264,1370
907.511353,1335
907.62738,1373
907.743408,1327
907.859497,1376
907.975525,1329
908.091553,1388
908.207703,1355
908.32373,1386
908.439758,1359
908.555786,1341
908.671814,1407
908.787842,1363
908.90387,1358
909.019775,1387
909.135864,1398
909.251892,1357
909.367859,1371
909.483826,1376
909.599854,1364
909.715881,1341
909.831848,1335
909.947815,1379
910.063782,1359
910.179749,1323
910.295776,1342
910.411743,1359
910.527649,1386
910.643616,1357
910.759583,1382
910.875488,1367
910.991455,1354
911.107361,1398
911.223267,1383
911.339294,1380
911.4552,1380
911.571106,1374
911.687073,1324
911.802979,1399
911.918823,1377
912.034729,1389
912.150635,1369
912.266602,1358
912.382446,1356
912.498352,1348
912.614197,1341
912.730103,1342
912.846008,1373
792.44574,1631
792.56488,1600
792.68396,1605
792.80304,1576
792.92218,1534
793.041199,1522
793.160339,1531
793.279419,1527
793.398499,1540
793.517578,1515
793.636658,1499
793.755737,1545
793.874817,1516
793.993896,1538
794.112976,1522
794.232056,1477
794.351074,1534
794.470215,1578
794.589233,1521
794.708313,1480
794.827393,1494
794.946411,1502
795.065552,1506
795.18457,1480
795.303589,1508
795.422668,1494
795.541687,1521
795.660767,1499
795.779846,1489
795.898865,1501
796.017883,1506
796.136963,1504
796.255981,1500
796.375061,1513
796.49408,1472
796.613037,1538
796.732117,1489
796.851135,1485
796.970154,1480
797.089233,1460
797.208191,1478
797.327271,1473
797.446228,1460
797.565186,1499
797.684265,1480
797.803223,1453
797.922241,1477
798.04126,1456
798.160278,1428
798.279297,1450
798.398315,1481
798.517273,1456
798.636292,1456
798.75531,1453
798.874268,1459
798.993286,1516
799.112244,1436
799.231323,1490
799.350281,1442
799.469238,1449
799.588257,1466
799.707153,1503
799.826111,1477
799.945129,1475
800.064087,1451
800.183044,1443
800.302063,1485
800.421021,1462
800.539978,1474
800.658936,1445
800.777893,1438
800.896912,1403
801.015747,1460
801.134705,1479
801.253723,1460
801.37262,1449
801.491638,1495
801.610535,1447
801.729492,1439
801.84845,1438
801.967407,1468
802.086243,1459
802.205261,1425
802.324158,1432
802.443115,1465
802.562073,1462
802.680969,1483
802.799927,1445
802.918762,1474
803.037659,1483
803.156677,1469
803.275574,1482
803.39447,1441
803.513428,1441
803.632263,1472
803.751221,1462
803.870117,1452
803.989014,1443
804.107971,1461
804.226746,1458
804.345642,1444
804.4646,1472
804.583496,1479
804.702393,1414
804.821228,1455
804.940125,1483
805.059021,1456
805.177917,1489
805.296814,1486
805.415649,1496
805.534546,1432
805.653442,1426
805.772278,1439
805.891113,1419
806.01001,1470
806.128906,1434
806.247742,1428
806.366577,1431
806.485413,1452
806.604309,1449
806.723145,1469
806.84198,1471
806.960876,1419
807.079712,1407
807.198486,1466
807.317383,1464
807.436218,1439
807.554993,1444
807.673889,1453
807.792725,1464
807.91156,1452
808.030396,1434
808.14917,1445
808.268005,1437
808.386841,1428
808.505676,1395
808.624451,1489
808.743286,1406
808.862122,1429
808.980896,1425
809.099731,1414
809.218506,1410
809.337341,1423
809.456116,1435
809.57489,1504
809.693726,1398
809.8125,1439
809.931274,1461
810.050049,1439
810.168884,1412
810.287659,1447
810.406372,1434
810.525269,1440
810.643982,1422
810.762756,1451
810.881531,1402
811.000305,1435
811.11908,1437
811.237854,1463
811.356567,1453
811.475403,1432
811.594116,1430
811.71283,1439
811.831604,1423
811.950378,1419
812.069153,1457
812.187927,1431
812.30658,1420
812.425415,1440
812.544128,1449
812.662781,1374
812.781616,1441
812.900269,1423
813.019043,1430
813.137756,1451
813.256531,1431
813.375244,1487
813.493896,1395
813.612671,1423
813.731384,1417
813.850037,1441
813.96875,1398
814.087524,1422
814.206238,1420
814.324951,1386
814.443604,1385
814.562256,1387
814.68103,1424
814.799683,1436
814.918335,1413
815.037109,1410
815.155762,1397
815.274475,1387
815.393188,1401
815.511841,1371
815.630554,1401
815.749146,1418
815.867859,1391
815.986572,1405
816.105164,1417
816.223877,1413
816.342529,1440
816.461182,1415
816.579895,1437
816.698486,1440
816.817139,1399
816.935791,1391
817.054504,1362
817.173096,1408
817.291748,1440
817.4104,1412
817.529053,1414
817.647644,1438
817.766235,1358
817.884949,1397
818.00354,1361
818.122192,1413
818.240845,1354
818.359436,1395
818.478088,1366
818.59668,1396
818.715271,1393
818.833923,1371
818.952515,1348
819.071106,1392
819.189758,1372
819.30835,1356
819.426941,1383
819.545532,1323
819.664124,1303
819.782715,1369
819.901306,1311
820.019897,1318
820.138489,1327
820.25708,1379
820.375671,1373
820.494202,1348
820.612732,1354
820.731384,1339
820.849915,1353
820.968506,1366
821.087097,1316
821.205627,1326
821.324158,1361
821.442749,1359
821.561279,1354
821.679871,1314
821.798401,1355
821.916931,1300
822.035461,1349
822.154053,1337
822.272583,1338
822.391174,1323
822.509583,1302
822.628174,1340
822.746704,1343
822.865234,1324
822.983765,1339
823.102295,1363
823.220825,1306
823.339294,1362
823.457825,1366
823.576355,1343
823.694824,1312
823.813354,1336
823.931885,1313
824.050354,1340
824.168884,1357
824.287354,1282
824.405823,1331
824.524353,1298
824.642822,1292
824.761353,1320
824.879822,1291
824.998291,1309
825.116699,1327
825.235291,1317
825.353699,1321
825.472168,1312
825.590637,1298
825.709106,1347
825.827576,1321
825.946045,1321
826.064453,1327
826.182983,1338
826.301392,1328
826.4198,1303
826.53833,1308
826.656738,1329
826.775208,1309
826.893677,1302
827.012024,1324
827.130493,1322
827.248962,1288
827.36731,1293
827.485779,1329
827.604248,1309
827.722595,1316
827.841064,1291
827.959412,1290
828.077942,1295
828.196289,1350
828.314636,1306
828.433105,1291
828.551514,1314
828.669861,1283
828.78833,1276
828.906677,1260
829.025085,1289
829.143433,1274
829.261841,1313
829.38031,1271
829.498657,1281
829.617004,1304
829.735413,1279
829.85376,1325
829.972107,1282
830.090515,1336
830.208862,1277
830.327209,1279
830.445557,1285
830.563904,1322
830.682312,1283
830.800659,1248
830.919006,1309
831.037354,1299
831.155701,1294
831.274048,1263
831.392395,1323
831.51062,1277
831.629028,1304
831.747314,1302
831.865662,1270
831.984009,1290
832.102356,1300
832.220642,1304
832.338928,1288
832.457275,1288
832.575623,1363
832.693909,1266
832.812134,1278
832.930481,1306
833.048828,1284
833.167114,1315
833.2854,1309
833.403687,1301
833.521973,1315
833.640259,1314
833.758545,1277
833.876831,1283
833.995056,1297
834.113281,1255
834.231628,1284
834.349915,1263
834.468201,1271
834.586426,1299
834.704651,1281
834.822998,1266
834.941162,1277
835.059448,1302
835.177673,1317
835.295959,1241
835.414246,1262
835.53241,1267
835.650635,1325
835.768921,1234
835.887146,1270
836.005371,1300
836.123596,1284
836.241821,1283
836.360046,1299
836.478271,1271
836.596497,1263
836.714722,1240
836.832886,1298
836.95105,1280
837.069336,1311
837.1875,1288
837.305725,1271
837.423889,1312
837.542053,1281
837.660339,1251
837.778503,1284
837.896667,1333
838.014832,1278
838.132996,1264
838.25116,1313
838.369385,1303
838.487488,1311
838.605713,1260
838.723877,1288
838.84198,1291
838.960205,1317
839.078308,1259
839.196472,1254
839.314636,1271
839.4328,1324
839.550964,1275
839.669067,1274
839.787231,1276
839.905396,1283
840.023499,1307
840.141602,1296
840.259766,1320
840.377869,1294
840.495972,1265
840.614136,1286
840.732239,1282
840.850342,1257
840.968445,1284
841.086548,1294
841.204651,1241
841.322754,1245
841.440918,1273
841.55896,1282
841.677002,1240
841.795166,1226
841.913208,1298
842.031311,1279
842.149353,1285
842.267456,1278
842.385498,1279
842.503601,1286
842.621643,1277
842.739746,1280
842.857788,1269
842.97583,1252
843.093933,1277
843.211975,1251
843.330017,1289
843.44812,1280
843.566101,1289
843.684204,1249
843.802246,1283
843.920227,1256
844.038269,1267
844.156311,1297
844.274292,1240
844.392395,1294
844.510376,1314
844.628357,1266
844.74646,1256
844.864441,1298
844.982422,1254
845.100403,1297
845.218384,1249
845.336426,1279
845.454468,1260
845.572449,1248
845.69043,1267
845.808411,1270
845.926453,1310
846.044373,1253
846.162354,1253
846.280396,1250
846.398315,1257
846.516296,1252
846.634216,1293
846.752197,1278
846.870178,1241
846.988098,1244
847.106079,1277
847.22406,1241
847.34198,1233
847.4599,1234
847.577881,1252
847.695801,1285
847.813782,1242
847.931641,1268
848.049561,1291
848.167603,1271
848.285461,1266
848.403381,1295
848.521362,1280
848.639221,1274
848.75708,1289
848.875,1262
848.99292,1257
849.110901,1298
849.22876,1257
849.34668,1237
849.464539,1235
849.582458,1246
849.700317,1290
849.818176,1261
849.936096,1285
850.053955,1276
850.171875,1257
850.289673,1262
850.407593,1220
850.525452,1244
850.643311,1283
850.761169,1239
850.878967,1266
850.996887,1259
851.114746,1277
851.232544,1302
851.350403,1242
851.468262,1299
851.58606,1277
851.703979,1242
851.821777,1247
851.939636,1228
852.057434,1266
852.175232,1286
852.293091,1255
852.410889,1282
852.528687,1264
852.646545,1288
852.764343,1281
852.88208,1270
852.999939,1288
853.117676,1247
853.235535,1292
853.353271,1277
853.471069,1284
853.588928,1197
853.706604,1284
853.824402,1285
853.9422,1272
854.059998,1250
854.177734,1265
854.295532,1282
854.413269,1234
854.531006,1252
854.648804,1230
854.766541,1262
854.884277,1272
855.002014,1280
855.119751,1253
855.237549,1282
855.355225,1288
855.473022,1281
855.590698,1244
855.708435,1247
855.826172,1241
855.943848,1268
856.061646,1305
856.179321,1256
856.296997,1261
856.414795,1254
856.53241,1278
856.650085,1297
856.767822,1253
856.885559,1265
857.003174,1274
857.120911,1254
857.238586,1272
857.356201,1300
857.473938,1270
857.591614,1315
857.709351,1288
857.826965,1234
857.944641,1272
858.062317,1268
858.179993,1274
858.297668,1271
858.415283,1249
858.532959,1290
858.650574,1240
858.768188,1296
858.885803,1262
859.003479,1262
859.121094,1300
859.23877,1279
859.356384,1296
859.473999,1282
859.591675,1263
859.709229,1291
859.826843,1270
859.944458,1268
860.062012,1247
860.179626,1245
860.297302,1301
860.414856,1285
860.532471,1298
860.650024,1307
860.767639,1280
860.885193,1231
861.002808,1261
861.120361,1291
861.237976,1263
861.35553,1322
861.473022,1272
861.590698,1259
861.708191,1283
861.825745,1282
861.943298,1268
862.060852,1286
862.178406,1277
862.295959,1260
862.413513,1309
862.531006,1269
862.64856,1288
862.766113,1258
862.883667,1262
863.00116,1269
863.118713,1290
863.236206,1280
863.353699,1260
863.471252,1311
863.588745,1290
863.706177,1251
863.82373,1238
863.941162,1274
864.058716,1298
864.176208,1268
864.29364,1256
864.411194,1314
864.528687,1298
864.646118,1266
864.763611,1265
864.881042,1280
864.998535,1340
865.116028,1278
865.233459,1279
865.350891,1294
865.468384,1294
865.585754,1298
865.703308,1266
865.820679,1283
865.938171,1268
866.055542,1304
866.173035,1300
866.290466,1240
866.407837,1282
866.52533,1325
866.6427,1248
866.760071,1284
866.877563,1300
866.994934,1330
867.112305,1246
867.229736,1269
867.347107,1364
867.464539,1289
867.58197,1285
867.699341,1283
867.81665,1297
867.934082,1280
868.051453,1261
868.168823,1269
868.286194,1256
868.403564,1283
868.520935,1287
868.638306,1296
868.755676,1325
868.872986,1296
868.990295,1323
869.107727,1281
869.225037,1305
869.342346,1290
869.459717,1326
869.577026,1293
869.694336,1257
869.811707,1270
869.929016,1283
870.046326,1321
870.163635,1316
870.280945,1305
870.398254,1253
870.515564,1281
870.632812,1305
870.750183,1284
870.867432,1313
870.984741,1311
871.102051,1314
871.219299,1257
871.336609,1260
871.453918,1341
871.571106,1268
871.688416,1315
871.805664,1303
871.922852,1282
872.040222,1287
872.157471,1294
872.274719,1292
872.391968,1296
872.509155,1288
872.626465,1327
872.743652,1290
872.860962,1302
872.978149,1291
873.095337,1302
873.212646,1293
873.329834,1297
873.44696,1313
873.564209,1300
873.681396,1324
873.798645,1305
873.915894,1308
874.03302,1282
874.150208,1265
874.267456,1305
874.384583,1269
874.501831,1279
874.618958,1311
874.736145,1323
874.853333,1313
874.970459,1261
875.087646,1285
875.204834,1279
875.32196,1307
875.439148,1307
875.556274,1293
875.673401,1301
875.790527,1272
875.907715,1306
876.024841,1291
876.141968,1295
876.259094,1324
876.376282,1315
876.493347,1282
876.610474,1317
876.7276,1296
876.844727,1335
876.961853,1270
877.078918,1317
877.195984,1305
877.313171,1319
877.430237,1287
877.547302,1298
877.664368,1268
877.781433,1360
877.898499,1276
878.015625,1339
878.13269,1296
878.249695,1322
878.366821,1276
878.483887,1303
878.600952,1326
878.717957,1329
878.834961,1274
878.952087,1295
879.069092,1292
879.186157,1300
879.303162,1315
879.420227,1325
879.537231,1305
879.654236,1320
879.77124,1322
879.888306,1263
880.005249,1312
880.122314,1298
880.239319,1318
880.356323,1334
880.473328,1331
880.590271,1296
880.707275,1294
880.824341,1320
880.941284,1288
881.058228,1311
881.175232,1369
881.292236,1329
881.40918,1298
881.526123,1328
881.643066,1364
881.760071,1310
881.877014,1276
881.993958,1308
882.11084,1275
882.227783,1309
882.344727,1288
882.46167,1315
882.578613,1333
882.695618,1306
882.812439,2445
882.929382,1648
883.046326,1283
883.163208,1312
883.280151,1338
883.397034,1291
883.513916,1315
883.630798,1338
883.747742,1320
883.864563,1314
883.981506,1290
884.098389,1349
884.21521,1295
884.332153,1325
884.448975,1308
884.565796,1336
884.682678,1315
884.7995,1335
884.916443,1286
885.033264,1316
885.150085,1334
885.266968,1322
885.383789,1306
885.500671,1372
885.617493,1358
885.734314,1323
885.851196,1320
885.967896,1318
886.084717,1327
886.201599,1326
886.318359,1350
886.435181,1353
886.552002,1295
886.668762,1302
886.785645,1309
886.902344,1326
887.019165,1329
887.135925,1319
887.252747,1308
887.369446,1385
887.486267,1343
887.603027,1343
887.719788,1353
887.836548,1355
887.953247,1324
888.070068,1312
888.186829,1345
888.303528,1316
888.420288,1364
888.536987,1272
888.653687,1328
888.770447,1305
888.887146,1365
889.003967,1324
889.120667,1350
889.237305,1354
889.354065,1337
889.470703,1308
889.587463,1363
889.704163,1385
889.820862,1328
889.937561,1333
890.054199,1332
890.170837,1385
890.287598,1324
890.404236,1355
890.520874,1341
890.637634,1344
890.754211,1334
890.87085,1322
890.987549,1316
891.104187,1356
891.220886,1366
891.337463,1375
891.454102,1371
891.57074,1315
891.687378,1328
891.804077,1358
891.920654,1316
892.037231,1368
892.15387,1324
892.270447,1355
892.387085,1364
892.503723,1374
892.6203,1346
892.736877,1358
892.853516,1323
892.970032,1329
893.08667,1362
893.203186,1404
893.319763,1349
893.43634,1346
893.552917,1335
893.669556,1373
893.786011,1391
893.902588,1345
894.019165,1336
894.135681,1349
894.252197,1342
894.368835,1365
894.485291,1379
894.601868,1361
894.718384,1397
894.8349,1355
894.951355,1335
895.067932,1341
895.184448,1363
895.300964,1344
895.417419,1363
895.533936,1331
895.650452,1358
895.766907,1417
895.883423,1333
895.999878,1383
896.116333,1363
896.232849,1352
896.349304,1369
896.465759,1356
896.582214,1389
896.698669,1375
896.815125,1345
896.931641,1364
897.048035,1392
897.164551,1340
897.280884,1368
897.397339,1377
897.513794,1344
897.630249,1375
897.746582,1345
897.863098,1388
897.979431,1373
898.095886,1398
898.212341,1354
898.328674,1367
898.445129,1364
898.561462,1359
898.677795,1357
898.794312,1401
898.910645,1369
899.026978,1378
899.143433,1355
899.259766,1416
899.37616,1375
899.492493,1377
899.608765,1325
899.725159,1389
899.841553,1348
899.957947,1418
900.07428,1415
900.190552,1359
900.306946,1400
900.423157,1400
900.53949,1380
900.655884,1396
900.772156,1321
900.888489,1383
901.004822,1385
901.121033,1355
901.237366,1365
901.353699,1388
901.46991,1341
901.586304,1370
901.702515,1343
901.818787,1390
901.93512,1384
902.051331,1362
902.167603,1374
902.283875,1385
902.400085,1400
902.516418,1337
902.632629,1399
902.74884,1394
902.865112,1400
902.981384,1378
903.097595,1404
903.213867,1349
903.330017,1392
903.446289,1389
903.5625,1414
903.67865,1368
903.794922,1379
903.911072,1402
904.027344,1413
904.143494,1377
904.259705,1395
904.375916,1387
904.492065,1375
904.608215,1387
904.724426,1400
904.840576,1391
904.956726,1368
905.072876,1366
905.189087,1349
905.305176,1359
905.421387,1410
905.537537,1380
905.653687,1384
905.769775,1365
905.885925,1386
906.002014,1409
906.118164,1391
906.234314,1362
906.350403,1419
906.466492,1389
906.582642,1372
906.69873,1403
906.814758,1411
906.930908,1418
907.046936,1399
907.163086,1365
907.279175,1409
907.395264,1345
907.511353,1413
907.62738,1375
907.743408,1374
907.859497,1388
907.975525,1397
908.091553,1379
908.207703,1419
908.32373,1381
908.439758,1396
908.555786,1383
908.671814,1432
908.787842,1382
908.90387,1410
909.019775,1385
909.135864,1408
909.251892,1427
909.367859,1431
909.483826,1445
909.599854,1414
909.715881,1416
909.831848,1388
909.947815,1398
910.063782,1396
910.179749,1440
910.295776,1380
910.411743,1399
910.527649,1407
910.643616,1403
910.759583,1378
910.875488,1399
910.991455,1423
911.107361,1426
911.223267,1409
911.339294,1384
911.4552,1426
911.571106,1399
911.687073,1397
911.802979,1385
911.918823,1399
912.034729,1384
912.150635,1363
912.266602,1456
912.382446,1444
912.498352,1392
912.614197,1441
912.730103,1380
912.846008,1396
792.44574,1616
792.56488,1609
792.68396,1673
792.80304,1570
792.92218,1544
793.041199,1545
793.160339,1533
793.279419,1578
793.398499,1558
793.517578,1575
793.636658,1525
793.755737,1536
793.874817,1563
793.993896,1530
794.112976,1540
794.232056,1499
794.351074,1533
794.470215,1519
794.589233,1540
794.708313,1499
794.827393,1490
794.946411,1520
795.065552,1546
795.18457,1491
795.303589,1524
795.422668,1485
795.541687,1494
795.660767,1519
795.779846,1480
795.898865,1542
796.017883,1480
796.136963,1470
796.255981,1504
796.375061,1504
796.49408,1456
796.613037,1507
796.732117,1464
796.851135,1526
796.970154,1482
797.089233,1516
797.208191,1518
797.327271,1489
797.446228,1473
797.565186,1479
797.684265,1484
797.803223,1527
797.922241,1502
798.04126,1506
798.160278,1503
798.279297,1527
798.398315,1482
798.517273,1466
798.636292,1467
798.75531,1509
798.874268,1448
798.993286,1493
799.112244,1456
799.231323,1454
799.350281,1482
799.469238,1486
799.588257,1469
799.707153,1492
799.826111,1434
799.945129,1461
800.064087,1482
800.183044,1477
800.302063,1503
800.421021,1465
800.539978,1441
800.658936,1442
800.777893,1473
800.896912,1477
801.015747,1446
801.134705,1437
801.253723,1475
801.37262,1470
801.491638,1470
801.610535,1463
801.729492,1490
801.84845,1486
801.967407,1431
802.086243,1459
802.205261,1473
802.324158,1472
802.443115,1450
802.562073,1465
802.680969,1449
802.799927,1432
802.918762,1449
803.037659,1491
803.156677,1442
803.275574,1452
803.39447,1496
803.513428,1412
803.632263,1440
803.751221,1452
803.870117,1480
803.989014,1458
804.107971,1469
804.226746,1492
804.345642,1469
804.4646,1493
804.583496,1452
804.702393,1481
804.821228,1450
804.940125,1408
805.059021,1450
805.177917,1453
805.296814,1453
805.415649,1453
805.534546,1458
805.653442,1458
805.772278,1455
805.891113,1454
806.01001,1459
806.128906,1456
806.247742,1439
806.366577,1470
806.485413,1427
806.604309,1468
806.723145,1483
806.84198,1440
806.960876,1407
807.079712,1463
807.198486,1431
807.317383,1470
807.436218,1431
807.554993,1480
807.673889,1477
807.792725,1455
807.91156,1395
808.030396,1438
808.14917,1420
808.268005,1418
808.386841,1466
808.505676,1446
808.624451,1424
808.743286,1465
808.862122,1425
808.980896,1463
809.099731,1461
809.218506,1441
809.337341,1450
809.456116,1396
809.57489,1456
809.693726,1416
809.8125,1431
809.931274,1463
810.050049,1440
810.168884,1428
810.287659,1455
810.406372,1399
810.525269,1450
810.643982,1404
810.762756,1501
810.881531,1423
811.000305,1464
811.11908,1471
811.237854,1429
811.356567,1419
811.475403,1431
811.594116,1393
811.71283,1460
811.831604,1443
811.950378,1456
812.069153,1414
812.187927,1442
812.30658,1406
812.425415,1395
812.544128,1385
812.662781,1423
812.781616,1451
812.900269,1394
813.019043,1413
813.137756,1422
813.256531,1455
813.375244,1432
813.493896,1457
813.612671,1454
813.731384,1396
813.850037,1426
813.96875,1434
814.087524,1451
814.206238,1362
814.324951,1365
814.443604,1442
814.562256,1369
814.68103,1449
814.799683,1455
814.918335,1428
815.037109,1382
815.155762,1448
815.274475,1420
815.393188,1433
815.511841,1435
815.630554,1426
815.749146,1404
815.867859,1438
815.986572,1412
816.105164,1429
816.223877,1404
816.342529,1401
816.461182,1394
816.579895,1438
816.698486,1422
816.817139,1413
816.935791,1396
817.054504,1417
817.173096,1424
817.291748,1386
817.4104,1367
817.529053,1390
817.647644,1407
817.766235,1383
817.884949,1372
818.00354,1428
818.122192,1403
818.240845,1375
818.359436,1380
818.478088,1397
818.59668,1352
818.715271,1387
818.833923,1369
818.952515,1329
819.071106,1377
819.189758,1361
819.30835,1365
819.426941,1332
819.545532,1350
819.664124,1369
819.782715,1323
819.901306,1357
820.019897,1373
820.138489,1391
820.25708,1346
820.375671,1380
820.494202,1352
820.612732,1365
820.731384,1326
820.849915,1282
820.968506,1339
821.087097,1328
821.205627,1356
821.324158,1369
821.442749,1333
821.561279,1331
821.679871,1343
821.798401,1312
821.916931,1359
822.035461,1356
822.154053,1319
822.272583,1389
822.391174,1342
822.509583,1369
822.628174,1313
822.746704,1364
822.865234,1373
822.983765,1347
823.102295,1372
823.220825,1320
823.339294,1318
823.457825,1368
823.576355,1335
823.694824,1321
823.813354,1376
823.931885,1351
824.050354,1340
824.168884,1326
824.287354,1330
824.405823,1320
824.524353,1335
824.642822,1325
824.761353,1343
824.879822,1344
824.998291,1343
825.116699,1356
825.235291,1306
825.353699,1319
825.472168,1300
825.590637,1335
825.709106,1327
825.827576,1377
825.946045,1296
826.064453,1349
826.182983,1329
826.301392,1285
826.4198,1328
826.53833,1303
826.656738,1342
826.775208,1343
826.893677,1301
827.012024,1312
827.130493,1319
827.248962,1299
827.36731,1332
827.485779,1323
827.604248,1311
827.722595,1299
827.841064,1308
827.959412,1361
828.077942,1290
828.196289,1298
828.314636,1320
828.433105,1292
828.551514,1318
828.669861,1317
828.78833,1281
828.906677,1302
829.025085,1306
829.143433,1305
829.261841,1298
829.38031,1331
829.498657,1311
829.617004,1314
829.735413,1312
829.85376,1273
829.972107,1297
830.090515,1338
830.208862,1294
830.327209,1283
830.445557,1344
830.563904,1334
830.682312,1301
830.800659,1289
830.919006,1287
831.037354,1287
831.155701,1282
831.274048,1301
831.392395,1300
831.51062,1313
831.629028,1295
831.747314,1321
831.865662,1282
831.984009,1326
832.102356,1310
832.220642,1272
832.338928,1310
832.457275,1259
832.575623,1311
832.693909,1283
832.812134,1307
832.930481,1352
833.048828,1303
833.167114,1293
833.2854,1272
833.403687,1307
833.521973,1274
833.640259,1294
833.758545,1245
833.876831,1273
833.995056,1272
834.113281,1344
834.231628,1293
834.349915,1338
834.468201,1300
834.586426,1296
834.704651,1304
834.822998,1295
834.941162,1297
835.059448,1299
835.177673,1258
835.295959,1278
835.414246,1303
835.53241,1300
835.650635,1291
835.768921,1280
835.887146,1287
836.005371,1289
836.123596,1283
836.241821,1284
836.360046,1308
836.478271,1287
836.596497,1278
836.714722,1258
836.832886,1284
836.95105,1303
837.069336,1269
837.1875,1308
837.305725,1324
837.423889,1245
837.542053,1298
837.660339,1280
837.778503,1314
837.896667,1262
838.014832,1273
838.132996,1290
838.25116,1281
838.369385,1294
838.487488,1307
838.605713,1278
838.723877,1265
838.84198,1271
838.960205,1300
839.078308,1309
839.196472,1276
839.314636,1267
839.4328,1283
839.550964,1299
839.669067,1318
839.787231,1298
839.905396,1291
840.023499,1312
840.141602,1292
840.259766,1308
840.377869,1266
840.495972,1268
840.614136,1247
840.732239,1293
840.850342,1261
840.968445,1305
841.086548,1296
841.204651,1284
841.322754,1297
841.440918,1264
841.55896,1308
841.677002,1289
841.795166,1323
841.913208,1277
842.031311,1303
842.149353,1251
842.267456,1251
842.385498,1272
842.503601,1276
842.621643,1279
842.739746,1274
842.857788,1260
842.97583,1293
843.093933,1270
843.211975,1285
843.330017,1260
843.44812,1300
843.566101,1285
843.684204,1290
843.802246,1254
843.920227,1245
844.038269,1278
844.156311,1278
844.274292,1282
844.392395,1264
844.510376,1272
844.628357,1253
844.74646,1265
844.864441,1278
844.982422,1260
845.100403,1282
845.218384,1291
845.336426,1255
845.454468,1300
845.572449,1282
845.69043,1301
845.808411,1252
845.926453,1301
846.044373,1302
846.162354,1279
846.280396,1262
846.398315,1289
846.516296,1268
846.634216,1274
846.752197,1261
846.870178,1272
846.988098,1236
847.106079,1263
847.22406,1247
847.34198,1247
847.4599,1287
847.577881,1271
847.695801,1269
847.813782,1260
847.931641,1274
848.049561,1277
848.167603,1259
848.285461,1306
848.403381,1298
848.521362,1286
848.639221,1248
848.75708,1270
848.875,1264
848.99292,1279
849.110901,1293
849.22876,1299
849.34668,1277
849.464539,1236
849.582458,1278
849.700317,1291
849.818176,1255
849.936096,1286
850.053955,1270
850.171875,1248
850.289673,1263
850.407593,1264
850.525452,1267
850.643311,1287
850.761169,1259
850.878967,1277
850.996887,1271
851.114746,1267
851.232544,1261
851.350403,1264
851.468262,1274
851.58606,1299
851.703979,1240
851.821777,1283
851.939636,1266
852.057434,1316
852.175232,1282
852.293091,1289
852.410889,1301
852.528687,1286
852.646545,1259
852.764343,1243
852.88208,1311
852.999939,1261
853.117676,1271
853.235535,1303
853.353271,1284
853.471069,1247
853.588928,1298
853.706604,1268
853.824402,1327
853.9422,1248
854.059998,1238
854.177734,1286
854.295532,1252
854.413269,1293
854.531006,1270
854.648804,1292
854.766541,1276
854.884277,1267
855.002014,1257
855.119751,1288
855.237549,1291
855.355225,1267
855.473022,1313
855.590698,1282
855.708435,1280
855.826172,1271
855.943848,1248
856.061646,1317
856.179321,1310
856.296997,1321
856.414795,1297
856.53241,1287
856.650085,1266
856.767822,1267
856.885559,1276
857.003174,1333
857.120911,1290
857.238586,1333
857.356201,1285
857.473938,1285
857.591614,1301
857.709351,1278
857.826965,1314
857.944641,1305
858.062317,1283
858.179993,1295
858.297668,1290
858.415283,1265
858.532959,1255
858.650574,1334
858.768188,1310
858.885803,1317
859.003479,1293
859.121094,1288
859.23877,1262
859.356384,1281
859.473999,1310
859.591675,1300
859.709229,1274
859.826843,1260
859.944458,1308
860.062012,1309
860.179626,1274
860.297302,1294
860.414856,1303
860.532471,1284
860.650024,1302
860.767639,1281
860.885193,1308
861.002808,1287
861.120361,1274
861.237976,1308
861.35553,1285
861.473022,1282
861.590698,1239
861.708191,1278
861.825745,1276
861.943298,1291
862.060852,1283
862.178406,1279
862.295959,1343
862.413513,1229
862.531006,1300
862.64856,1305
862.766113,1313
862.883667,1272
863.00116,1287
863.118713,1307
863.236206,1311
863.353699,1298
863.471252,1292
863.588745,1288
863.706177,1261
863.82373,1306
863.941162,1284
864.058716,1294
864.176208,1302
864.29364,1303
864.411194,1286
864.528687,1296
864.646118,1299
864.763611,1305
864.881042,1270
864.998535,1297
865.116028,1316
865.233459,1273
865.350891,1302
865.468384,1302
865.585754,1289
865.703308,1311
865.820679,1291
865.938171,1303
866.055542,1276
866.173035,1271
866.290466,1315
866.407837,1284
866.52533,1330
866.6427,1324
866.760071,1308
866.877563,1301
866.994934,1288
867.112305,1285
867.229736,1290
867.347107,1334
867.464539,1273
867.58197,1262
867.699341,1285
867.81665,1288
867.934082,1299
868.051453,1297
868.168823,1322
868.286194,1292
868.403564,1284
868.520935,1281
868.638306,1321
868.755676,1275
868.872986,1313
868.990295,1286
869.107727,1336
869.225037,1318
869.342346,1333
869.459717,1310
869.577026,1319
869.694336,1334
869.811707,1317
869.929016,1280
870.046326,1280
870.163635,1302
870.280945,1279
870.398254,1319
870.515564,1302
870.632812,1274
870.750183,1283
870.867432,1321
870.984741,1295
871.102051,1274
871.219299,1277
871.336609,1279
871.453918,1289
871.571106,1329
871.688416,1289
871.805664,1302
871.922852,1313
872.040222,1302
872.157471,1331
872.274719,1312
872.391968,1310
872.509155,1336
872.626465,1284
872.743652,1332
872.860962,1269
872.978149,1294
873.095337,1307
873.212646,1253
873.329834,1315
873.44696,1314
873.564209,1308
873.681396,1316
873.798645,1355
873.915894,1315
874.03302,1313
874.150208,1352
874.267456,1269
874.384583,1323
874.501831,1278
874.618958,1346
874.736145,1278
874.853333,1291
874.970459,1292
875.087646,1322
875.204834,1280
875.32196,1344
875.439148,1317
875.556274,1295
875.673401,1339
875.790527,1316
875.907715,1294
876.024841,1294
876.141968,1290
876.259094,1290
876.376282,1317
876.493347,1311
876.610474,1350
876.7276,1278
876.844727,1335
876.961853,1312
877.078918,1337
877.195984,1328
877.313171,1294
877.430237,1317
877.547302,1319
877.664368,1253
877.781433,1346
877.898499,1366
878.015625,1310
878.13269,1336
878.249695,1297
878.366821,1331
878.483887,1252
878.600952,1301
878.717957,1318
878.834961,1291
878.952087,1264
879.069092,1344
879.186157,1321
879.303162,1310
879.420227,1295
879.537231,1329
879.654236,1363
879.77124,1324
879.888306,1308
880.005249,1345
880.122314,1310
880.239319,1323
880.356323,1328
880.473328,1322
880.590271,1328
880.707275,1304
880.824341,1318
880.941284,1301
881.058228,1336
881.175232,1351
881.292236,1304
881.40918,1308
881.526123,1307
881.643066,1335
881.760071,1351
881.877014,1339
881.993958,1334
882.11084,1317
882.227783,1344
882.344727,1310
882.46167,1331
882.578613,1316
882.695618,1311
882.812439,1325
882.929382,1284
883.046326,1348
883.163208,1305
883.280151,1340
883.397034,1301
883.513916,1337
883.630798,1335
883.747742,1357
883.864563,1305
883.981506,1329
884.098389,1374
884.21521,1323
884.332153,1317
884.448975,1319
884.565796,1364
884.682678,1316
884.7995,1348
884.916443,1294
885.033264,1329
885.150085,1284
885.266968,1323
885.383789,1334
885.500671,1326
885.617493,1311
885.734314,1338
885.851196,1360
885.967896,1306
886.084717,1353
886.201599,1341
886.318359,1309
886.435181,1340
886.552002,1373
886.668762,1342
886.785645,1327
886.902344,1324
887.019165,1355
887.135925,1309
887.252747,1349
887.369446,1360
887.486267,1333
887.603027,1364
887.719788,1352
887.836548,1309
887.953247,1314
888.070068,1330
888.186829,1343
888.303528,1333
888.420288,1350
888.536987,1365
888.653687,1323
888.770447,1374
888.887146,1343
889.003967,1314
889.120667,1321
889.237305,1356
889.354065,1365
889.470703,1361
889.587463,1317
889.704163,1330
889.820862,1323
889.937561,1320
890.054199,1357
890.170837,1406
890.287598,1323
890.404236,1334
890.520874,1360
890.637634,1332
890.754211,1393
890.87085,1329
890.987549,1374
891.104187,1368
891.220886,1346
891.337463,1327
891.454102,1339
891.57074,1383
891.687378,1369
891.804077,1392
891.920654,1337
892.037231,1370
892.15387,1378
892.270447,1351
892.387085,1371
892.503723,1392
892.6203,1378
892.736877,1376
892.853516,1368
892.970032,1335
893.08667,1357
893.203186,1389
893.319763,1377
893.43634,1376
893.552917,1379
893.669556,1361
893.786011,1370
893.902588,1360
894.019165,1345
894.135681,1326
894.252197,1372
894.368835,1391
894.485291,1415
894.601868,1328
894.718384,1414
894.8349,1354
894.951355,1385
895.067932,1347
895.184448,1352
895.300964,1360
895.417419,1386
895.533936,1358
895.650452,1367
895.766907,1365
895.883423,1367
895.999878,1417
896.116333,1379
896.232849,1377
896.349304,1401
896.465759,1402
896.582214,1356
896.698669,1401
896.815125,1381
896.931641,1386
897.048035,1363
897.164551,1383
897.280884,1364
897.397339,1407
897.513794,1376
897.630249,1373
897.746582,1369
897.863098,1331
897.979431,1409
898.095886,1436
898.212341,1379
898.328674,1407
898.445129,1337
898.561462,1351
898.677795,1392
898.794312,1404
898.910645,1391
899.026978,1362
899.143433,1398
899.259766,1343
899.37616,1366
899.492493,1414
899.608765,1373
899.725159,1386
899.841553,1381
899.957947,1378
900.07428,1427
900.190552,1370
900.306946,1400
900.423157,1363
900.53949,1400
900.655884,1429
900.772156,1403
900.888489,1378
901.004822,1422
901.121033,1389
901.237366,1346
901.353699,1376
901.46991,1395
901.586304,1377
901.702515,1365
901.818787,1356
901.93512,1405
902.051331,1407
902.167603,1386
902.283875,1404
902.400085,1363
902.516418,1375
902.632629,1393
902.74884,1371
902.865112,1363
902.981384,1396
903.097595,1407
903.213867,1384
903.330017,1427
903.446289,1391
903.5625,1425
903.67865,1369
903.794922,1397
903.911072,1369
904.027344,1391
904.143494,1359
904.259705,1400
904.375916,1441
904.492065,1405
904.608215,1413
904.724426,1415
904.840576,1422
904.956726,1418
905.072876,1379
905.189087,1404
905.305176,1407
905.421387,1414
905.537537,1458
905.653687,1399
905.769775,1440
905.885925,1390
906.002014,1391
906.118164,1417
906.234314,1398
906.350403,1409
906.466492,1428
906.582642,1407
906.69873,1409
906.814758,1386
906.930908,1421
907.046936,1389
907.163086,1484
907.279175,1431
907.395264,1388
907.511353,1388
907.62738,1421
907.743408,1410
907.859497,1381
907.975525,1426
908.091553,1437
908.207703,1436
908.32373,1363
908.439758,1433
908.555786,1454
908.671814,1413
908.787842,1396
908.90387,1423
909.019775,1415
909.135864,1387
909.251892,1410
909.367859,1441
909.483826,1415
909.599854,1414
909.715881,1416
909.831848,1383
909.947815,1394
910.063782,1422
910.179749,1410
910.295776,1412
910.411743,1460
910.527649,1386
910.643616,1424
910.759583,1424
910.875488,1446
910.991455,1419
911.107361,1435
911.223267,1431
911.339294,1442
911.4552,1409
911.571106,1463
911.687073,1448
911.802979,1375
911.918823,1410
912.034729,1424
912.150635,1406
912.266602,1393
912.382446,1436
912.498352,1380
912.614197,1419
912.730103,1387
912.846008,1494
