792.44574,1709
792.56488,1721
792.68396,1633
792.80304,1609
792.92218,1599
793.041199,1585
793.160339,1601
793.279419,1587
793.398499,1571
793.517578,1595
793.636658,1557
793.755737,1551
793.874817,1582
793.993896,1592
794.112976,1543
794.232056,1548
794.351074,1569
794.470215,1581
794.589233,1576
794.708313,1539
794.827393,1543
794.946411,1527
795.065552,1552
795.18457,1535
795.303589,1544
795.422668,1516
795.541687,1537
795.660767,1499
795.779846,1551
795.898865,1540
796.017883,1495
796.136963,1509
796.255981,1513
796.375061,1528
796.49408,1479
796.613037,1506
796.732117,1492
796.851135,1559
796.970154,1459
797.089233,1490
797.208191,1490
797.327271,1575
797.446228,1457
797.565186,1542
797.684265,1473
797.803223,1477
797.922241,1531
798.04126,1519
798.160278,1497
798.279297,1477
798.398315,1480
798.517273,1495
798.636292,1480
798.75531,1519
798.874268,1494
798.993286,1434
799.112244,1503
799.231323,1392
799.350281,1510
799.469238,1468
799.588257,1460
799.707153,1487
799.826111,1466
799.945129,1527
800.064087,1477
800.183044,1509
800.302063,1456
800.421021,1473
800.539978,1486
800.658936,1460
800.777893,1509
800.896912,1494
801.015747,1452
801.134705,1505
801.253723,1447
801.37262,1487
801.491638,1451
801.610535,1472
801.729492,1470
801.84845,1442
801.967407,1485
802.086243,1493
802.205261,1486
802.324158,1457
802.443115,1512
802.562073,1502
802.680969,1479
802.799927,1455
802.918762,1461
803.037659,1435
803.156677,1483
803.275574,1506
803.39447,1505
803.513428,1500
803.632263,1481
803.751221,1423
803.870117,1475
803.989014,1464
804.107971,1488
804.226746,1468
804.345642,1465
804.4646,1499
804.583496,1460
804.702393,1465
804.821228,1490
804.940125,1470
805.059021,1456
805.177917,1456
805.296814,1482
805.415649,1466
805.534546,1488
805.653442,1456
805.772278,1501
805.891113,1468
806.01001,1513
806.128906,1472
806.247742,1518
806.366577,1463
806.485413,1502
806.604309,1476
806.723145,1475
806.84198,1480
806.960876,1447
807.079712,1507
807.198486,1471
807.317383,1479
807.436218,1438
807.554993,1487
807.673889,1500
807.792725,1448
807.91156,1460
808.030396,1489
808.14917,1476
808.268005,1452
808.386841,1478
808.505676,1473
808.624451,1481
808.743286,1467
808.862122,1460
808.980896,1467
809.099731,1454
809.218506,1492
809.337341,1496
809.456116,1479
809.57489,1485
809.693726,1471
809.8125,1489
809.931274,1457
810.050049,1516
810.168884,1465
810.287659,1506
810.406372,1484
810.525269,1453
810.643982,1425
810.762756,1525
810.881531,1460
811.000305,1522
811.11908,1466
811.237854,1448
811.356567,1456
811.475403,1441
811.594116,1444
811.71283,1491
811.831604,1467
811.950378,1526
812.069153,1454
812.187927,1528
812.30658,1472
812.425415,1466
812.544128,1459
812.662781,1490
812.781616,1465
812.900269,1501
813.019043,1490
813.137756,1446
813.256531,1412
813.375244,1488
813.493896,1489
813.612671,1455
813.731384,1485
813.850037,1426
813.96875,1446
814.087524,1440
814.206238,1453
814.324951,1451
814.443604,1453
814.562256,1472
814.68103,1460
814.799683,1454
814.918335,1476
815.037109,1418
815.155762,1458
815.274475,1454
815.393188,1467
815.511841,1452
815.630554,1426
815.749146,1469
815.867859,1436
815.986572,1446
816.105164,1449
816.223877,1427
816.342529,1405
816.461182,1458
816.579895,1454
816.698486,1460
816.817139,1425
816.935791,1405
817.054504,1444
817.173096,1434
817.291748,1434
817.4104,1405
817.529053,1460
817.647644,1431
817.766235,1415
817.884949,1415
818.00354,1382
818.122192,1418
818.240845,1396
818.359436,1411
818.478088,1363
818.59668,1359
818.715271,1399
818.833923,1370
818.952515,1403
819.071106,1409
819.189758,1341
819.30835,1357
819.426941,1354
819.545532,1395
819.664124,1375
819.782715,1332
819.901306,1385
820.019897,1389
820.138489,1336
820.25708,1365
820.375671,1336
820.494202,1343
820.612732,1333
820.731384,1345
820.849915,1364
820.968506,1317
821.087097,1347
821.205627,1322
821.324158,1341
821.442749,1346
821.561279,1321
821.679871,1350
821.798401,1325
821.916931,1305
822.035461,1319
822.154053,1332
822.272583,1293
822.391174,1328
822.509583,1306
822.628174,1341
822.746704,1315
822.865234,1332
822.983765,1341
823.102295,1313
823.220825,1323
823.339294,1324
823.457825,1304
823.576355,1306
823.694824,1306
823.813354,1330
823.931885,1318
824.050354,1314
824.168884,1346
824.287354,1283
824.405823,1331
824.524353,1371
824.642822,1352
824.761353,1354
824.879822,1325
824.998291,1285
825.116699,1329
825.235291,1322
825.353699,1328
825.472168,1307
825.590637,1300
825.709106,1344
825.827576,1304
825.946045,1325
826.064453,1323
826.182983,1306
826.301392,1305
826.4198,1270
826.53833,1356
826.656738,1298
826.775208,1298
826.893677,1282
827.012024,1301
827.130493,1313
827.248962,1314
827.36731,1323
827.485779,1301
827.604248,1331
827.722595,1296
827.841064,1315
827.959412,1291
828.077942,1285
828.196289,1328
828.314636,1289
828.433105,1322
828.551514,1275
828.669861,1282
828.78833,1269
828.906677,1279
829.025085,1247
829.143433,1276
829.261841,1323
829.38031,1315
829.498657,1278
829.617004,1291
829.735413,1303
829.85376,1303
829.972107,1293
830.090515,1302
830.208862,1322
830.327209,1267
830.445557,1312
830.563904,1286
830.682312,1297
830.800659,1306
830.919006,1263
831.037354,1297
831.155701,1305
831.274048,1241
831.392395,1310
831.51062,1331
831.629028,1287
831.747314,1303
831.865662,1291
831.984009,1280
832.102356,1331
832.220642,1249
832.338928,1299
832.457275,1254
832.575623,1243
832.693909,1319
832.812134,1214
832.930481,1276
833.048828,1305
833.167114,1284
833.2854,1277
833.403687,1325
833.521973,1283
833.640259,1288
833.758545,1289
833.876831,1288
833.995056,1273
834.113281,1295
834.231628,1290
834.349915,1294
834.468201,1304
834.586426,1265
834.704651,1294
834.822998,1291
834.941162,1265
835.059448,1279
835.177673,1314
835.295959,1279
835.414246,1287
835.53241,1257
835.650635,1259
835.768921,1264
835.887146,1286
836.005371,1260
836.123596,1303
836.241821,1292
836.360046,1278
836.478271,1286
836.596497,1257
836.714722,1310
836.832886,1270
836.95105,1270
837.069336,1296
837.1875,1283
837.305725,1294
837.423889,1282
837.542053,1301
837.660339,1316
837.778503,1282
837.896667,1288
838.014832,1298
838.132996,1325
838.25116,1254
838.369385,1276
838.487488,1300
838.605713,1273
838.723877,1316
838.84198,1290
838.960205,1281
839.078308,1301
839.196472,1247
839.314636,1307
839.4328,1282
839.550964,1288
839.669067,1258
839.787231,1288
839.905396,1288
840.023499,1256
840.141602,1302
840.259766,1323
840.377869,1278
840.495972,1255
840.614136,1288
840.732239,1288
840.850342,1240
840.968445,1284
841.086548,1259
841.204651,1328
841.322754,1298
841.440918,1298
841.55896,1290
841.677002,1267
841.795166,1267
841.913208,1233
842.031311,1275
842.149353,1259
842.267456,1262
842.385498,1235
842.503601,1270
842.621643,1293
842.739746,1252
842.857788,1290
842.97583,1263
843.093933,1289
843.211975,1268
843.330017,1295
843.44812,1230
843.566101,1257
843.684204,1307
843.802246,1299
843.920227,1253
844.038269,1303
844.156311,1280
844.274292,1285
844.392395,1282
844.510376,1277
844.628357,1262
844.74646,1265
844.864441,1257
844.982422,1263
845.100403,1237
845.218384,1264
845.336426,1242
845.454468,1262
845.572449,1263
845.69043,1264
845.808411,1273
845.926453,1255
846.044373,1244
846.162354,1259
846.280396,1257
846.398315,1285
846.516296,1271
846.634216,1291
846.752197,1252
846.870178,1277
846.988098,1235
847.106079,1264
847.22406,1273
847.34198,1305
847.4599,1259
847.577881,1268
847.695801,1249
847.813782,1270
847.931641,1257
848.049561,1245
848.167603,1281
848.285461,1292
848.403381,1248
848.521362,1288
848.639221,1306
848.75708,1305
848.875,1239
848.99292,1293
849.110901,1296
849.22876,1284
849.34668,1283
849.464539,1266
849.582458,1272
849.700317,1273
849.818176,1255
849.936096,1298
850.053955,1294
850.171875,1231
850.289673,1302
850.407593,1268
850.525452,1260
850.643311,1285
850.761169,1282
850.878967,1262
850.996887,1311
851.114746,1267
851.232544,1247
851.350403,1254
851.468262,1289
851.58606,1306
851.703979,1280
851.821777,1275
851.939636,1273
852.057434,1262
852.175232,1291
852.293091,1305
852.410889,1231
852.528687,1254
852.646545,1249
852.764343,1277
852.88208,1272
852.999939,1256
853.117676,1290
853.235535,1300
853.353271,1268
853.471069,1286
853.588928,1258
853.706604,1303
853.824402,1306
853.9422,1287
854.059998,1265
854.177734,1291
854.295532,1293
854.413269,1288
854.531006,1267
854.648804,1287
854.766541,1275
854.884277,1247
855.002014,1243
855.119751,1304
855.237549,1275
855.355225,1297
855.473022,1279
855.590698,1255
855.708435,1287
855.826172,1317
855.943848,1256
856.061646,1269
856.179321,1303
856.296997,1284
856.414795,1260
856.53241,1279
856.650085,1275
856.767822,1292
856.885559,1263
857.003174,1312
857.120911,1296
857.238586,1291
857.356201,1270
857.473938,1303
857.591614,1225
857.709351,1281
857.826965,1268
857.944641,1267
858.062317,1287
858.179993,1257
858.297668,1322
858.415283,1293
858.532959,1283
858.650574,1276
858.768188,1261
858.885803,1290
859.003479,1234
859.121094,1280
859.23877,1263
859.356384,1291
859.473999,1287
859.591675,1246
859.709229,1264
859.826843,1286
859.944458,1282
860.062012,1280
860.179626,1277
860.297302,1276
860.414856,1283
860.532471,1259
860.650024,1331
860.767639,1273
860.885193,1287
861.002808,1250
861.120361,1315
861.237976,1296
861.35553,1313
861.473022,1331
861.590698,1272
861.708191,1296
861.825745,1282
861.943298,1336
862.060852,1277
862.178406,1231
862.295959,1273
862.413513,1266
862.531006,1270
862.64856,1275
862.766113,1262
862.883667,1289
863.00116,1273
863.118713,1280
863.236206,1254
863.353699,1256
863.471252,1276
863.588745,1311
863.706177,1288
863.82373,1298
863.941162,1304
864.058716,1294
864.176208,1276
864.29364,1292
864.411194,1273
864.528687,1292
864.646118,1306
864.763611,1291
864.881042,1295
864.998535,1307
865.116028,1320
865.233459,1331
865.350891,1302
865.468384,1322
865.585754,1274
865.703308,1333
865.820679,1293
865.938171,1267
866.055542,1281
866.173035,1307
866.290466,1258
866.407837,1280
866.52533,1306
866.6427,1329
866.760071,1290
866.877563,1309
866.994934,1284
867.112305,1284
867.229736,1342
867.347107,1317
867.464539,1272
867.58197,1288
867.699341,1277
867.81665,1322
867.934082,1259
868.051453,1310
868.168823,1322
868.286194,1313
868.403564,1282
868.520935,1278
868.638306,1282
868.755676,1313
868.872986,1306
868.990295,1314
869.107727,1311
869.225037,1248
869.342346,1293
869.459717,1297
869.577026,1345
869.694336,1289
869.811707,1284
869.929016,1294
870.046326,1273
870.163635,1321
870.280945,1298
870.398254,1261
870.515564,1286
870.632812,1260
870.750183,1286
870.867432,1286
870.984741,1292
871.102051,1340
871.219299,1324
871.336609,1318
871.453918,1292
871.571106,1328
871.688416,1318
871.805664,1261
871.922852,1283
872.040222,1272
872.157471,1328
872.274719,1313
872.391968,1321
872.509155,1301
872.626465,1280
872.743652,1292
872.860962,1284
872.978149,1315
873.095337,1296
873.212646,1316
873.329834,1279
873.44696,1322
873.564209,1292
873.681396,1319
873.798645,1292
873.915894,1296
874.03302,1294
874.150208,1308
874.267456,1329
874.384583,1317
874.501831,1309
874.618958,1303
874.736145,1288
874.853333,1308
874.970459,1289
875.087646,1330
875.204834,1306
875.32196,1298
875.439148,1338
875.556274,1296
875.673401,1336
875.790527,1344
875.907715,1323
876.024841,1283
876.141968,1289
876.259094,1291
876.376282,1298
876.493347,1272
876.610474,1317
876.7276,1257
876.844727,1335
876.961853,1294
877.078918,1305
877.195984,1309
877.313171,1324
877.430237,1332
877.547302,1322
877.664368,1353
877.781433,1303
877.898499,1336
878.015625,1325
878.13269,1314
878.249695,1329
878.366821,1282
878.483887,1335
878.600952,1317
878.717957,1294
878.834961,1303
878.952087,1292
879.069092,1343
879.186157,1292
879.303162,1330
879.420227,1341
879.537231,1351
879.654236,1286
879.77124,1304
879.888306,1295
880.005249,1299
880.122314,1302
880.239319,1265
880.356323,1342
880.473328,1321
880.590271,1320
880.707275,1327
880.824341,1318
880.941284,1314
881.058228,1328
881.175232,1326
881.292236,1300
881.40918,1325
881.526123,1341
881.643066,1308
881.760071,1324
881.877014,1325
881.993958,1306
882.11084,1330
882.227783,1338
882.344727,1342
882.46167,1327
882.578613,1294
882.695618,1323
882.812439,1311
882.929382,1334
883.046326,1306
883.163208,1306
883.280151,1309
883.397034,1339
883.513916,1313
883.630798,1312
883.747742,1330
883.864563,1365
883.981506,1313
884.098389,1355
884.21521,1298
884.332153,1294
884.448975,1322
884.565796,1308
884.682678,1322
884.7995,1330
884.916443,1394
885.033264,1334
885.150085,1327
885.266968,1342
885.383789,1345
885.500671,1373
885.617493,1386
885.734314,1355
885.851196,1285
885.967896,1348
886.084717,1338
886.201599,1318
886.318359,1329
886.435181,1370
886.552002,1308
886.668762,1359
886.785645,1327
886.902344,1358
887.019165,1333
887.135925,1356
887.252747,1337
887.369446,1386
887.486267,1309
887.603027,1376
887.719788,1344
887.836548,1341
887.953247,1350
888.070068,1354
888.186829,1343
888.303528,1349
888.420288,1358
888.536987,1320
888.653687,1348
888.770447,1357
888.887146,1345
889.003967,1352
889.120667,1330
889.237305,1360
889.354065,1361
889.470703,1406
889.587463,1355
889.704163,1314
889.820862,1351
889.937561,1363
890.054199,1304
890.170837,1348
890.287598,1392
890.404236,1350
890.520874,1347
890.637634,1348
890.754211,1334
890.87085,1419
890.987549,1341
891.104187,1384
891.220886,1344
891.337463,1337
891.454102,1386
891.57074,1376
891.687378,1403
891.804077,1336
891.920654,1362
892.037231,1379
892.15387,1384
892.270447,1317
892.387085,1371
892.503723,1352
892.6203,1369
892.736877,1382
892.853516,1336
892.970032,1380
893.08667,1353
893.203186,1414
893.319763,1369
893.43634,1354
893.552917,1374
893.669556,1340
893.786011,1365
893.902588,1370
894.019165,1385
894.135681,1344
894.252197,1411
894.368835,1408
894.485291,1398
894.601868,1371
894.718384,1378
894.8349,1366
894.951355,1380
895.067932,1393
895.184448,1405
895.300964,1399
895.417419,1398
895.533936,1336
895.650452,1380
895.766907,1347
895.883423,1389
895.999878,1369
896.116333,1353
896.232849,1372
896.349304,1376
896.465759,1351
896.582214,1358
896.698669,1340
896.815125,1359
896.931641,1417
897.048035,1362
897.164551,1411
897.280884,1361
897.397339,1378
897.513794,1402
897.630249,1400
897.746582,1413
897.863098,1373
897.979431,1379
898.095886,1365
898.212341,1397
898.328674,1409
898.445129,1344
898.561462,1365
898.677795,1365
898.794312,1362
898.910645,1396
899.026978,1385
899.143433,1417
899.259766,1366
899.37616,1408
899.492493,1327
899.608765,1364
899.725159,1390
899.841553,1418
899.957947,1356
900.07428,1384
900.190552,1394
900.306946,1416
900.423157,1400
900.53949,1332
900.655884,1384
900.772156,1409
900.888489,1432
901.004822,1380
901.121033,1366
901.237366,1363
901.353699,1352
901.46991,1374
901.586304,1355
901.702515,1377
901.818787,1416
901.93512,1411
902.051331,1417
902.167603,1380
902.283875,1417
902.400085,1338
902.516418,1408
902.632629,1414
902.74884,1378
902.865112,1403
902.981384,1366
903.097595,1403
903.213867,1406
903.330017,1398
903.446289,1360
903.5625,1386
903.67865,1409
903.794922,1407
903.911072,1399
904.027344,1404
904.143494,1335
904.259705,1412
904.375916,1438
904.492065,1367
904.608215,1375
904.724426,1405
904.840576,1394
904.956726,1400
905.072876,1420
905.189087,1395
905.305176,1383
905.421387,1376
905.537537,1433
905.653687,1425
905.769775,1397
905.885925,1452
906.002014,1398
906.118164,1422
906.234314,1380
906.350403,1436
906.466492,1417
906.582642,1475
906.69873,1448
906.814758,1386
906.930908,1402
907.046936,1426
907.163086,1402
907.279175,1385
907.395264,1424
907.511353,1386
907.62738,1423
907.743408,1390
907.859497,1404
907.975525,1457
908.091553,1401
908.207703,1408
908.32373,1446
908.439758,1438
908.555786,1440
908.671814,1412
908.787842,1397
908.90387,1423
909.019775,1440
909.135864,1395
909.251892,1407
909.367859,1416
909.483826,1444
909.599854,1400
909.715881,1446
909.831848,1438
909.947815,1409
910.063782,1456
910.179749,1437
910.295776,1423
910.411743,1451
910.527649,1450
910.643616,1395
910.759583,1445
910.875488,1471
910.991455,1401
911.107361,1450
911.223267,1383
911.339294,1430
911.4552,1450
911.571106,1378
911.687073,1426
911.802979,1388
911.918823,1410
912.034729,1376
912.150635,1411
912.266602,1398
912.382446,1446
912.498352,1416
912.614197,1371
912.730103,1437
912.846008,1401
792.44574,1700
792.56488,1694
792.68396,1661
792.80304,1626
792.92218,1661
793.041199,1602
793.160339,1625
793.279419,1609
793.398499,1638
793.517578,1593
793.636658,1618
793.755737,1633
793.874817,1570
793.993896,1605
794.112976,1635
794.232056,1610
794.351074,1591
794.470215,1564
794.589233,1574
794.708313,1510
794.827393,1563
794.946411,1583
795.065552,1558
795.18457,1586
795.303589,1547
795.422668,1576
795.541687,1554
795.660767,1565
795.779846,1544
795.898865,1528
796.017883,1542
796.136963,1529
796.255981,1557
796.375061,1531
796.49408,1496
796.613037,1540
796.732117,1525
796.851135,1511
796.970154,1495
797.089233,1499
797.208191,1516
797.327271,1524
797.446228,1539
797.565186,1541
797.684265,1516
797.803223,1482
797.922241,1499
798.04126,1494
798.160278,1553
798.279297,1486
798.398315,1572
798.517273,1460
798.636292,1573
798.75531,1482
798.874268,1540
798.993286,1524
799.112244,1534
799.231323,1530
799.350281,1522
799.469238,1528
799.588257,1493
799.707153,1505
799.826111,1499
799.945129,1490
800.064087,1465
800.183044,1519
800.302063,1503
800.421021,1523
800.539978,1489
800.658936,1452
800.777893,1508
800.896912,1474
801.015747,1504
801.134705,1503
801.253723,1503
801.37262,1518
801.491638,1473
801.610535,1509
801.729492,1535
801.84845,1485
801.967407,1512
802.086243,1478
802.205261,1493
802.324158,1529
802.443115,1536
802.562073,1480
802.680969,1521
802.799927,1526
802.918762,1516
803.037659,1555
803.156677,1494
803.275574,1521
803.39447,1506
803.513428,1495
803.632263,1506
803.751221,1516
803.870117,1487
803.989014,1515
804.107971,1496
804.226746,1498
804.345642,1491
804.4646,1527
804.583496,1517
804.702393,1514
804.821228,1513
804.940125,1510
805.059021,1469
805.177917,1505
805.296814,1513
805.415649,1526
805.534546,1509
805.653442,1506
805.772278,1487
805.891113,1508
806.01001,1490
806.128906,1522
806.247742,1538
806.366577,1503
806.485413,1535
806.604309,1526
806.723145,1504
806.84198,1499
806.960876,1524
807.079712,1433
807.198486,1524
807.317383,1514
807.436218,1462
807.554993,1486
807.673889,1485
807.792725,1485
807.91156,1509
808.030396,1512
808.14917,1510
808.268005,1482
808.386841,1489
808.505676,1454
808.624451,1528
808.743286,1491
808.862122,1498
808.980896,1483
809.099731,1489
809.218506,1525
809.337341,1471
809.456116,1498
809.57489,1509
809.693726,1537
809.8125,1493
809.931274,1530
810.050049,1518
810.168884,1493
810.287659,1472
810.406372,1488
810.525269,1472
810.643982,1491
810.762756,1523
810.881531,1493
811.000305,1498
811.11908,1482
811.237854,1499
811.356567,1459
811.475403,1520
811.594116,1498
811.71283,1496
811.831604,1501
811.950378,1536
812.069153,1518
812.187927,1514
812.30658,1481
812.425415,1523
812.544128,1495
812.662781,1490
812.781616,1485
812.900269,1494
813.019043,1555
813.137756,1466
813.256531,1504
813.375244,1434
813.493896,1512
813.612671,1474
813.731384,1525
813.850037,1535
813.96875,1448
814.087524,1499
814.206238,1447
814.324951,1426
814.443604,1507
814.562256,1490
814.68103,1444
814.799683,1486
814.918335,1476
815.037109,1508
815.155762,1487
815.274475,1479
815.393188,1471
815.511841,1496
815.630554,1468
815.749146,1500
815.867859,1458
815.986572,1458
816.105164,1457
816.223877,1492
816.342529,1500
816.461182,1445
816.579895,1465
816.698486,1507
816.817139,1469
816.935791,1460
817.054504,1474
817.173096,1503
817.291748,1447
817.4104,1483
817.529053,1412
817.647644,1446
817.766235,1442
817.884949,1432
818.00354,1434
818.122192,1431
818.240845,1406
818.359436,1447
818.478088,1427
818.59668,1404
818.715271,1405
818.833923,1385
818.952515,1418
819.071106,1376
819.189758,1412
819.30835,1403
819.426941,1368
819.545532,1364
819.664124,1399
819.782715,1408
819.901306,1372
820.019897,1355
820.138489,1361
820.25708,1403
820.375671,1358
820.494202,1396
820.612732,1319
820.731384,1397
820.849915,1370
820.968506,1359
821.087097,1362
821.205627,1323
821.324158,1331
821.442749,1381
821.561279,1361
821.679871,1376
821.798401,1373
821.916931,1379
822.035461,1353
822.154053,1372
822.272583,1350
822.391174,1316
822.509583,1328
822.628174,1331
822.746704,1373
822.865234,1377
822.983765,1356
823.102295,1332
823.220825,1359
823.339294,1352
823.457825,1328
823.576355,1361
823.694824,1353
823.813354,1332
823.931885,1332
824.050354,1344
824.168884,1374
824.287354,1356
824.405823,1308
824.524353,1324
824.642822,1334
824.761353,1361
824.879822,1356
824.998291,1358
825.116699,1362
825.235291,1370
825.353699,1370
825.472168,1335
825.590637,1355
825.709106,1357
825.827576,1329
825.946045,1344
826.064453,1332
826.182983,1319
826.301392,1343
826.4198,1326
826.53833,1370
826.656738,1282
826.775208,1287
826.893677,1324
827.012024,1293
827.130493,1334
827.248962,1319
827.36731,1305
827.485779,1299
827.604248,1325
827.722595,1312
827.841064,1316
827.959412,1352
828.077942,1334
828.196289,1322
828.314636,1334
828.433105,1316
828.551514,1339
828.669861,1316
828.78833,1355
828.906677,1332
829.025085,1324
829.143433,1341
829.261841,1316
829.38031,1299
829.498657,1311
829.617004,1320
829.735413,1317
829.85376,1293
829.972107,1325
830.090515,1310
830.208862,1299
830.327209,1317
830.445557,1335
830.563904,1313
830.682312,1296
830.800659,1312
830.919006,1315
831.037354,1321
831.155701,1312
831.274048,1342
831.392395,1334
831.51062,1269
831.629028,1330
831.747314,1293
831.865662,1319
831.984009,1264
832.102356,1294
832.220642,1303
832.338928,1299
832.457275,1306
832.575623,1307
832.693909,1302
832.812134,1335
832.930481,1299
833.048828,1308
833.167114,1315
833.2854,1283
833.403687,1333
833.521973,1303
833.640259,1320
833.758545,1297
833.876831,1292
833.995056,1321
834.113281,1315
834.231628,1341
834.349915,1321
834.468201,1290
834.586426,1338
834.704651,1293
834.822998,1290
834.941162,1292
835.059448,1321
835.177673,1295
835.295959,1279
835.414246,1316
835.53241,1274
835.650635,1277
835.768921,1327
835.887146,1278
836.005371,1318
836.123596,1325
836.241821,1314
836.360046,1312
836.478271,1316
836.596497,1311
836.714722,1330
836.832886,1268
836.95105,1345
837.069336,1293
837.1875,1292
837.305725,1333
837.423889,1289
837.542053,1339
837.660339,1312
837.778503,1307
837.896667,1296
838.014832,1301
838.132996,1310
838.25116,1267
838.369385,1311
838.487488,1306
838.605713,1305
838.723877,1350
838.84198,1287
838.960205,1288
839.078308,1292
839.196472,1303
839.314636,1287
839.4328,1339
839.550964,1280
839.669067,1312
839.787231,1304
839.905396,1307
840.023499,1296
840.141602,1307
840.259766,1290
840.377869,1271
840.495972,1293
840.614136,1309
840.732239,1283
840.850342,1290
840.968445,1286
841.086548,1288
841.204651,1289
841.322754,1300
841.440918,1332
841.55896,1257
841.677002,1294
841.795166,1304
841.913208,1318
842.031311,1288
842.149353,1292
842.267456,1282
842.385498,1320
842.503601,1292
842.621643,1298
842.739746,1315
842.857788,1285
842.97583,1278
843.093933,1290
843.211975,1291
843.330017,1318
843.44812,1341
843.566101,1272
843.684204,1293
843.802246,1313
843.920227,1298
844.038269,1299
844.156311,1292
844.274292,1326
844.392395,1299
844.510376,1301
844.628357,1268
844.74646,1305
844.864441,1325
844.982422,1277
845.100403,1300
845.218384,1277
845.336426,1291
845.454468,1319
845.572449,1323
845.69043,1291
845.808411,1276
845.926453,1292
846.044373,1282
846.162354,1294
846.280396,1273
846.398315,1266
846.516296,1325
846.634216,1292
846.752197,1293
846.870178,1281
846.988098,1299
847.106079,1278
847.22406,1240
847.34198,1303
847.4599,1304
847.577881,1320
847.695801,1293
847.813782,1277
847.931641,1329
848.049561,1272
848.167603,1291
848.285461,1283
848.403381,1292
848.521362,1298
848.639221,1306
848.75708,1291
848.875,1312
848.99292,1296
849.110901,1279
849.22876,1307
849.34668,1301
849.464539,1272
849.582458,1350
849.700317,1251
849.818176,1315
849.936096,1322
850.053955,1297
850.171875,1305
850.289673,1276
850.407593,1276
850.525452,1267
850.643311,1263
850.761169,1271
850.878967,1262
850.996887,1341
851.114746,1292
851.232544,1266
851.350403,1284
851.468262,1239
851.58606,1255
851.703979,1298
851.821777,1300
851.939636,1281
852.057434,1309
852.175232,1292
852.293091,1302
852.410889,1306
852.528687,1304
852.646545,1289
852.764343,1309
852.88208,1334
852.999939,1310
853.117676,1277
853.235535,1285
853.353271,1289
853.471069,1352
853.588928,1291
853.706604,1261
853.824402,1313
853.9422,1296
854.059998,1323
854.177734,1273
854.295532,1280
854.413269,1346
854.531006,1262
854.648804,1279
854.766541,1282
854.884277,1291
855.002014,1286
855.119751,1285
855.237549,1308
855.355225,1301
855.473022,1263
855.590698,1305
855.708435,1281
855.826172,1265
855.943848,1340
856.061646,1343
856.179321,1295
856.296997,1316
856.414795,1274
856.53241,1307
856.650085,1278
856.767822,1306
856.885559,1314
857.003174,1308
857.120911,1318
857.238586,1295
857.356201,1352
857.473938,1274
857.591614,1346
857.709351,1299
857.826965,1335
857.944641,1272
858.062317,1309
858.179993,1290
858.297668,1349
858.415283,1326
858.532959,1284
858.650574,1312
858.768188,1300
858.885803,1306
859.003479,1325
859.121094,1279
859.23877,1313
859.356384,1335
859.473999,1302
859.591675,1293
859.709229,1316
859.826843,1319
859.944458,1278
860.062012,1294
860.179626,1301
860.297302,1324
860.414856,1290
860.532471,1295
860.650024,1309
860.767639,1299
860.885193,1319
861.002808,1300
861.120361,1319
861.237976,1294
861.35553,1302
861.473022,1314
861.590698,1326
861.708191,1275
861.825745,1306
861.943298,1294
862.060852,1314
862.178406,1302
862.295959,1286
862.413513,1297
862.531006,1324
862.64856,1313
862.766113,1290
862.883667,1328
863.00116,1332
863.118713,1287
863.236206,1330
863.353699,1292
863.471252,1321
863.588745,1320
863.706177,1302
863.82373,1302
863.941162,1268
864.058716,1324
864.176208,1314
864.29364,1305
864.411194,1337
864.528687,1314
864.646118,1325
864.763611,1310
864.881042,1339
864.998535,1294
865.116028,1322
865.233459,1289
865.350891,1313
865.468384,1303
865.585754,1318
865.703308,1363
865.820679,1348
865.938171,1277
866.055542,1331
866.173035,1304
866.290466,1345
866.407837,1335
866.52533,1306
866.6427,1351
866.760071,1330
866.877563,1301
866.994934,1315
867.112305,1333
867.229736,1295
867.347107,1315
867.464539,1356
867.58197,1329
867.699341,1308
867.81665,1305
867.934082,1325
868.051453,1321
868.168823,1330
868.286194,1334
868.403564,1336
868.520935,1325
868.638306,1335
868.755676,1272
868.872986,1308
868.990295,1350
869.107727,1365
869.225037,1297
869.342346,1349
869.459717,1336
869.577026,1304
869.694336,1344
869.811707,1333
869.929016,1302
870.046326,1360
870.163635,1282
870.280945,1317
870.398254,1280
870.515564,1347
870.632812,1299
870.750183,1316
870.867432,1317
870.984741,1310
871.102051,1342
871.219299,1316
871.336609,1337
871.453918,1321
871.571106,1340
871.688416,1286
871.805664,1364
871.922852,1300
872.040222,1296
872.157471,1332
872.274719,1324
872.391968,1339
872.509155,1360
872.626465,1339
872.743652,1316
872.860962,1317
872.978149,1349
873.095337,1293
873.212646,1369
873.329834,1332
873.44696,1307
873.564209,1320
873.681396,1326
873.798645,1336
873.915894,1339
874.03302,1321
874.150208,1298
874.267456,1349
874.384583,1324
874.501831,1325
874.618958,1337
874.736145,1369
874.853333,1323
874.970459,1339
875.087646,1358
875.204834,1402
875.32196,1319
875.439148,1330
875.556274,1352
875.673401,1349
875.790527,1351
875.907715,1352
876.024841,1367
876.141968,1309
876.259094,1305
876.376282,1334
876.493347,1361
876.610474,1303
876.7276,1360
876.844727,1349
876.961853,1339
877.078918,1334
877.195984,1351
877.313171,1356
877.430237,1303
877.547302,1351
877.664368,1320
877.781433,1345
877.898499,1352
878.015625,1348
878.13269,1302
878.249695,1371
878.366821,1373
878.483887,1322
878.600952,1307
878.717957,1342
878.834961,1356
878.952087,1314
879.069092,1340
879.186157,1352
879.303162,1353
879.420227,1338
879.537231,1370
879.654236,1354
879.77124,1353
879.888306,1343
880.005249,1355
880.122314,1316
880.239319,1353
880.356323,1325
880.473328,1328
880.590271,1361
880.707275,1315
880.824341,1363
880.941284,1351
881.058228,1338
881.175232,1348
881.292236,1342
881.40918,1341
881.526123,1322
881.643066,1336
881.760071,1355
881.877014,1352
881.993958,1376
882.11084,1323
882.227783,1330
882.344727,1329
882.46167,1366
882.578613,1332
882.695618,1376
882.812439,1400
882.929382,1360
883.046326,1334
883.163208,1339
883.280151,1308
883.397034,1331
883.513916,1345
883.630798,1358
883.747742,1378
883.864563,1351
883.981506,1327
884.098389,1333
884.21521,1378
884.332153,1343
884.448975,1317
884.565796,1364
884.682678,1364
884.7995,1345
884.916443,1360
885.033264,1430
885.150085,1365
885.266968,1337
885.383789,1336
885.500671,1370
885.617493,1394
885.734314,1377
885.851196,1325
885.967896,1375
886.084717,1379
886.201599,1381
886.318359,1373
886.435181,1378
886.552002,1405
886.668762,1333
886.785645,1390
886.902344,1363
887.019165,1403
887.135925,1365
887.252747,1392
887.369446,1370
887.486267,1403
887.603027,1375
887.719788,1424
887.836548,1343
887.953247,1375
888.070068,1368
888.186829,1376
888.303528,1343
888.420288,1403
888.536987,1381
888.653687,1361
888.770447,1331
888.887146,1420
889.003967,1343
889.120667,1382
889.237305,1374
889.354065,1356
889.470703,1393
889.587463,1364
889.704163,1387
889.820862,1385
889.937561,1361
890.054199,1355
890.170837,1364
890.287598,1333
890.404236,1390
890.520874,1391
890.637634,1383
890.754211,1402
890.87085,1399
890.987549,1384
891.104187,1375
891.220886,1395
891.337463,1409
891.454102,1348
891.57074,1415
891.687378,1357
891.804077,1423
891.920654,1381
892.037231,1405
892.15387,1419
892.270447,1407
892.387085,1410
892.503723,1365
892.6203,1413
892.736877,1398
892.853516,1371
892.970032,1373
893.08667,1390
893.203186,1380
893.319763,1395
893.43634,1407
893.552917,1398
893.669556,1407
893.786011,1397
893.902588,1360
894.019165,1415
894.135681,1446
894.252197,1414
894.368835,1390
894.485291,1390
894.601868,1395
894.718384,1445
894.8349,1427
894.951355,1379
895.067932,1379
895.184448,1414
895.300964,1458
895.417419,1360
895.533936,1404
895.650452,1417
895.766907,1398
895.883423,1413
895.999878,1422
896.116333,1417
896.232849,1382
896.349304,1390
896.465759,1400
896.582214,1417
896.698669,1406
896.815125,1433
896.931641,1402
897.048035,1392
897.164551,1399
897.280884,1423
897.397339,1366
897.513794,1406
897.630249,1430
897.746582,1428
897.863098,1416
897.979431,1399
898.095886,1393
898.212341,1443
898.328674,1373
898.445129,1417
898.561462,1409
898.677795,1407
898.794312,1445
898.910645,1369
899.026978,1418
899.143433,1446
899.259766,1391
899.37616,1413
899.492493,1386
899.608765,1410
899.725159,1408
899.841553,1408
899.957947,1418
900.07428,1451
900.190552,1405
900.306946,1442
900.423157,1423
900.53949,1422
900.655884,1446
900.772156,1437
900.888489,1424
901.004822,1400
901.121033,1436
901.237366,1449
901.353699,1431
901.46991,1405
901.586304,1431
901.702515,1436
901.818787,1400
901.93512,1397
902.051331,1430
902.167603,1438
902.283875,1429
902.400085,1431
902.516418,1425
902.632629,1427
902.74884,1426
902.865112,1437
902.981384,1455
903.097595,1381
903.213867,1433
903.330017,1485
903.446289,1459
903.5625,1408
903.67865,1379
903.794922,1438
903.911072,1371
904.027344,1395
904.143494,1503
904.259705,1423
904.375916,1420
904.492065,1430
904.608215,1445
904.724426,1399
904.840576,1432
904.956726,1428
905.072876,1445
905.189087,1445
905.305176,1391
905.421387,1424
905.537537,1462
905.653687,1443
905.769775,1418
905.885925,1414
906.002014,1417
906.118164,1423
906.234314,1411
906.350403,1472
906.466492,1411
906.582642,1446
906.69873,1426
906.814758,1452
906.930908,1456
907.046936,1414
907.163086,1455
907.279175,1489
907.395264,1448
907.511353,1456
907.62738,1406
907.743408,1464
907.859497,1462
907.975525,1433
908.091553,1436
908.207703,1437
908.32373,1443
908.439758,1445
908.555786,1437
908.671814,1445
908.787842,1464
908.90387,1412
909.019775,1455
909.135864,1452
909.251892,1452
909.367859,1463
909.483826,1383
909.599854,1457
909.715881,1432
909.831848,1479
909.947815,1452
910.063782,1440
910.179749,1494
910.295776,1498
910.411743,1420
910.527649,1449
910.643616,1472
910.759583,1410
910.875488,1476
910.991455,1416
911.107361,1446
911.223267,1431
911.339294,1466
911.4552,1463
911.571106,1414
911.687073,1455
911.802979,1450
911.918823,1433
912.034729,1466
912.150635,1417
912.266602,1431
912.382446,1432
912.498352,1418
912.614197,1448
912.730103,1430
912.846008,1412
792.44574,1708
792.56488,1718
792.68396,1706
792.80304,1681
792.92218,1647
793.041199,1577
793.160339,1623
793.279419,1599
793.398499,1622
793.517578,1623
793.636658,1610
793.755737,1625
793.874817,1652
793.993896,1625
794.112976,1598
794.232056,1602
794.351074,1589
794.470215,1649
794.589233,1581
794.708313,1530
794.827393,1529
794.946411,1543
795.065552,1571
795.18457,1533
795.303589,1610
795.422668,1583
795.541687,1604
795.660767,1587
795.779846,1559
795.898865,1552
796.017883,1569
796.136963,1540
796.255981,1590
796.375061,1515
796.49408,1555
796.613037,1565
796.732117,1531
796.851135,1574
796.970154,1517
797.089233,1561
797.208191,1557
797.327271,1485
797.446228,1481
797.565186,1536
797.684265,1488
797.803223,1539
797.922241,1524
798.04126,1513
798.160278,1578
798.279297,1525
798.398315,1505
798.517273,1526
798.636292,1516
798.75531,1540
798.874268,1514
798.993286,1573
799.112244,1498
799.231323,1493
799.350281,1495
799.469238,1531
799.588257,1511
799.707153,1508
799.826111,1516
799.945129,1489
800.064087,1548
800.183044,1491
800.302063,1527
800.421021,1534
800.539978,1476
800.658936,1519
800.777893,1562
800.896912,1515
801.015747,1519
801.134705,1519
801.253723,1522
801.37262,1507
801.491638,1528
801.610535,1580
801.729492,1512
801.84845,1482
801.967407,1545
802.086243,1504
802.205261,1505
802.324158,1513
802.443115,1499
802.562073,1547
802.680969,1529
802.799927,1511
802.918762,1510
803.037659,1473
803.156677,1525
803.275574,1498
803.39447,1500
803.513428,1466
803.632263,1516
803.751221,1507
803.870117,1548
803.989014,1519
804.107971,1468
804.226746,1502
804.345642,1501
804.4646,1535
804.583496,1513
804.702393,1493
804.821228,1509
804.940125,1512
805.059021,1496
805.177917,1513
805.296814,1502
805.415649,1546
805.534546,1482
805.653442,1533
805.772278,1537
805.891113,1551
806.01001,1499
806.128906,1525
806.247742,1480
806.366577,1521
806.485413,1494
806.604309,1504
806.723145,1528
806.84198,1561
806.960876,1488
807.079712,1509
807.198486,1492
807.317383,1526
807.436218,1544
807.554993,1458
807.673889,1517
807.792725,1516
807.91156,1470
808.030396,1535
808.14917,1496
808.268005,1506
808.386841,1516
808.505676,1520
808.624451,1520
808.743286,1491
808.862122,1502
808.980896,1508
809.099731,1511
809.218506,1519
809.337341,1485
809.456116,1513
809.57489,1515
809.693726,1476
809.8125,1536
809.931274,1534
810.050049,1502
810.168884,1555
810.287659,1494
810.406372,1516
810.525269,1528
810.643982,1501
810.762756,1492
810.881531,1503
811.000305,1511
811.11908,1483
811.237854,1484
811.356567,1496
811.475403,1522
811.594116,1426
811.71283,1500
811.831604,1489
811.950378,1503
812.069153,1494
812.187927,1504
812.30658,1525
812.425415,1505
812.544128,1502
812.662781,1479
812.781616,1525
812.900269,1496
813.019043,1499
813.137756,1459
813.256531,1501
813.375244,1493
813.493896,1501
813.612671,1483
813.731384,1526
813.850037,1480
813.96875,1546
814.087524,1488
814.206238,1485
814.324951,1515
814.443604,1500
814.562256,1525
814.68103,1502
814.799683,1480
814.918335,1459
815.037109,1504
815.155762,1503
815.274475,1459
815.393188,1484
815.511841,1535
815.630554,1451
815.749146,1441
815.867859,1434
815.986572,1515
816.105164,1446
816.223877,1489
816.342529,1455
816.461182,1487
816.579895,1452
816.698486,1484
816.817139,1478
816.935791,1506
817.054504,1482
817.173096,1498
817.291748,1445
817.4104,1463
817.529053,1458
817.647644,1444
817.766235,1453
817.884949,1466
818.00354,1427
818.122192,1470
818.240845,1437
818.359436,1382
818.478088,1393
818.59668,1410
818.715271,1425
818.833923,1404
818.952515,1413
819.071106,1422
819.189758,1425
819.30835,1413
819.426941,1418
819.545532,1395
819.664124,1425
819.782715,1404
819.901306,1387
820.019897,1395
820.138489,1386
820.25708,1427
820.375671,1382
820.494202,1364
820.612732,1382
820.731384,1343
820.849915,1384
820.968506,1360
821.087097,1365
821.205627,1387
821.324158,1425
821.442749,1404
821.561279,1361
821.679871,1372
821.798401,1392
821.916931,1337
822.035461,1378
822.154053,1372
822.272583,1335
822.391174,1353
822.509583,1359
822.628174,1358
822.746704,1358
822.865234,1356
822.983765,1372
823.102295,1349
823.220825,1373
823.339294,1377
823.457825,1369
823.576355,1352
823.694824,1370
823.813354,1361
823.931885,1395
824.050354,1381
824.168884,1350
824.287354,1388
824.405823,1343
824.524353,1400
824.642822,1375
824.761353,1340
824.879822,1374
824.998291,1356
825.116699,1327
825.235291,1370
825.353699,1332
825.472168,1292
825.590637,1333
825.709106,1314
825.827576,1309
825.946045,1323
826.064453,1400
826.182983,1307
826.301392,1356
826.4198,1342
826.53833,1324
826.656738,1328
826.775208,1326
826.893677,1348
827.012024,1294
827.130493,1328
827.248962,1377
827.36731,1353
827.485779,1317
827.604248,1346
827.722595,1325
827.841064,1329
827.959412,1316
828.077942,1333
828.196289,1313
828.314636,1322
828.433105,1318
828.551514,1328
828.669861,1293
828.78833,1311
828.906677,1296
829.025085,1326
829.143433,1338
829.261841,1349
829.38031,1302
829.498657,1354
829.617004,1301
829.735413,1352
829.85376,1319
829.972107,1304
830.090515,1332
830.208862,1297
830.327209,1314
830.445557,1331
830.563904,1318
830.682312,1342
830.800659,1309
830.919006,1313
831.037354,1333
831.155701,1320
831.274048,1327
831.392395,1316
831.51062,1319
831.629028,1325
831.747314,1342
831.865662,1336
831.984009,1300
832.102356,1330
832.220642,1317
832.338928,1339
832.457275,1324
832.575623,1305
832.693909,1283
832.812134,1320
832.930481,1277
833.048828,1338
833.167114,1302
833.2854,1272
833.403687,1318
833.521973,1347
833.640259,1331
833.758545,1318
833.876831,1298
833.995056,1301
834.113281,1274
834.231628,1345
834.349915,1319
834.468201,1347
834.586426,1347
834.704651,1323
834.822998,1295
834.941162,1332
835.059448,1288
835.177673,1319
835.295959,1297
835.414246,1321
835.53241,1293
835.650635,1334
835.768921,1299
835.887146,1316
836.005371,1331
836.123596,1325
836.241821,1320
836.360046,1312
836.478271,1358
836.596497,1305
836.714722,1329
836.832886,1326
836.95105,1385
837.069336,1321
837.1875,1313
837.305725,1321
837.423889,1324
837.542053,1316
837.660339,1306
837.778503,1333
837.896667,1355
838.014832,1321
838.132996,1319
838.25116,1306
838.369385,1333
838.487488,1359
838.605713,1341
838.723877,1330
838.84198,1329
838.960205,1313
839.078308,1329
839.196472,1277
839.314636,1325
839.4328,1370
839.550964,1289
839.669067,1330
839.787231,1309
839.905396,1277
840.023499,1332
840.141602,1291
840.259766,1294
840.377869,1277
840.495972,1328
840.614136,1330
840.732239,1283
840.850342,1316
840.968445,1307
841.086548,1312
841.204651,1331
841.322754,1316
841.440918,1332
841.55896,1290
841.677002,1316
841.795166,1296
841.913208,1252
842.031311,1306
842.149353,1337
842.267456,1294
842.385498,1294
842.503601,1326
842.621643,1285
842.739746,1319
842.857788,1297
842.97583,1307
843.093933,1273
843.211975,1246
843.330017,1333
843.44812,1302
843.566101,1291
843.684204,1295
843.802246,1294
843.920227,1349
844.038269,1275
844.156311,1319
844.274292,1289
844.392395,1321
844.510376,1280
844.628357,1312
844.74646,1308
844.864441,1329
844.982422,1323
845.100403,1289
845.218384,1338
845.336426,1279
845.454468,1289
845.572449,1305
845.69043,1300
845.808411,1268
845.926453,1300
846.044373,1308
846.162354,1293
846.280396,1303
846.398315,1239
846.516296,1329
846.634216,1301
846.752197,1305
846.870178,1315
846.988098,1310
847.106079,1279
847.22406,1267
847.34198,1281
847.4599,1284
847.577881,1302
847.695801,1305
847.813782,1295
847.931641,1317
848.049561,1310
848.167603,1287
848.285461,1318
848.403381,1283
848.521362,1319
848.639221,1295
848.75708,1287
848.875,1273
848.99292,1309
849.110901,1275
849.22876,1320
849.34668,1302
849.464539,1298
849.582458,1289
849.700317,1266
849.818176,1268
849.936096,1321
850.053955,1262
850.171875,1250
850.289673,1276
850.407593,1301
850.525452,1299
850.643311,1335
850.761169,1299
850.878967,1316
850.996887,1285
851.114746,1323
851.232544,1272
851.350403,1329
851.468262,1301
851.58606,1320
851.703979,1315
851.821777,1315
851.939636,1321
852.057434,1327
852.175232,1282
852.293091,1297
852.410889,1300
852.528687,1305
852.646545,1317
852.764343,1337
852.88208,1300
852.999939,1300
853.117676,1323
853.235535,1311
853.353271,1338
853.471069,1330
853.588928,1314
853.706604,1313
853.824402,1339
853.9422,1262
854.059998,1341
854.177734,1305
854.295532,1314
854.413269,1280
854.531006,1317
854.648804,1302
854.766541,1345
854.884277,1315
855.002014,1311
855.119751,1292
855.237549,1319
855.355225,1323
855.473022,1367
855.590698,1315
855.708435,1325
855.826172,1338
855.943848,1347
856.061646,1284
856.179321,1314
856.296997,1309
856.414795,1317
856.53241,1336
856.650085,1351
856.767822,1325
856.885559,1330
857.003174,1337
857.120911,1267
857.238586,1307
857.356201,1362
857.473938,1293
857.591614,1310
857.709351,1321
857.826965,1298
857.944641,1293
858.062317,1354
858.179993,1328
858.297668,1319
858.415283,1262
858.532959,1336
858.650574,1333
858.768188,1346
858.885803,1318
859.003479,1315
859.121094,1312
859.23877,1340
859.356384,1336
859.473999,1357
859.591675,1316
859.709229,1321
859.826843,1332
859.944458,1287
860.062012,1306
860.179626,1285
860.297302,1340
860.414856,1306
860.532471,1323
860.650024,1318
860.767639,1303
860.885193,1318
861.002808,1321
861.120361,1348
861.237976,1311
861.35553,1363
861.473022,1296
861.590698,1298
861.708191,1318
861.825745,1330
861.943298,1293
862.060852,1317
862.178406,1322
862.295959,1322
862.413513,1319
862.531006,1290
862.64856,1347
862.766113,1333
862.883667,1316
863.00116,1314
863.118713,1307
863.236206,1306
863.353699,1330
863.471252,1338
863.588745,1318
863.706177,1316
863.82373,1379
863.941162,1305
864.058716,1328
864.176208,1326
864.29364,1359
864.411194,1317
864.528687,1309
864.646118,1313
864.763611,1339
864.881042,1317
864.998535,1289
865.116028,1318
865.233459,1360
865.350891,1305
865.468384,1306
865.585754,1352
865.703308,1309
865.820679,1312
865.938171,1298
866.055542,1320
866.173035,1335
866.290466,1329
866.407837,1317
866.52533,1323
866.6427,1336
866.760071,1312
866.877563,1309
866.994934,1336
867.112305,1326
867.229736,1374
867.347107,1318
867.464539,1330
867.58197,1330
867.699341,1321
867.81665,1329
867.934082,1316
868.051453,1337
868.168823,1307
868.286194,1332
868.403564,1328
868.520935,1360
868.638306,1318
868.755676,1335
868.872986,1347
868.990295,1340
869.107727,1342
869.225037,1291
869.342346,1313
869.459717,1320
869.577026,1365
869.694336,1369
869.811707,1310
869.929016,1321
870.046326,1298
870.163635,1375
870.280945,1367
870.398254,1321
870.515564,1355
870.632812,1336
870.750183,1351
870.867432,1304
870.984741,1353
871.102051,1394
871.219299,1308
871.336609,1363
871.453918,1350
871.571106,1322
871.688416,1362
871.805664,1343
871.922852,1318
872.040222,1349
872.157471,1323
872.274719,1357
872.391968,1341
872.509155,1370
872.626465,1354
872.743652,1309
872.860962,1360
872.978149,1338
873.095337,1355
873.212646,1357
873.329834,1350
873.44696,1352
873.564209,1334
873.681396,1345
873.798645,1371
873.915894,1337
874.03302,1341
874.150208,1349
874.267456,1322
874.384583,1357
874.501831,1322
874.618958,1316
874.736145,1393
874.853333,1300
874.970459,1354
875.087646,1317
875.204834,1344
875.32196,1354
875.439148,1370
875.556274,1326
875.673401,1341
875.790527,1360
875.907715,1347
876.024841,1345
876.141968,1354
876.259094,1344
876.376282,1348
876.493347,1346
876.610474,1313
876.7276,1368
876.844727,1355
876.961853,1361
877.078918,1405
877.195984,1375
877.313171,1376
877.430237,1324
877.547302,1369
877.664368,1350
877.781433,1323
877.898499,1358
878.015625,1401
878.13269,1353
878.249695,1376
878.366821,1361
878.483887,1376
878.600952,1348
878.717957,1326
878.834961,1353
878.952087,1376
879.069092,1352
879.186157,1350
879.303162,1363
879.420227,1387
879.537231,1358
879.654236,1385
879.77124,1328
879.888306,1354
880.005249,1348
880.122314,1344
880.239319,1347
880.356323,1364
880.473328,1360
880.590271,1339
880.707275,1361
880.824341,1393
880.941284,1334
881.058228,1379
881.175232,1328
881.292236,1370
881.40918,1339
881.526123,1402
881.643066,1331
881.760071,1411
881.877014,1347
881.993958,1332
882.11084,1392
882.227783,1351
882.344727,1397
882.46167,1359
882.578613,1324
882.695618,1359
882.812439,1385
882.929382,1395
883.046326,1359
883.163208,1365
883.280151,1319
883.397034,1353
883.513916,1321
883.630798,1372
883.747742,1349
883.864563,1380
883.981506,1333
884.098389,1400
884.21521,1398
884.332153,1351
884.448975,1367
884.565796,1364
884.682678,1404
884.7995,1381
884.916443,1398
885.033264,1366
885.150085,1360
885.266968,1395
885.383789,1386
885.500671,1413
885.617493,1406
885.734314,1432
885.851196,1359
885.967896,1373
886.084717,1384
886.201599,1403
886.318359,1380
886.435181,1413
886.552002,1428
886.668762,1392
886.785645,1404
886.902344,1386
887.019165,1412
887.135925,1405
887.252747,1332
887.369446,1401
887.486267,1404
887.603027,1387
887.719788,1303
887.836548,1372
887.953247,1361
888.070068,1359
888.186829,1407
888.303528,1395
888.420288,1408
888.536987,1374
888.653687,1377
888.770447,1409
888.887146,1379
889.003967,1389
889.120667,1386
889.237305,1383
889.354065,1351
889.470703,1394
889.587463,1388
889.704163,1424
889.820862,1379
889.937561,1406
890.054199,1362
890.170837,1406
890.287598,1392
890.404236,1394
890.520874,1388
890.637634,1403
890.754211,1412
890.87085,1358
890.987549,1375
891.104187,1406
891.220886,1399
891.337463,1428
891.454102,1404
891.57074,1467
891.687378,1384
891.804077,1417
891.920654,1363
892.037231,1403
892.15387,1452
892.270447,1423
892.387085,1428
892.503723,1402
892.6203,1428
892.736877,1394
892.853516,1401
892.970032,1426
893.08667,1391
893.203186,1385
893.319763,1400
893.43634,1403
893.552917,1406
893.669556,1410
893.786011,1439
893.902588,1457
894.019165,1440
894.135681,1411
894.252197,1414
894.368835,1419
894.485291,1372
894.601868,1400
894.718384,1421
894.8349,1408
894.951355,1430
895.067932,1438
895.184448,1412
895.300964,1407
895.417419,1413
895.533936,1382
895.650452,1402
895.766907,1389
895.883423,1373
895.999878,1392
896.116333,1439
896.232849,1402
896.349304,1364
896.465759,1420
896.582214,1374
896.698669,1449
896.815125,1422
896.931641,1422
897.048035,1428
897.164551,1417
897.280884,1407
897.397339,1405
897.513794,1452
897.630249,1436
897.746582,1407
897.863098,1434
897.979431,1403
898.095886,1401
898.212341,1415
898.328674,1388
898.445129,1430
898.561462,1395
898.677795,1448
898.794312,1392
898.910645,1410
899.026978,1420
899.143433,1442
899.259766,1423
899.37616,1390
899.492493,1458
899.608765,1385
899.725159,1464
899.841553,1360
899.957947,1464
900.07428,1410
900.190552,1448
900.306946,1412
900.423157,1425
900.53949,1361
900.655884,1423
900.772156,1468
900.888489,1474
901.004822,1432
901.121033,1414
901.237366,1432
901.353699,1437
901.46991,1429
901.586304,1432
901.702515,1458
901.818787,1427
901.93512,1414
902.051331,1441
902.167603,1433
902.283875,1459
902.400085,1451
902.516418,1471
902.632629,1409
902.74884,1465
902.865112,1469
902.981384,1439
903.097595,1453
903.213867,1441
903.330017,1462
903.446289,1450
903.5625,1450
903.67865,1430
903.794922,1439
903.911072,1456
904.027344,1444
904.143494,1422
904.259705,1436
904.375916,1461
904.492065,1458
904.608215,1406
904.724426,1427
904.840576,1448
904.956726,1431
905.072876,1455
905.189087,1449
905.305176,1460
905.421387,1425
905.537537,1458
905.653687,1434
905.769775,1453
905.885925,1429
906.002014,1448
906.118164,1470
906.234314,1414
906.350403,1465
906.466492,1457
906.582642,1404
906.69873,1465
906.814758,1478
906.930908,1467
907.046936,1419
907.163086,1440
907.279175,1456
907.395264,1441
907.511353,1473
907.62738,1423
907.743408,1476
907.859497,1465
907.975525,1459
908.091553,1475
908.207703,1450
908.32373,1456
908.439758,1446
908.555786,1442
908.671814,1461
908.787842,1462
908.90387,1441
909.019775,1436
909.135864,1471
909.251892,1462
909.367859,1461
909.483826,1444
909.599854,1459
909.715881,1471
909.831848,1414
909.947815,1458
910.063782,1476
910.179749,1432
910.295776,1453
910.411743,1472
910.527649,1511
910.643616,1461
910.759583,1475
910.875488,1469
910.991455,1441
911.107361,1456
911.223267,1442
911.339294,1453
911.4552,1478
911.571106,1469
911.687073,1479
911.802979,1466
911.918823,1467
912.034729,1491
912.150635,1464
912.266602,1464
912.382446,1464
912.498352,1470
912.614197,1455
912.730103,1492
912.846008,1476
