792.44574,1713
792.56488,1720
792.68396,1712
792.80304,1695
792.92218,1654
793.041199,1644
793.160339,1691
793.279419,1656
793.398499,1609
793.517578,1617
793.636658,1610
793.755737,1617
793.874817,1638
793.993896,1574
794.112976,1603
794.232056,1576
794.351074,1602
794.470215,1617
794.589233,1587
794.708313,1598
794.827393,1585
794.946411,1570
795.065552,1571
795.18457,1574
795.303589,1582
795.422668,1540
795.541687,1573
795.660767,1543
795.779846,1596
795.898865,1557
796.017883,1518
796.136963,1541
796.255981,1551
796.375061,1584
796.49408,1543
796.613037,1552
796.732117,1531
796.851135,1522
796.970154,1536
797.089233,1498
797.208191,1505
797.327271,1566
797.446228,1537
797.565186,1561
797.684265,1509
797.803223,1529
797.922241,1535
798.04126,1544
798.160278,1510
798.279297,1563
798.398315,1516
798.517273,1544
798.636292,1512
798.75531,1540
798.874268,1504
798.993286,1508
799.112244,1481
799.231323,1530
799.350281,1496
799.469238,1530
799.588257,1501
799.707153,1490
799.826111,1474
799.945129,1479
800.064087,1544
800.183044,1487
800.302063,1507
800.421021,1532
800.539978,1503
800.658936,1534
800.777893,1491
800.896912,1514
801.015747,1483
801.134705,1488
801.253723,1476
801.37262,1496
801.491638,1495
801.610535,1510
801.729492,1549
801.84845,1512
801.967407,1525
802.086243,1477
802.205261,1483
802.324158,1464
802.443115,1521
802.562073,1477
802.680969,1496
802.799927,1454
802.918762,1512
803.037659,1495
803.156677,1505
803.275574,1481
803.39447,1518
803.513428,1494
803.632263,1471
803.751221,1488
803.870117,1476
803.989014,1481
804.107971,1471
804.226746,1488
804.345642,1533
804.4646,1499
804.583496,1519
804.702393,1512
804.821228,1516
804.940125,1481
805.059021,1457
805.177917,1491
805.296814,1495
805.415649,1520
805.534546,1518
805.653442,1461
805.772278,1543
805.891113,1526
806.01001,1495
806.128906,1494
806.247742,1485
806.366577,1474
806.485413,1530
806.604309,1483
806.723145,1486
806.84198,1494
806.960876,1495
807.079712,1497
807.198486,1466
807.317383,1520
807.436218,1504
807.554993,1515
807.673889,1489
807.792725,1497
807.91156,1501
808.030396,1477
808.14917,1505
808.268005,1493
808.386841,1511
808.505676,1485
808.624451,1478
808.743286,1562
808.862122,1539
808.980896,1533
809.099731,1518
809.218506,1500
809.337341,1464
809.456116,1497
809.57489,1510
809.693726,1492
809.8125,1508
809.931274,1519
810.050049,1513
810.168884,1478
810.287659,1471
810.406372,1492
810.525269,1540
810.643982,1500
810.762756,1480
810.881531,1501
811.000305,1515
811.11908,1506
811.237854,1496
811.356567,1499
811.475403,1453
811.594116,1501
811.71283,1537
811.831604,1511
811.950378,1505
812.069153,1488
812.187927,1515
812.30658,1505
812.425415,1491
812.544128,1532
812.662781,1461
812.781616,1511
812.900269,1458
813.019043,1470
813.137756,1505
813.256531,1463
813.375244,1524
813.493896,1492
813.612671,1460
813.731384,1509
813.850037,1506
813.96875,1537
814.087524,1500
814.206238,1471
814.324951,1484
814.443604,1456
814.562256,1474
814.68103,1459
814.799683,1478
814.918335,1481
815.037109,1449
815.155762,1548
815.274475,1477
815.393188,1529
815.511841,1475
815.630554,1481
815.749146,1473
815.867859,1469
815.986572,1478
816.105164,1478
816.223877,1429
816.342529,1481
816.461182,1457
816.579895,1483
816.698486,1502
816.817139,1460
816.935791,1482
817.054504,1486
817.173096,1430
817.291748,1462
817.4104,1489
817.529053,1461
817.647644,1417
817.766235,1455
817.884949,1462
818.00354,1414
818.122192,1375
818.240845,1399
818.359436,1406
818.478088,1392
818.59668,1401
818.715271,1363
818.833923,1403
818.952515,1391
819.071106,1357
819.189758,1394
819.30835,1350
819.426941,1388
819.545532,1368
819.664124,1397
819.782715,1371
819.901306,1362
820.019897,1395
820.138489,1358
820.25708,1415
820.375671,1348
820.494202,1359
820.612732,1335
820.731384,1363
820.849915,1360
820.968506,1377
821.087097,1386
821.205627,1375
821.324158,1356
821.442749,1366
821.561279,1361
821.679871,1312
821.798401,1364
821.916931,1389
822.035461,1352
822.154053,1353
822.272583,1364
822.391174,1335
822.509583,1343
822.628174,1330
822.746704,1338
822.865234,1340
822.983765,1303
823.102295,1351
823.220825,1328
823.339294,1331
823.457825,1362
823.576355,1331
823.694824,1345
823.813354,1346
823.931885,1343
824.050354,1348
824.168884,1344
824.287354,1338
824.405823,1326
824.524353,1331
824.642822,1328
824.761353,1349
824.879822,1305
824.998291,1350
825.116699,1350
825.235291,1328
825.353699,1333
825.472168,1354
825.590637,1347
825.709106,1349
825.827576,1329
825.946045,1330
826.064453,1326
826.182983,1308
826.301392,1339
826.4198,1345
826.53833,1309
826.656738,1317
826.775208,1353
826.893677,1362
827.012024,1299
827.130493,1303
827.248962,1318
827.36731,1307
827.485779,1372
827.604248,1327
827.722595,1287
827.841064,1327
827.959412,1309
828.077942,1317
828.196289,1283
828.314636,1272
828.433105,1274
828.551514,1247
828.669861,1281
828.78833,1303
828.906677,1296
829.025085,1311
829.143433,1284
829.261841,1316
829.38031,1311
829.498657,1346
829.617004,1319
829.735413,1313
829.85376,1249
829.972107,1287
830.090515,1257
830.208862,1325
830.327209,1295
830.445557,1256
830.563904,1308
830.682312,1303
830.800659,1255
830.919006,1292
831.037354,1276
831.155701,1285
831.274048,1263
831.392395,1311
831.51062,1270
831.629028,1294
831.747314,1289
831.865662,1311
831.984009,1317
832.102356,1308
832.220642,1298
832.338928,1300
832.457275,1287
832.575623,1317
832.693909,1283
832.812134,1273
832.930481,1280
833.048828,1325
833.167114,1332
833.2854,1321
833.403687,1293
833.521973,1285
833.640259,1254
833.758545,1281
833.876831,1284
833.995056,1316
834.113281,1284
834.231628,1269
834.349915,1310
834.468201,1302
834.586426,1269
834.704651,1330
834.822998,1280
834.941162,1267
835.059448,1288
835.177673,1333
835.295959,1268
835.414246,1280
835.53241,1302
835.650635,1319
835.768921,1258
835.887146,1293
836.005371,1263
836.123596,1313
836.241821,1292
836.360046,1269
836.478271,1276
836.596497,1279
836.714722,1276
836.832886,1294
836.95105,1311
837.069336,1278
837.1875,1278
837.305725,1334
837.423889,1313
837.542053,1307
837.660339,1299
837.778503,1305
837.896667,1304
838.014832,1297
838.132996,1314
838.25116,1321
838.369385,1280
838.487488,1295
838.605713,1329
838.723877,1323
838.84198,1291
838.960205,1312
839.078308,1265
839.196472,1244
839.314636,1268
839.4328,1283
839.550964,1295
839.669067,1295
839.787231,1309
839.905396,1327
840.023499,1274
840.141602,1324
840.259766,1323
840.377869,1321
840.495972,1312
840.614136,1280
840.732239,1312
840.850342,1312
840.968445,1311
841.086548,1275
841.204651,1352
841.322754,1282
841.440918,1273
841.55896,1296
841.677002,1287
841.795166,1278
841.913208,1302
842.031311,1279
842.149353,1262
842.267456,1296
842.385498,1304
842.503601,1275
842.621643,1293
842.739746,1317
842.857788,1288
842.97583,1296
843.093933,1275
843.211975,1277
843.330017,1252
843.44812,1291
843.566101,1304
843.684204,1317
843.802246,1263
843.920227,1292
844.038269,1329
844.156311,1294
844.274292,1293
844.392395,1267
844.510376,1248
844.628357,1288
844.74646,1289
844.864441,1296
844.982422,1265
845.100403,1285
845.218384,1271
845.336426,1287
845.454468,1316
845.572449,1266
845.69043,1291
845.808411,1277
845.926453,1257
846.044373,1269
846.162354,1279
846.280396,1279
846.398315,1264
846.516296,1277
846.634216,1306
846.752197,1272
846.870178,1294
846.988098,1265
847.106079,1268
847.22406,1280
847.34198,1285
847.4599,1312
847.577881,1287
847.695801,1263
847.813782,1299
847.931641,1260
848.049561,1275
848.167603,1264
848.285461,1289
848.403381,1291
848.521362,1270
848.639221,1241
848.75708,1300
848.875,1296
848.99292,1260
849.110901,1270
849.22876,1251
849.34668,1300
849.464539,1319
849.582458,1267
849.700317,1257
849.818176,1281
849.936096,1269
850.053955,1278
850.171875,1287
850.289673,1272
850.407593,1224
850.525452,1323
850.643311,1283
850.761169,1302
850.878967,1303
850.996887,1313
851.114746,1274
851.232544,1287
851.350403,1276
851.468262,1275
851.58606,1257
851.703979,1301
851.821777,1286
851.939636,1313
852.057434,1277
852.175232,1285
852.293091,1276
852.410889,1260
852.528687,1263
852.646545,1278
852.764343,1291
852.88208,1279
852.999939,1313
853.117676,1284
853.235535,1297
853.353271,1285
853.471069,1274
853.588928,1303
853.706604,1264
853.824402,1322
853.9422,1271
854.059998,1306
854.177734,1275
854.295532,1304
854.413269,1266
854.531006,1286
854.648804,1292
854.766541,1290
854.884277,1244
855.002014,1284
855.119751,1263
855.237549,1282
855.355225,1300
855.473022,1302
855.590698,1300
855.708435,1257
855.826172,1268
855.943848,1284
856.061646,1332
856.179321,1317
856.296997,1259
856.414795,1308
856.53241,1293
856.650085,1293
856.767822,1285
856.885559,1337
857.003174,1311
857.120911,1290
857.238586,1263
857.356201,1298
857.473938,1312
857.591614,1275
857.709351,1315
857.826965,1275
857.944641,1324
858.062317,1272
858.179993,1361
858.297668,1290
858.415283,1263
858.532959,1311
858.650574,1288
858.768188,1293
858.885803,1289
859.003479,1280
859.121094,1287
859.23877,1292
859.356384,1292
859.473999,1309
859.591675,1309
859.709229,1338
859.826843,1307
859.944458,1304
860.062012,1278
860.179626,1282
860.297302,1267
860.414856,1315
860.532471,1300
860.650024,1314
860.767639,1290
860.885193,1297
861.002808,1275
861.120361,1276
861.237976,1280
861.35553,1320
861.473022,1287
861.590698,1297
861.708191,1300
861.825745,1266
861.943298,1303
862.060852,1287
862.178406,1287
862.295959,1301
862.413513,1285
862.531006,1276
862.64856,1297
862.766113,1332
862.883667,1302
863.00116,1310
863.118713,1298
863.236206,1358
863.353699,1311
863.471252,1271
863.588745,1307
863.706177,1322
863.82373,1280
863.941162,1325
864.058716,1298
864.176208,1302
864.29364,1276
864.411194,1351
864.528687,1297
864.646118,1301
864.763611,1252
864.881042,1293
864.998535,1303
865.116028,1281
865.233459,1299
865.350891,1309
865.468384,1294
865.585754,1290
865.703308,1270
865.820679,1318
865.938171,1319
866.055542,1339
866.173035,1294
866.290466,1258
866.407837,1319
866.52533,1306
866.6427,1294
866.760071,1276
866.877563,1301
866.994934,1313
867.112305,1317
867.229736,1300
867.347107,1307
867.464539,1274
867.58197,1265
867.699341,1337
867.81665,1342
867.934082,1291
868.051453,1306
868.168823,1320
868.286194,1297
868.403564,1327
868.520935,1301
868.638306,1337
868.755676,1319
868.872986,1328
868.990295,1340
869.107727,1308
869.225037,1294
869.342346,1358
869.459717,1318
869.577026,1330
869.694336,1319
869.811707,1285
869.929016,1291
870.046326,1327
870.163635,1280
870.280945,1307
870.398254,1285
870.515564,1296
870.632812,1320
870.750183,1314
870.867432,1333
870.984741,1321
871.102051,1290
871.219299,1326
871.336609,1334
871.453918,1290
871.571106,1298
871.688416,1337
871.805664,1356
871.922852,1335
872.040222,1329
872.157471,1350
872.274719,1342
872.391968,1323
872.509155,1329
872.626465,1319
872.743652,1353
872.860962,1338
872.978149,1362
873.095337,1315
873.212646,1299
873.329834,1273
873.44696,1342
873.564209,1315
873.681396,1345
873.798645,1299
873.915894,1317
874.03302,1316
874.150208,1337
874.267456,1294
874.384583,1321
874.501831,1301
874.618958,1308
874.736145,1317
874.853333,1323
874.970459,1316
875.087646,1323
875.204834,1332
875.32196,1325
875.439148,1323
875.556274,1330
875.673401,1303
875.790527,1315
875.907715,1319
876.024841,1299
876.141968,1351
876.259094,1325
876.376282,1325
876.493347,1319
876.610474,1297
876.7276,1351
876.844727,1304
876.961853,1300
877.078918,1312
877.195984,1328
877.313171,1308
877.430237,1321
877.547302,1322
877.664368,1340
877.781433,1361
877.898499,1348
878.015625,1330
878.13269,1321
878.249695,1361
878.366821,1362
878.483887,1329
878.600952,1323
878.717957,1307
878.834961,1284
878.952087,1306
879.069092,1330
879.186157,1311
879.303162,1332
879.420227,1354
879.537231,1304
879.654236,1320
879.77124,1307
879.888306,1338
880.005249,1359
880.122314,1314
880.239319,1335
880.356323,1351
880.473328,1333
880.590271,1327
880.707275,1331
880.824341,1334
880.941284,1301
881.058228,1336
881.175232,1325
881.292236,1276
881.40918,1351
881.526123,1327
881.643066,1284
881.760071,1320
881.877014,1311
881.993958,1313
882.11084,1343
882.227783,1317
882.344727,1329
882.46167,1339
882.578613,1336
882.695618,1324
882.812439,1347
882.929382,1335
883.046326,1306
883.163208,1369
883.280151,1321
883.397034,1336
883.513916,1364
883.630798,1345
883.747742,1310
883.864563,1316
883.981506,1327
884.098389,1307
884.21521,1326
884.332153,1361
884.448975,1309
884.565796,1344
884.682678,1335
884.7995,1322
884.916443,1346
885.033264,1397
885.150085,1346
885.266968,1382
885.383789,1369
885.500671,1344
885.617493,1374
885.734314,1385
885.851196,1388
885.967896,1352
886.084717,1333
886.201599,1355
886.318359,1352
886.435181,1342
886.552002,1351
886.668762,1336
886.785645,1365
886.902344,1380
887.019165,1353
887.135925,1397
887.252747,1400
887.369446,1395
887.486267,1327
887.603027,1342
887.719788,1331
887.836548,1364
887.953247,1357
888.070068,1353
888.186829,1375
888.303528,1306
888.420288,1372
888.536987,1330
888.653687,1369
888.770447,1358
888.887146,1320
889.003967,1396
889.120667,1348
889.237305,1360
889.354065,1360
889.470703,1371
889.587463,1358
889.704163,1358
889.820862,1334
889.937561,1384
890.054199,1323
890.170837,1364
890.287598,1354
890.404236,1327
890.520874,1346
890.637634,1347
890.754211,1376
890.87085,1377
890.987549,1370
891.104187,1375
891.220886,1352
891.337463,1368
891.454102,1388
891.57074,1387
891.687378,1383
891.804077,1354
891.920654,1368
892.037231,1350
892.15387,1403
892.270447,1386
892.387085,1386
892.503723,1369
892.6203,1364
892.736877,1383
892.853516,1372
892.970032,1360
893.08667,1351
893.203186,1376
893.319763,1385
893.43634,1375
893.552917,1407
893.669556,1374
893.786011,1397
893.902588,1362
894.019165,1368
894.135681,1414
894.252197,1378
894.368835,1406
894.485291,1355
894.601868,1392
894.718384,1406
894.8349,1353
894.951355,1378
895.067932,1383
895.184448,1379
895.300964,1373
895.417419,1418
895.533936,1394
895.650452,1436
895.766907,1409
895.883423,1380
895.999878,1385
896.116333,1365
896.232849,1375
896.349304,1393
896.465759,1381
896.582214,1368
896.698669,1348
896.815125,1381
896.931641,1386
897.048035,1375
897.164551,1393
897.280884,1381
897.397339,1364
897.513794,1355
897.630249,1413
897.746582,1391
897.863098,1324
897.979431,1359
898.095886,1370
898.212341,1427
898.328674,1390
898.445129,1382
898.561462,1377
898.677795,1400
898.794312,1376
898.910645,1359
899.026978,1394
899.143433,1410
899.259766,1385
899.37616,1398
899.492493,1415
899.608765,1408
899.725159,1391
899.841553,1366
899.957947,1410
900.07428,1369
900.190552,1388
900.306946,1398
900.423157,1418
900.53949,1432
900.655884,1405
900.772156,1398
900.888489,1431
901.004822,1342
901.121033,1369
901.237366,1378
901.353699,1390
901.46991,1405
901.586304,1409
901.702515,1384
901.818787,1446
901.93512,1389
902.051331,1426
902.167603,1384
902.283875,1408
902.400085,1403
902.516418,1399
902.632629,1411
902.74884,1384
902.865112,1453
902.981384,1397
903.097595,1445
903.213867,1427
903.330017,1396
903.446289,1410
903.5625,1435
903.67865,1432
903.794922,1416
903.911072,1402
904.027344,1410
904.143494,1446
904.259705,1435
904.375916,1411
904.492065,1444
904.608215,1401
904.724426,1426
904.840576,1413
904.956726,1379
905.072876,1426
905.189087,1402
905.305176,1420
905.421387,1432
905.537537,1429
905.653687,1400
905.769775,1410
905.885925,1445
906.002014,1452
906.118164,1402
906.234314,1426
906.350403,1383
906.466492,1442
906.582642,1385
906.69873,1397
906.814758,1427
906.930908,1431
907.046936,1397
907.163086,1358
907.279175,1397
907.395264,1445
907.511353,1449
907.62738,1432
907.743408,1418
907.859497,1432
907.975525,1409
908.091553,1411
908.207703,1395
908.32373,1444
908.439758,1408
908.555786,1404
908.671814,1440
908.787842,1404
908.90387,1413
909.019775,1393
909.135864,1454
909.251892,1412
909.367859,1429
909.483826,1464
909.599854,1420
909.715881,1421
909.831848,1417
909.947815,1433
910.063782,1404
910.179749,1448
910.295776,1404
910.411743,1417
910.527649,1406
910.643616,1471
910.759583,1414
910.875488,1392
910.991455,1397
911.107361,1439
911.223267,1434
911.339294,1447
911.4552,1424
911.571106,1355
911.687073,1444
911.802979,1451
911.918823,1414
912.034729,1410
912.150635,1405
912.266602,1399
912.382446,1374
912.498352,1415
912.614197,1409
912.730103,1414
912.846008,1401
792.44574,1761
792.56488,1766
792.68396,1730
792.80304,1707
792.92218,1688
793.041199,1676
793.160339,1666
793.279419,1680
793.398499,1664
793.517578,1630
793.636658,1676
793.755737,1702
793.874817,1706
793.993896,1687
794.112976,1668
794.232056,1598
794.351074,1655
794.470215,1641
794.589233,1590
794.708313,1622
794.827393,1577
794.946411,1578
795.065552,1601
795.18457,1640
795.303589,1620
795.422668,1570
795.541687,1589
795.660767,1589
795.779846,1557
795.898865,1561
796.017883,1608
796.136963,1577
796.255981,1596
796.375061,1556
796.49408,1572
796.613037,1592
796.732117,1538
796.851135,1588
796.970154,1551
797.089233,1543
797.208191,1539
797.327271,1586
797.446228,1543
797.565186,1533
797.684265,1602
797.803223,1589
797.922241,1512
798.04126,1568
798.160278,1565
798.279297,1556
798.398315,1556
798.517273,1606
798.636292,1537
798.75531,1536
798.874268,1540
798.993286,1543
799.112244,1522
799.231323,1544
799.350281,1547
799.469238,1547
799.588257,1534
799.707153,1502
799.826111,1517
799.945129,1515
800.064087,1560
800.183044,1563
800.302063,1554
800.421021,1579
800.539978,1557
800.658936,1517
800.777893,1565
800.896912,1529
801.015747,1479
801.134705,1516
801.253723,1465
801.37262,1529
801.491638,1508
801.610535,1528
801.729492,1522
801.84845,1531
801.967407,1513
802.086243,1532
802.205261,1484
802.324158,1521
802.443115,1539
802.562073,1534
802.680969,1500
802.799927,1504
802.918762,1528
803.037659,1514
803.156677,1564
803.275574,1495
803.39447,1506
803.513428,1526
803.632263,1548
803.751221,1504
803.870117,1566
803.989014,1504
804.107971,1503
804.226746,1548
804.345642,1532
804.4646,1571
804.583496,1514
804.702393,1519
804.821228,1527
804.940125,1528
805.059021,1570
805.177917,1538
805.296814,1510
805.415649,1511
805.534546,1563
805.653442,1516
805.772278,1509
805.891113,1537
806.01001,1529
806.128906,1518
806.247742,1478
806.366577,1490
806.485413,1548
806.604309,1518
806.723145,1537
806.84198,1527
806.960876,1516
807.079712,1551
807.198486,1476
807.317383,1516
807.436218,1476
807.554993,1538
807.673889,1518
807.792725,1527
807.91156,1511
808.030396,1523
808.14917,1490
808.268005,1519
808.386841,1533
808.505676,1522
808.624451,1535
808.743286,1582
808.862122,1517
808.980896,1573
809.099731,1540
809.218506,1495
809.337341,1539
809.456116,1521
809.57489,1538
809.693726,1527
809.8125,1484
809.931274,1517
810.050049,1472
810.168884,1548
810.287659,1507
810.406372,1483
810.525269,1538
810.643982,1542
810.762756,1521
810.881531,1523
811.000305,1543
811.11908,1513
811.237854,1465
811.356567,1505
811.475403,1497
811.594116,1520
811.71283,1501
811.831604,1505
811.950378,1553
812.069153,1499
812.187927,1554
812.30658,1532
812.425415,1522
812.544128,1543
812.662781,1503
812.781616,1497
812.900269,1473
813.019043,1493
813.137756,1507
813.256531,1530
813.375244,1510
813.493896,1501
813.612671,1597
813.731384,1487
813.850037,1461
813.96875,1514
814.087524,1495
814.206238,1457
814.324951,1493
814.443604,1453
814.562256,1522
814.68103,1522
814.799683,1509
814.918335,1535
815.037109,1506
815.155762,1507
815.274475,1530
815.393188,1493
815.511841,1511
815.630554,1484
815.749146,1486
815.867859,1455
815.986572,1500
816.105164,1470
816.223877,1508
816.342529,1439
816.461182,1512
816.579895,1476
816.698486,1536
816.817139,1479
816.935791,1521
817.054504,1480
817.173096,1480
817.291748,1486
817.4104,1509
817.529053,1466
817.647644,1445
817.766235,1501
817.884949,1475
818.00354,1499
818.122192,1457
818.240845,1446
818.359436,1423
818.478088,1448
818.59668,1426
818.715271,1442
818.833923,1433
818.952515,1451
819.071106,1393
819.189758,1432
819.30835,1371
819.426941,1428
819.545532,1428
819.664124,1383
819.782715,1407
819.901306,1377
820.019897,1378
820.138489,1404
820.25708,1393
820.375671,1411
820.494202,1405
820.612732,1359
820.731384,1416
820.849915,1384
820.968506,1365
821.087097,1356
821.205627,1398
821.324158,1373
821.442749,1376
821.561279,1381
821.679871,1381
821.798401,1368
821.916931,1381
822.035461,1419
822.154053,1360
822.272583,1366
822.391174,1378
822.509583,1362
822.628174,1353
822.746704,1363
822.865234,1391
822.983765,1378
823.102295,1342
823.220825,1344
823.339294,1340
823.457825,1369
823.576355,1339
823.694824,1367
823.813354,1385
823.931885,1324
824.050354,1355
824.168884,1361
824.287354,1355
824.405823,1386
824.524353,1382
824.642822,1346
824.761353,1346
824.879822,1380
824.998291,1360
825.116699,1354
825.235291,1363
825.353699,1332
825.472168,1345
825.590637,1382
825.709106,1362
825.827576,1366
825.946045,1340
826.064453,1342
826.182983,1352
826.301392,1310
826.4198,1350
826.53833,1315
826.656738,1370
826.775208,1310
826.893677,1355
827.012024,1324
827.130493,1280
827.248962,1342
827.36731,1360
827.485779,1357
827.604248,1346
827.722595,1341
827.841064,1339
827.959412,1295
828.077942,1301
828.196289,1336
828.314636,1322
828.433105,1325
828.551514,1312
828.669861,1299
828.78833,1315
828.906677,1301
829.025085,1343
829.143433,1348
829.261841,1294
829.38031,1322
829.498657,1336
829.617004,1342
829.735413,1352
829.85376,1290
829.972107,1311
830.090515,1324
830.208862,1307
830.327209,1301
830.445557,1292
830.563904,1311
830.682312,1331
830.800659,1282
830.919006,1318
831.037354,1330
831.155701,1327
831.274048,1336
831.392395,1328
831.51062,1342
831.629028,1306
831.747314,1351
831.865662,1314
831.984009,1265
832.102356,1329
832.220642,1298
832.338928,1328
832.457275,1323
832.575623,1331
832.693909,1322
832.812134,1329
832.930481,1310
833.048828,1334
833.167114,1298
833.2854,1254
833.403687,1340
833.521973,1294
833.640259,1327
833.758545,1300
833.876831,1335
833.995056,1325
834.113281,1285
834.231628,1334
834.349915,1313
834.468201,1335
834.586426,1313
834.704651,1266
834.822998,1321
834.941162,1316
835.059448,1317
835.177673,1336
835.295959,1303
835.414246,1334
835.53241,1305
835.650635,1325
835.768921,1318
835.887146,1318
836.005371,1341
836.123596,1317
836.241821,1347
836.360046,1280
836.478271,1338
836.596497,1330
836.714722,1364
836.832886,1321
836.95105,1321
837.069336,1327
837.1875,1314
837.305725,1305
837.423889,1327
837.542053,1323
837.660339,1311
837.778503,1305
837.896667,1307
838.014832,1319
838.132996,1276
838.25116,1308
838.369385,1318
838.487488,1362
838.605713,1299
838.723877,1312
838.84198,1324
838.960205,1288
839.078308,1346
839.196472,1322
839.314636,1313
839.4328,1363
839.550964,1306
839.669067,1288
839.787231,1308
839.905396,1311
840.023499,1321
840.141602,1307
840.259766,1316
840.377869,1286
840.495972,1329
840.614136,1343
840.732239,1311
840.850342,1307
840.968445,1344
841.086548,1293
841.204651,1347
841.322754,1338
841.440918,1357
841.55896,1275
841.677002,1308
841.795166,1283
841.913208,1322
842.031311,1313
842.149353,1287
842.267456,1274
842.385498,1325
842.503601,1315
842.621643,1310
842.739746,1284
842.857788,1284
842.97583,1315
843.093933,1277
843.211975,1282
843.330017,1332
843.44812,1302
843.566101,1344
843.684204,1267
843.802246,1281
843.920227,1294
844.038269,1310
844.156311,1313
844.274292,1317
844.392395,1294
844.510376,1261
844.628357,1341
844.74646,1280
844.864441,1311
844.982422,1274
845.100403,1311
845.218384,1307
845.336426,1276
845.454468,1298
845.572449,1305
845.69043,1302
845.808411,1304
845.926453,1308
846.044373,1322
846.162354,1273
846.280396,1322
846.398315,1286
846.516296,1348
846.634216,1287
846.752197,1290
846.870178,1334
846.988098,1316
847.106079,1286
847.22406,1272
847.34198,1320
847.4599,1307
847.577881,1332
847.695801,1328
847.813782,1334
847.931641,1285
848.049561,1338
848.167603,1292
848.285461,1313
848.403381,1295
848.521362,1296
848.639221,1356
848.75708,1288
848.875,1282
848.99292,1308
849.110901,1290
849.22876,1341
849.34668,1252
849.464539,1305
849.582458,1320
849.700317,1321
849.818176,1277
849.936096,1304
850.053955,1293
850.171875,1329
850.289673,1315
850.407593,1296
850.525452,1303
850.643311,1300
850.761169,1339
850.878967,1320
850.996887,1332
851.114746,1315
851.232544,1295
851.350403,1283
851.468262,1303
851.58606,1330
851.703979,1313
851.821777,1334
851.939636,1314
852.057434,1283
852.175232,1297
852.293091,1292
852.410889,1321
852.528687,1342
852.646545,1288
852.764343,1325
852.88208,1298
852.999939,1302
853.117676,1305
853.235535,1289
853.353271,1322
853.471069,1312
853.588928,1311
853.706604,1281
853.824402,1318
853.9422,1320
854.059998,1319
854.177734,1306
854.295532,1334
854.413269,1329
854.531006,1317
854.648804,1314
854.766541,1297
854.884277,1283
855.002014,1339
855.119751,1299
855.237549,1289
855.355225,1304
855.473022,1347
855.590698,1307
855.708435,1328
855.826172,1313
855.943848,1324
856.061646,1317
856.179321,1325
856.296997,1337
856.414795,1314
856.53241,1351
856.650085,1296
856.767822,1353
856.885559,1301
857.003174,1316
857.120911,1339
857.238586,1320
857.356201,1319
857.473938,1321
857.591614,1314
857.709351,1301
857.826965,1335
857.944641,1321
858.062317,1326
858.179993,1341
858.297668,1294
858.415283,1336
858.532959,1306
858.650574,1320
858.768188,1339
858.885803,1325
859.003479,1320
859.121094,1294
859.23877,1340
859.356384,1356
859.473999,1325
859.591675,1290
859.709229,1314
859.826843,1331
859.944458,1339
860.062012,1304
860.179626,1319
860.297302,1335
860.414856,1312
860.532471,1317
860.650024,1322
860.767639,1304
860.885193,1314
861.002808,1348
861.120361,1364
861.237976,1288
861.35553,1361
861.473022,1301
861.590698,1340
861.708191,1308
861.825745,1312
861.943298,1321
862.060852,1326
862.178406,1320
862.295959,1320
862.413513,1341
862.531006,1357
862.64856,1358
862.766113,1320
862.883667,1315
863.00116,1327
863.118713,1301
863.236206,1328
863.353699,1312
863.471252,1314
863.588745,1317
863.706177,1277
863.82373,1337
863.941162,1310
864.058716,1347
864.176208,1288
864.29364,1335
864.411194,1308
864.528687,1339
864.646118,1327
864.763611,1338
864.881042,1326
864.998535,1276
865.116028,1351
865.233459,1326
865.350891,1316
865.468384,1304
865.585754,1312
865.703308,1320
865.820679,1313
865.938171,1351
866.055542,1338
866.173035,1356
866.290466,1320
866.407837,1328
866.52533,1328
866.6427,1328
866.760071,1334
866.877563,1321
866.994934,1338
867.112305,1306
867.229736,1353
867.347107,1344
867.464539,1331
867.58197,1333
867.699341,1326
867.81665,1339
867.934082,1313
868.051453,1330
868.168823,1353
868.286194,1335
868.403564,1338
868.520935,1334
868.638306,1342
868.755676,1317
868.872986,1312
868.990295,1338
869.107727,1341
869.225037,1341
869.342346,1371
869.459717,1338
869.577026,1354
869.694336,1323
869.811707,1365
869.929016,1363
870.046326,1354
870.163635,1340
870.280945,1335
870.398254,1349
870.515564,1342
870.632812,1325
870.750183,1360
870.867432,1343
870.984741,1345
871.102051,1349
871.219299,1328
871.336609,1377
871.453918,1323
871.571106,1364
871.688416,1349
871.805664,1325
871.922852,1331
872.040222,1343
872.157471,1310
872.274719,1347
872.391968,1334
872.509155,1379
872.626465,1369
872.743652,1344
872.860962,1326
872.978149,1367
873.095337,1337
873.212646,1324
873.329834,1364
873.44696,1341
873.564209,1327
873.681396,1356
873.798645,1362
873.915894,1338
874.03302,1315
874.150208,1386
874.267456,1351
874.384583,1323
874.501831,1368
874.618958,1373
874.736145,1363
874.853333,1343
874.970459,1327
875.087646,1341
875.204834,1373
875.32196,1338
875.439148,1369
875.556274,1375
875.673401,1308
875.790527,1359
875.907715,1347
876.024841,1358
876.141968,1393
876.259094,1345
876.376282,1378
876.493347,1344
876.610474,1332
876.7276,1372
876.844727,1341
876.961853,1350
877.078918,1358
877.195984,1375
877.313171,1380
877.430237,1359
877.547302,1352
877.664368,1340
877.781433,1363
877.898499,1366
878.015625,1372
878.13269,1322
878.249695,1345
878.366821,1354
878.483887,1317
878.600952,1336
878.717957,1330
878.834961,1331
878.952087,1370
879.069092,1330
879.186157,1338
879.303162,1385
879.420227,1340
879.537231,1355
879.654236,1341
879.77124,1347
879.888306,1365
880.005249,1360
880.122314,1340
880.239319,1361
880.356323,1333
880.473328,1372
880.590271,1337
880.707275,1333
880.824341,1372
880.941284,1338
881.058228,1363
881.175232,1365
881.292236,1365
881.40918,1345
881.526123,1348
881.643066,1335
881.760071,1399
881.877014,1358
881.993958,1372
882.11084,1355
882.227783,1360
882.344727,1327
882.46167,1401
882.578613,1330
882.695618,1342
882.812439,1356
882.929382,1369
883.046326,1386
883.163208,1321
883.280151,1376
883.397034,1377
883.513916,1356
883.630798,1376
883.747742,1334
883.864563,1356
883.981506,1349
884.098389,1391
884.21521,1394
884.332153,1414
884.448975,1332
884.565796,1395
884.682678,1418
884.7995,1375
884.916443,1391
885.033264,1396
885.150085,1410
885.266968,1401
885.383789,1414
885.500671,1323
885.617493,1396
885.734314,1379
885.851196,1345
885.967896,1405
886.084717,1387
886.201599,1413
886.318359,1415
886.435181,1403
886.552002,1403
886.668762,1379
886.785645,1365
886.902344,1411
887.019165,1402
887.135925,1408
887.252747,1355
887.369446,1373
887.486267,1369
887.603027,1360
887.719788,1404
887.836548,1374
887.953247,1347
888.070068,1398
888.186829,1414
888.303528,1380
888.420288,1398
888.536987,1379
888.653687,1416
888.770447,1390
888.887146,1362
889.003967,1417
889.120667,1377
889.237305,1368
889.354065,1384
889.470703,1425
889.587463,1352
889.704163,1424
889.820862,1360
889.937561,1390
890.054199,1386
890.170837,1387
890.287598,1385
890.404236,1360
890.520874,1427
890.637634,1414
890.754211,1416
890.87085,1403
890.987549,1385
891.104187,1424
891.220886,1399
891.337463,1384
891.454102,1389
891.57074,1418
891.687378,1394
891.804077,1400
891.920654,1403
892.037231,1409
892.15387,1426
892.270447,1380
892.387085,1427
892.503723,1374
892.6203,1409
892.736877,1411
892.853516,1427
892.970032,1441
893.08667,1413
893.203186,1401
893.319763,1421
893.43634,1480
893.552917,1424
893.669556,1391
893.786011,1414
893.902588,1382
894.019165,1367
894.135681,1373
894.252197,1443
894.368835,1408
894.485291,1397
894.601868,1380
894.718384,1409
894.8349,1391
894.951355,1413
895.067932,1430
895.184448,1417
895.300964,1391
895.417419,1457
895.533936,1441
895.650452,1428
895.766907,1443
895.883423,1389
895.999878,1420
896.116333,1417
896.232849,1416
896.349304,1431
896.465759,1372
896.582214,1419
896.698669,1390
896.815125,1402
896.931641,1408
897.048035,1425
897.164551,1432
897.280884,1418
897.397339,1416
897.513794,1422
897.630249,1448
897.746582,1415
897.863098,1403
897.979431,1389
898.095886,1428
898.212341,1451
898.328674,1415
898.445129,1432
898.561462,1406
898.677795,1413
898.794312,1450
898.910645,1401
899.026978,1430
899.143433,1398
899.259766,1452
899.37616,1384
899.492493,1422
899.608765,1465
899.725159,1379
899.841553,1442
899.957947,1390
900.07428,1474
900.190552,1459
900.306946,1434
900.423157,1410
900.53949,1443
900.655884,1451
900.772156,1457
900.888489,1447
901.004822,1402
901.121033,1427
901.237366,1422
901.353699,1411
901.46991,1412
901.586304,1434
901.702515,1436
901.818787,1400
901.93512,1438
902.051331,1439
902.167603,1434
902.283875,1473
902.400085,1405
902.516418,1442
902.632629,1457
902.74884,1465
902.865112,1457
902.981384,1439
903.097595,1393
903.213867,1449
903.330017,1441
903.446289,1460
903.5625,1430
903.67865,1456
903.794922,1429
903.911072,1430
904.027344,1448
904.143494,1420
904.259705,1475
904.375916,1420
904.492065,1467
904.608215,1429
904.724426,1417
904.840576,1430
904.956726,1467
905.072876,1451
905.189087,1469
905.305176,1415
905.421387,1463
905.537537,1434
905.653687,1431
905.769775,1462
905.885925,1425
906.002014,1478
906.118164,1436
906.234314,1430
906.350403,1440
906.466492,1459
906.582642,1444
906.69873,1472
906.814758,1436
906.930908,1454
907.046936,1430
907.163086,1390
907.279175,1475
907.395264,1441
907.511353,1436
907.62738,1436
907.743408,1447
907.859497,1472
907.975525,1496
908.091553,1431
908.207703,1460
908.32373,1487
908.439758,1477
908.555786,1417
908.671814,1414
908.787842,1408
908.90387,1473
909.019775,1449
909.135864,1456
909.251892,1407
909.367859,1494
909.483826,1446
909.599854,1443
909.715881,1447
909.831848,1487
909.947815,1415
910.063782,1467
910.179749,1479
910.295776,1449
910.411743,1481
910.527649,1430
910.643616,1426
910.759583,1436
910.875488,1463
910.991455,1439
911.107361,1479
911.223267,1502
911.339294,1488
911.4552,1428
911.571106,1470
911.687073,1430
911.802979,1469
911.918823,1469
912.034729,1436
912.150635,1446
912.266602,1426
912.382446,1495
912.498352,1430
912.614197,1447
912.730103,1471
912.846008,1430
792.44574,1787
792.56488,1689
792.68396,1755
792.80304,1767
792.92218,1708
793.041199,1690
793.160339,1706
793.279419,1710
793.398499,1665
793.517578,1641
793.636658,1667
793.755737,1671
793.874817,1697
793.993896,1668
794.112976,1626
794.232056,1635
794.351074,1617
794.470215,1641
794.589233,1631
794.708313,1601
794.827393,1593
794.946411,1587
795.065552,1627
795.18457,1594
795.303589,1653
795.422668,1618
795.541687,1555
795.660767,1617
795.779846,1555
795.898865,1589
796.017883,1607
796.136963,1587
796.255981,1589
796.375061,1555
796.49408,1633
796.613037,1579
796.732117,1578
796.851135,1540
796.970154,1589
797.089233,1544
797.208191,1538
797.327271,1549
797.446228,1568
797.565186,1547
797.684265,1537
797.803223,1584
797.922241,1537
798.04126,1546
798.160278,1537
798.279297,1548
798.398315,1545
798.517273,1577
798.636292,1571
798.75531,1546
798.874268,1562
798.993286,1507
799.112244,1522
799.231323,1539
799.350281,1537
799.469238,1583
799.588257,1537
799.707153,1580
799.826111,1549
799.945129,1574
800.064087,1556
800.183044,1551
800.302063,1586
800.421021,1564
800.539978,1503
800.658936,1521
800.777893,1556
800.896912,1543
801.015747,1513
801.134705,1527
801.253723,1538
801.37262,1531
801.491638,1578
801.610535,1570
801.729492,1571
801.84845,1539
801.967407,1522
802.086243,1520
802.205261,1538
802.324158,1562
802.443115,1542
802.562073,1508
802.680969,1526
802.799927,1512
802.918762,1543
803.037659,1591
803.156677,1482
803.275574,1562
803.39447,1562
803.513428,1521
803.632263,1558
803.751221,1570
803.870117,1540
803.989014,1551
804.107971,1533
804.226746,1516
804.345642,1526
804.4646,1533
804.583496,1504
804.702393,1538
804.821228,1520
804.940125,1509
805.059021,1513
805.177917,1527
805.296814,1518
805.415649,1533
805.534546,1558
805.653442,1555
805.772278,1536
805.891113,1547
806.01001,1562
806.128906,1503
806.247742,1516
806.366577,1548
806.485413,1550
806.604309,1546
806.723145,1561
806.84198,1497
806.960876,1566
807.079712,1532
807.198486,1556
807.317383,1544
807.436218,1528
807.554993,1545
807.673889,1541
807.792725,1563
807.91156,1536
808.030396,1567
808.14917,1518
808.268005,1545
808.386841,1567
808.505676,1536
808.624451,1521
808.743286,1507
808.862122,1546
808.980896,1563
809.099731,1557
809.218506,1517
809.337341,1514
809.456116,1526
809.57489,1535
809.693726,1559
809.8125,1561
809.931274,1500
810.050049,1573
810.168884,1541
810.287659,1591
810.406372,1547
810.525269,1517
810.643982,1513
810.762756,1556
810.881531,1507
811.000305,1541
811.11908,1531
811.237854,1538
811.356567,1502
811.475403,1524
811.594116,1559
811.71283,1570
811.831604,1502
811.950378,1566
812.069153,1560
812.187927,1552
812.30658,1501
812.425415,1573
812.544128,1586
812.662781,1511
812.781616,1568
812.900269,1517
813.019043,1567
813.137756,1525
813.256531,1555
813.375244,1527
813.493896,1581
813.612671,1480
813.731384,1517
813.850037,1523
813.96875,1564
814.087524,1491
814.206238,1484
814.324951,1505
814.443604,1520
814.562256,1540
814.68103,1525
814.799683,1547
814.918335,1485
815.037109,1523
815.155762,1531
815.274475,1524
815.393188,1501
815.511841,1503
815.630554,1497
815.749146,1513
815.867859,1471
815.986572,1464
816.105164,1435
816.223877,1542
816.342529,1477
816.461182,1503
816.579895,1510
816.698486,1515
816.817139,1476
816.935791,1517
817.054504,1486
817.173096,1494
817.291748,1476
817.4104,1491
817.529053,1483
817.647644,1467
817.766235,1496
817.884949,1478
818.00354,1483
818.122192,1442
818.240845,1419
818.359436,1481
818.478088,1437
818.59668,1441
818.715271,1434
818.833923,1425
818.952515,1417
819.071106,1417
819.189758,1406
819.30835,1419
819.426941,1418
819.545532,1423
819.664124,1390
819.782715,1409
819.901306,1366
820.019897,1411
820.138489,1384
820.25708,1466
820.375671,1395
820.494202,1398
820.612732,1395
820.731384,1423
820.849915,1397
820.968506,1392
821.087097,1361
821.205627,1360
821.324158,1399
821.442749,1435
821.561279,1369
821.679871,1366
821.798401,1419
821.916931,1387
822.035461,1370
822.154053,1398
822.272583,1367
822.391174,1400
822.509583,1363
822.628174,1408
822.746704,1371
822.865234,1362
822.983765,1342
823.102295,1371
823.220825,1399
823.339294,1336
823.457825,1389
823.576355,1390
823.694824,1358
823.813354,1416
823.931885,1366
824.050354,1368
824.168884,1355
824.287354,1367
824.405823,1370
824.524353,1392
824.642822,1407
824.761353,1373
824.879822,1358
824.998291,1347
825.116699,1375
825.235291,1373
825.353699,1394
825.472168,1353
825.590637,1366
825.709106,1367
825.827576,1366
825.946045,1355
826.064453,1336
826.182983,1321
826.301392,1356
826.4198,1345
826.53833,1386
826.656738,1311
826.775208,1385
826.893677,1357
827.012024,1358
827.130493,1354
827.248962,1340
827.36731,1365
827.485779,1381
827.604248,1362
827.722595,1312
827.841064,1368
827.959412,1371
828.077942,1318
828.196289,1336
828.314636,1285
828.433105,1354
828.551514,1357
828.669861,1348
828.78833,1335
828.906677,1323
829.025085,1309
829.143433,1372
829.261841,1309
829.38031,1342
829.498657,1349
829.617004,1359
829.735413,1326
829.85376,1357
829.972107,1331
830.090515,1314
830.208862,1320
830.327209,1324
830.445557,1327
830.563904,1345
830.682312,1315
830.800659,1316
830.919006,1339
831.037354,1292
831.155701,1350
831.274048,1313
831.392395,1314
831.51062,1356
831.629028,1348
831.747314,1333
831.865662,1303
831.984009,1396
832.102356,1333
832.220642,1337
832.338928,1327
832.457275,1341
832.575623,1330
832.693909,1325
832.812134,1347
832.930481,1323
833.048828,1291
833.167114,1308
833.2854,1329
833.403687,1331
833.521973,1350
833.640259,1377
833.758545,1328
833.876831,1317
833.995056,1335
834.113281,1340
834.231628,1332
834.349915,1335
834.468201,1354
834.586426,1314
834.704651,1366
834.822998,1307
834.941162,1322
835.059448,1301
835.177673,1306
835.295959,1340
835.414246,1324
835.53241,1333
835.650635,1300
835.768921,1317
835.887146,1298
836.005371,1335
836.123596,1344
836.241821,1302
836.360046,1335
836.478271,1315
836.596497,1323
836.714722,1326
836.832886,1343
836.95105,1323
837.069336,1328
837.1875,1313
837.305725,1354
837.423889,1291
837.542053,1335
837.660339,1312
837.778503,1348
837.896667,1351
838.014832,1349
838.132996,1333
838.25116,1372
838.369385,1308
838.487488,1339
838.605713,1340
838.723877,1328
838.84198,1353
838.960205,1336
839.078308,1343
839.196472,1341
839.314636,1312
839.4328,1376
839.550964,1326
839.669067,1303
839.787231,1317
839.905396,1292
840.023499,1316
840.141602,1328
840.259766,1346
840.377869,1325
840.495972,1349
840.614136,1333
840.732239,1326
840.850342,1337
840.968445,1332
841.086548,1327
841.204651,1328
841.322754,1364
841.440918,1324
841.55896,1339
841.677002,1293
841.795166,1347
841.913208,1309
842.031311,1313
842.149353,1336
842.267456,1330
842.385498,1295
842.503601,1328
842.621643,1320
842.739746,1311
842.857788,1350
842.97583,1284
843.093933,1333
843.211975,1325
843.330017,1371
843.44812,1321
843.566101,1322
843.684204,1295
843.802246,1304
843.920227,1301
844.038269,1351
844.156311,1347
844.274292,1269
844.392395,1343
844.510376,1305
844.628357,1292
844.74646,1276
844.864441,1301
844.982422,1332
845.100403,1316
845.218384,1330
845.336426,1281
845.454468,1354
845.572449,1330
845.69043,1338
845.808411,1295
845.926453,1289
846.044373,1318
846.162354,1321
846.280396,1333
846.398315,1321
846.516296,1302
846.634216,1355
846.752197,1290
846.870178,1349
846.988098,1268
847.106079,1347
847.22406,1297
847.34198,1297
847.4599,1324
847.577881,1348
847.695801,1295
847.813782,1295
847.931641,1322
848.049561,1345
848.167603,1288
848.285461,1304
848.403381,1338
848.521362,1303
848.639221,1303
848.75708,1311
848.875,1339
848.99292,1337
849.110901,1303
849.22876,1277
849.34668,1333
849.464539,1316
849.582458,1318
849.700317,1267
849.818176,1329
849.936096,1264
850.053955,1301
850.171875,1323
850.289673,1357
850.407593,1308
850.525452,1331
850.643311,1333
850.761169,1289
850.878967,1348
850.996887,1307
851.114746,1308
851.232544,1331
851.350403,1342
851.468262,1316
851.58606,1286
851.703979,1316
851.821777,1314
851.939636,1332
852.057434,1267
852.175232,1305
852.293091,1335
852.410889,1306
852.528687,1285
852.646545,1328
852.764343,1317
852.88208,1325
852.999939,1322
853.117676,1312
853.235535,1324
853.353271,1323
853.471069,1327
853.588928,1281
853.706604,1256
853.824402,1300
853.9422,1332
854.059998,1364
854.177734,1314
854.295532,1303
854.413269,1309
854.531006,1347
854.648804,1340
854.766541,1339
854.884277,1318
855.002014,1322
855.119751,1335
855.237549,1339
855.355225,1334
855.473022,1342
855.590698,1297
855.708435,1324
855.826172,1324
855.943848,1344
856.061646,1364
856.179321,1313
856.296997,1331
856.414795,1333
856.53241,1341
856.650085,1314
856.767822,1368
856.885559,1360
857.003174,1311
857.120911,1308
857.238586,1343
857.356201,1324
857.473938,1349
857.591614,1394
857.709351,1324
857.826965,1341
857.944641,1361
858.062317,1298
858.179993,1319
858.297668,1323
858.415283,1302
858.532959,1312
858.650574,1338
858.768188,1309
858.885803,1331
859.003479,1396
859.121094,1300
859.23877,1367
859.356384,1351
859.473999,1334
859.591675,1300
859.709229,1320
859.826843,1332
859.944458,1341
860.062012,1332
860.179626,1321
860.297302,1353
860.414856,1297
860.532471,1323
860.650024,1325
860.767639,1358
860.885193,1326
861.002808,1332
861.120361,1333
861.237976,1316
861.35553,1379
861.473022,1347
861.590698,1325
861.708191,1346
861.825745,1313
861.943298,1347
862.060852,1363
862.178406,1336
862.295959,1336
862.413513,1338
862.531006,1307
862.64856,1364
862.766113,1309
862.883667,1343
863.00116,1365
863.118713,1315
863.236206,1340
863.353699,1335
863.471252,1324
863.588745,1317
863.706177,1331
863.82373,1339
863.941162,1302
864.058716,1346
864.176208,1325
864.29364,1349
864.411194,1317
864.528687,1348
864.646118,1321
864.763611,1324
864.881042,1317
864.998535,1342
865.116028,1290
865.233459,1374
865.350891,1276
865.468384,1362
865.585754,1303
865.703308,1328
865.820679,1368
865.938171,1322
866.055542,1322
866.173035,1328
866.290466,1358
866.407837,1345
866.52533,1369
866.6427,1333
866.760071,1350
866.877563,1380
866.994934,1348
867.112305,1361
867.229736,1369
867.347107,1337
867.464539,1353
867.58197,1319
867.699341,1347
867.81665,1362
867.934082,1354
868.051453,1309
868.168823,1359
868.286194,1333
868.403564,1364
868.520935,1366
868.638306,1339
868.755676,1340
868.872986,1366
868.990295,1382
869.107727,1339
869.225037,1324
869.342346,1336
869.459717,1354
869.577026,1341
869.694336,1352
869.811707,1340
869.929016,1367
870.046326,1355
870.163635,1385
870.280945,1355
870.398254,1354
870.515564,1333
870.632812,1373
870.750183,1313
870.867432,1337
870.984741,1331
871.102051,1360
871.219299,1372
871.336609,1363
871.453918,1352
871.571106,1378
871.688416,1340
871.805664,1395
871.922852,1357
872.040222,1355
872.157471,1364
872.274719,1354
872.391968,1397
872.509155,1351
872.626465,1316
872.743652,1361
872.860962,1369
872.978149,1341
873.095337,1331
873.212646,1319
873.329834,1367
873.44696,1364
873.564209,1364
873.681396,1337
873.798645,1365
873.915894,1337
874.03302,1375
874.150208,1342
874.267456,1391
874.384583,1352
874.501831,1338
874.618958,1377
874.736145,1365
874.853333,1359
874.970459,1351
875.087646,1355
875.204834,1365
875.32196,1363
875.439148,1348
875.556274,1347
875.673401,1395
875.790527,1333
875.907715,1367
876.024841,1382
876.141968,1385
876.259094,1358
876.376282,1353
876.493347,1363
876.610474,1317
876.7276,1337
876.844727,1417
876.961853,1359
877.078918,1366
877.195984,1347
877.313171,1403
877.430237,1375
877.547302,1372
877.664368,1342
877.781433,1377
877.898499,1354
878.015625,1390
878.13269,1401
878.249695,1374
878.366821,1365
878.483887,1374
878.600952,1341
878.717957,1389
878.834961,1403
878.952087,1349
879.069092,1363
879.186157,1357
879.303162,1345
879.420227,1397
879.537231,1365
879.654236,1358
879.77124,1369
879.888306,1353
880.005249,1350
880.122314,1371
880.239319,1361
880.356323,1398
880.473328,1371
880.590271,1387
880.707275,1327
880.824341,1379
880.941284,1340
881.058228,1350
881.175232,1356
881.292236,1382
881.40918,1347
881.526123,1381
881.643066,1374
881.760071,1356
881.877014,1341
881.993958,1360
882.11084,1365
882.227783,1373
882.344727,1351
882.46167,1378
882.578613,1364
882.695618,1375
882.812439,1375
882.929382,1339
883.046326,1396
883.163208,1345
883.280151,1407
883.397034,1368
883.513916,1404
883.630798,1370
883.747742,1380
883.864563,1373
883.981506,1386
884.098389,1376
884.21521,1379
884.332153,1437
884.448975,1358
884.565796,1415
884.682678,1375
884.7995,1377
884.916443,1422
885.033264,1366
885.150085,1410
885.266968,1430
885.383789,1387
885.500671,1407
885.617493,1446
885.734314,1392
885.851196,1416
885.967896,1396
886.084717,1397
886.201599,1404
886.318359,1425
886.435181,1394
886.552002,1420
886.668762,1356
886.785645,1384
886.902344,1410
887.019165,1401
887.135925,1412
887.252747,1388
887.369446,1405
887.486267,1382
887.603027,1395
887.719788,1424
887.836548,1381
887.953247,1403
888.070068,1408
888.186829,1403
888.303528,1443
888.420288,1359
888.536987,1411
888.653687,1391
888.770447,1414
888.887146,1435
889.003967,1430
889.120667,1398
889.237305,1399
889.354065,1401
889.470703,1364
889.587463,1354
889.704163,1398
889.820862,1391
889.937561,1386
890.054199,1394
890.170837,1386
890.287598,1432
890.404236,1372
890.520874,1396
890.637634,1391
890.754211,1412
890.87085,1368
890.987549,1427
891.104187,1385
891.220886,1440
891.337463,1413
891.454102,1408
891.57074,1418
891.687378,1417
891.804077,1397
891.920654,1375
892.037231,1404
892.15387,1368
892.270447,1395
892.387085,1441
892.503723,1400
892.6203,1432
892.736877,1395
892.853516,1394
892.970032,1402
893.08667,1414
893.203186,1430
893.319763,1424
893.43634,1414
893.552917,1447
893.669556,1427
893.786011,1410
893.902588,1454
894.019165,1400
894.135681,1449
894.252197,1370
894.368835,1435
894.485291,1407
894.601868,1427
894.718384,1413
894.8349,1428
894.951355,1428
895.067932,1405
895.184448,1425
895.300964,1420
895.417419,1430
895.533936,1374
895.650452,1423
895.766907,1416
895.883423,1440
895.999878,1443
896.116333,1457
896.232849,1442
896.349304,1451
896.465759,1438
896.582214,1475
896.698669,1410
896.815125,1452
896.931641,1390
897.048035,1424
897.164551,1423
897.280884,1422
897.397339,1399
897.513794,1437
897.630249,1454
897.746582,1407
897.863098,1455
897.979431,1442
898.095886,1428
898.212341,1437
898.328674,1421
898.445129,1434
898.561462,1459
898.677795,1443
898.794312,1429
898.910645,1390
899.026978,1438
899.143433,1445
899.259766,1434
899.37616,1431
899.492493,1457
899.608765,1430
899.725159,1440
899.841553,1433
899.957947,1427
900.07428,1465
900.190552,1478
900.306946,1452
900.423157,1456
900.53949,1424
900.655884,1450
900.772156,1489
900.888489,1457
901.004822,1424
901.121033,1481
901.237366,1445
901.353699,1429
901.46991,1450
901.586304,1452
901.702515,1443
901.818787,1449
901.93512,1440
902.051331,1458
902.167603,1434
902.283875,1453
902.400085,1434
902.516418,1443
902.632629,1447
902.74884,1453
902.865112,1487
902.981384,1438
903.097595,1447
903.213867,1472
903.330017,1429
903.446289,1447
903.5625,1442
903.67865,1475
903.794922,1400
903.911072,1453
904.027344,1462
904.143494,1440
904.259705,1492
904.375916,1460
904.492065,1444
904.608215,1466
904.724426,1423
904.840576,1462
904.956726,1446
905.072876,1440
905.189087,1516
905.305176,1414
905.421387,1476
905.537537,1473
905.653687,1463
905.769775,1419
905.885925,1473
906.002014,1452
906.118164,1465
906.234314,1476
906.350403,1474
906.466492,1462
906.582642,1471
906.69873,1453
906.814758,1437
906.930908,1452
907.046936,1445
907.163086,1474
907.279175,1446
907.395264,1473
907.511353,1436
907.62738,1460
907.743408,1441
907.859497,1478
907.975525,1449
908.091553,1480
908.207703,1470
908.32373,1497
908.439758,1460
908.555786,1450
908.671814,1438
908.787842,1467
908.90387,1456
909.019775,1467
909.135864,1481
909.251892,1499
909.367859,1460
909.483826,1471
909.599854,1467
909.715881,1492
909.831848,1500
909.947815,1477
910.063782,1462
910.179749,1478
910.295776,1477
910.411743,1469
910.527649,1475
910.643616,1462
910.759583,1456
910.875488,1512
910.991455,1445
911.107361,1481
911.223267,1481
911.339294,1487
911.4552,1459
911.571106,1465
911.687073,1457
911.802979,1442
911.918823,1494
912.034729,1433
912.150635,1464
912.266602,1483
912.382446,1457
912.498352,1451
912.614197,1444
912.730103,1466
912.846008,1469
