792.44574,3765
792.56488,3561
792.68396,3391
792.80304,3414
792.92218,3322
793.041199,3192
793.160339,3251
793.279419,3176
793.398499,3079
793.517578,3005
793.636658,2971
793.755737,2912
793.874817,2894
793.993896,2797
794.112976,2758
794.232056,2752
794.351074,2649
794.470215,2652
794.589233,2643
794.708313,2556
794.827393,2580
794.946411,2547
795.065552,2538
795.18457,2490
795.303589,2424
795.422668,2418
795.541687,2455
795.660767,2393
795.779846,2386
795.898865,2373
796.017883,2298
796.136963,2270
796.255981,2250
796.375061,2269
796.49408,2297
796.613037,2236
796.732117,2212
796.851135,2157
796.970154,2226
797.089233,2160
797.208191,2148
797.327271,2127
797.446228,2152
797.565186,2087
797.684265,2081
797.803223,2117
797.922241,2102
798.04126,2103
798.160278,2068
798.279297,2068
798.398315,2051
798.517273,2042
798.636292,2065
798.75531,2030
798.874268,2046
798.993286,1998
799.112244,1990
799.231323,1947
799.350281,2023
799.469238,1976
799.588257,2007
799.707153,2002
799.826111,1993
799.945129,1975
800.064087,1973
800.183044,1937
800.302063,1949
800.421021,1951
800.539978,1909
800.658936,1948
800.777893,1976
800.896912,1951
801.015747,1903
801.134705,1942
801.253723,1898
801.37262,1924
801.491638,1917
801.610535,1921
801.729492,1893
801.84845,1925
801.967407,1887
802.086243,1893
802.205261,1859
802.324158,1867
802.443115,1833
802.562073,1823
802.680969,1867
802.799927,1856
802.918762,1839
803.037659,1852
803.156677,1847
803.275574,1870
803.39447,1869
803.513428,1878
803.632263,1819
803.751221,1856
803.870117,1788
803.989014,1833
804.107971,1821
804.226746,1873
804.345642,1783
804.4646,1801
804.583496,1785
804.702393,1822
804.821228,1789
804.940125,1814
805.059021,1841
805.177917,1829
805.296814,1783
805.415649,1800
805.534546,1743
805.653442,1795
805.772278,1788
805.891113,1797
806.01001,1794
806.128906,1783
806.247742,1828
806.366577,1803
806.485413,1778
806.604309,1795
806.723145,1771
806.84198,1771
806.960876,1801
807.079712,1781
807.198486,1789
807.317383,1810
807.436218,1748
807.554993,1753
807.673889,1789
807.792725,1742
807.91156,1738
808.030396,1763
808.14917,1793
808.268005,1729
808.386841,1746
808.505676,1794
808.624451,1750
808.743286,1719
808.862122,1762
808.980896,1812
809.099731,1718
809.218506,1726
809.337341,1729
809.456116,1764
809.57489,1786
809.693726,1760
809.8125,1782
809.931274,1774
810.050049,1764
810.168884,1785
810.287659,1801
810.406372,1720
810.525269,1764
810.643982,1791
810.762756,1753
810.881531,1740
811.000305,1758
811.11908,1796
811.237854,1776
811.356567,1755
811.475403,1744
811.594116,1746
811.71283,1771
811.831604,1777
811.950378,1748
812.069153,1797
812.187927,1813
812.30658,1812
812.425415,1781
812.544128,1762
812.662781,1769
812.781616,1812
812.900269,1746
813.019043,1806
813.137756,1755
813.256531,1803
813.375244,1742
813.493896,1801
813.612671,1770
813.731384,1735
813.850037,1730
813.96875,1767
814.087524,1760
814.206238,1721
814.324951,1742
814.443604,1720
814.562256,1708
814.68103,1767
814.799683,1737
814.918335,1734
815.037109,1743
815.155762,1712
815.274475,1757
815.393188,1697
815.511841,1701
815.630554,1700
815.749146,1699
815.867859,1689
815.986572,1689
816.105164,1696
816.223877,1695
816.342529,1696
816.461182,1706
816.579895,1704
816.698486,1745
816.817139,1735
816.935791,1693
817.054504,1728
817.173096,1720
817.291748,1724
817.4104,1725
817.529053,1708
817.647644,1684
817.766235,1657
817.884949,1621
818.00354,1651
818.122192,1631
818.240845,1625
818.359436,1592
818.478088,1646
818.59668,1579
818.715271,1584
818.833923,1593
818.952515,1566
819.071106,1554
819.189758,1571
819.30835,1514
819.426941,1550
819.545532,1525
819.664124,1493
819.782715,1497
819.901306,1518
820.019897,1512
820.138489,1534
820.25708,1524
820.375671,1591
820.494202,1522
820.612732,1523
820.731384,1553
820.849915,1530
820.968506,1530
821.087097,1503
821.205627,1513
821.324158,1496
821.442749,1491
821.561279,1441
821.679871,1468
821.798401,1469
821.916931,1490
822.035461,1526
822.154053,1465
822.272583,1488
822.391174,1452
822.509583,1469
822.628174,1458
822.746704,1471
822.865234,1456
822.983765,1494
823.102295,1471
823.220825,1503
823.339294,1446
823.457825,1467
823.576355,1440
823.694824,1505
823.813354,1457
823.931885,1470
824.050354,1472
824.168884,1461
824.287354,1464
824.405823,1480
824.524353,1499
824.642822,1457
824.761353,1495
824.879822,1513
824.998291,1461
825.116699,1520
825.235291,1456
825.353699,1528
825.472168,1452
825.590637,1433
825.709106,1436
825.827576,1452
825.946045,1481
826.064453,1447
826.182983,1418
826.301392,1437
826.4198,1415
826.53833,1427
826.656738,1451
826.775208,1400
826.893677,1441
827.012024,1387
827.130493,1422
827.248962,1454
827.36731,1454
827.485779,1423
827.604248,1425
827.722595,1404
827.841064,1412
827.959412,1374
828.077942,1376
828.196289,1420
828.314636,1430
828.433105,1423
828.551514,1464
828.669861,1392
828.78833,1423
828.906677,1385
829.025085,1395
829.143433,1398
829.261841,1401
829.38031,1378
829.498657,1416
829.617004,1391
829.735413,1388
829.85376,1363
829.972107,1367
830.090515,1353
830.208862,1409
830.327209,1413
830.445557,1455
830.563904,1382
830.682312,1414
830.800659,1378
830.919006,1442
831.037354,1441
831.155701,1476
831.274048,1429
831.392395,1456
831.51062,1428
831.629028,1419
831.747314,1420
831.865662,1451
831.984009,1434
832.102356,1454
832.220642,1435
832.338928,1446
832.457275,1451
832.575623,1504
832.693909,1453
832.812134,1494
832.930481,1407
833.048828,1402
833.167114,1452
833.2854,1406
833.403687,1498
833.521973,1412
833.640259,1455
833.758545,1435
833.876831,1451
833.995056,1408
834.113281,1419
834.231628,1442
834.349915,1409
834.468201,1439
834.586426,1446
834.704651,1408
834.822998,1431
834.941162,1470
835.059448,1411
835.177673,1449
835.295959,1426
835.414246,1410
835.53241,1440
835.650635,1408
835.768921,1438
835.887146,1406
836.005371,1461
836.123596,1436
836.241821,1414
836.360046,1409
836.478271,1390
836.596497,1425
836.714722,1407
836.832886,1406
836.95105,1420
837.069336,1422
837.1875,1394
837.305725,1428
837.423889,1418
837.542053,1463
837.660339,1429
837.778503,1426
837.896667,1418
838.014832,1422
838.132996,1458
838.25116,1448
838.369385,1472
838.487488,1422
838.605713,1449
838.723877,1451
838.84198,1462
838.960205,1501
839.078308,1420
839.196472,1454
839.314636,1451
839.4328,1448
839.550964,1441
839.669067,1456
839.787231,1514
839.905396,1442
840.023499,1510
840.141602,1500
840.259766,1518
840.377869,1513
840.495972,1480
840.614136,1505
840.732239,1550
840.850342,1538
840.968445,1504
841.086548,1527
841.204651,1484
841.322754,1500
841.440918,1586
841.55896,1544
841.677002,1586
841.795166,1552
841.913208,1510
842.031311,1555
842.149353,1519
842.267456,1531
842.385498,1514
842.503601,1562
842.621643,1488
842.739746,1564
842.857788,1527
842.97583,1499
843.093933,1531
843.211975,1531
843.330017,1537
843.44812,1598
843.566101,1461
843.684204,1523
843.802246,1525
843.920227,1569
844.038269,1533
844.156311,1479
844.274292,1560
844.392395,1520
844.510376,1501
844.628357,1538
844.74646,1519
844.864441,1518
844.982422,1575
845.100403,1526
845.218384,1519
845.336426,1489
845.454468,1506
845.572449,1471
845.69043,1497
845.808411,1456
845.926453,1484
846.044373,1427
846.162354,1521
846.280396,1494
846.398315,1537
846.516296,1491
846.634216,1488
846.752197,1531
846.870178,1470
846.988098,1521
847.106079,1517
847.22406,1467
847.34198,1523
847.4599,1507
847.577881,1535
847.695801,1527
847.813782,1475
847.931641,1508
848.049561,1502
848.167603,1504
848.285461,1542
848.403381,1477
848.521362,1469
848.639221,1496
848.75708,1524
848.875,1480
848.99292,1552
849.110901,1554
849.22876,1526
849.34668,1564
849.464539,1564
849.582458,1477
849.700317,1541
849.818176,1550
849.936096,1534
850.053955,1552
850.171875,1576
850.289673,1568
850.407593,1550
850.525452,1536
850.643311,1517
850.761169,1568
850.878967,1529
850.996887,1513
851.114746,1494
851.232544,1497
851.350403,1487
851.468262,1512
851.58606,1513
851.703979,1488
851.821777,1504
851.939636,1480
852.057434,1568
852.175232,1528
852.293091,1523
852.410889,1555
852.528687,1558
852.646545,1573
852.764343,1607
852.88208,1574
852.999939,1559
853.117676,1558
853.235535,1594
853.353271,1510
853.471069,1544
853.588928,1496
853.706604,1540
853.824402,1530
853.9422,1498
854.059998,1506
854.177734,1502
854.295532,1505
854.413269,1567
854.531006,1519
854.648804,1580
854.766541,1527
854.884277,1538
855.002014,1526
855.119751,1503
855.237549,1515
855.355225,1494
855.473022,1529
855.590698,1521
855.708435,1508
855.826172,1529
855.943848,1515
856.061646,1540
856.179321,1536
856.296997,1532
856.414795,1511
856.53241,1525
856.650085,1588
856.767822,1548
856.885559,1569
857.003174,1577
857.120911,1585
857.238586,1555
857.356201,1555
857.473938,1612
857.591614,1580
857.709351,1553
857.826965,1508
857.944641,1552
858.062317,1563
858.179993,1548
858.297668,1578
858.415283,1591
858.532959,1585
858.650574,1566
858.768188,1586
858.885803,1570
859.003479,1554
859.121094,1536
859.23877,1501
859.356384,1548
859.473999,1521
859.591675,1503
859.709229,1496
859.826843,1489
859.944458,1521
860.062012,1425
860.179626,1448
860.297302,1439
860.414856,1491
860.532471,1481
860.650024,1493
860.767639,1516
860.885193,1509
861.002808,1480
861.120361,1494
861.237976,1467
861.35553,1494
861.473022,1517
861.590698,1485
861.708191,1519
861.825745,1467
861.943298,1545
862.060852,1487
862.178406,1448
862.295959,1468
862.413513,1467
862.531006,1412
862.64856,1424
862.766113,1465
862.883667,1486
863.00116,1459
863.118713,1451
863.236206,1495
863.353699,1412
863.471252,1485
863.588745,1466
863.706177,1494
863.82373,1510
863.941162,1474
864.058716,1493
864.176208,1475
864.29364,1454
864.411194,1492
864.528687,1431
864.646118,1473
864.763611,1417
864.881042,1466
864.998535,1443
865.116028,1419
865.233459,1459
865.350891,1440
865.468384,1492
865.585754,1447
865.703308,1492
865.820679,1451
865.938171,1450
866.055542,1464
866.173035,1493
866.290466,1399
866.407837,1498
866.52533,1438
866.6427,1459
866.760071,1414
866.877563,1500
866.994934,1466
867.112305,1411
867.229736,1450
867.347107,1448
867.464539,1503
867.58197,1486
867.699341,1483
867.81665,1489
867.934082,1432
868.051453,1473
868.168823,1479
868.286194,1454
868.403564,1524
868.520935,1452
868.638306,1454
868.755676,1483
868.872986,1476
868.990295,1507
869.107727,1511
869.225037,1475
869.342346,1530
869.459717,1553
869.577026,1508
869.694336,1550
869.811707,1499
869.929016,1551
870.046326,1558
870.163635,1565
870.280945,1542
870.398254,1540
870.515564,1582
870.632812,1562
870.750183,1593
870.867432,1591
870.984741,1574
871.102051,1557
871.219299,1603
871.336609,1602
871.453918,1606
871.571106,1608
871.688416,1643
871.805664,1629
871.922852,1641
872.040222,1602
872.157471,1589
872.274719,1614
872.391968,1598
872.509155,1653
872.626465,1620
872.743652,1597
872.860962,1610
872.978149,1621
873.095337,1588
873.212646,1579
873.329834,1566
873.44696,1586
873.564209,1562
873.681396,1556
873.798645,1574
873.915894,1599
874.03302,1551
874.150208,1581
874.267456,1608
874.384583,1621
874.501831,1626
874.618958,1666
874.736145,1678
874.853333,1667
874.970459,1647
875.087646,1671
875.204834,1636
875.32196,1602
875.439148,1618
875.556274,1611
875.673401,1607
875.790527,1579
875.907715,1599
876.024841,1593
876.141968,1547
876.259094,1578
876.376282,1535
876.493347,1554
876.610474,1519
876.7276,1523
876.844727,1504
876.961853,1534
877.078918,1553
877.195984,1537
877.313171,1559
877.430237,1498
877.547302,1526
877.664368,1541
877.781433,1525
877.898499,1506
878.015625,1534
878.13269,1493
878.249695,1492
878.366821,1505
878.483887,1489
878.600952,1470
878.717957,1499
878.834961,1492
878.952087,1512
879.069092,1536
879.186157,1508
879.303162,1483
879.420227,1447
879.537231,1500
879.654236,1447
879.77124,1456
879.888306,1439
880.005249,1431
880.122314,1404
880.239319,1448
880.356323,1471
880.473328,1484
880.590271,1426
880.707275,1460
880.824341,1461
880.941284,1445
881.058228,1462
881.175232,1427
881.292236,1398
881.40918,1440
881.526123,1438
881.643066,1494
881.760071,1457
881.877014,1440
881.993958,1449
882.11084,1404
882.227783,1430
882.344727,1509
882.46167,1442
882.578613,1440
882.695618,1459
882.812439,1501
882.929382,1464
883.046326,1453
883.163208,1466
883.280151,1485
883.397034,1433
883.513916,1441
883.630798,1487
883.747742,1443
883.864563,1546
883.981506,1514
884.098389,1483
884.21521,1525
884.332153,1532
884.448975,1550
884.565796,1582
884.682678,1651
884.7995,1660
884.916443,1686
885.033264,1749
885.150085,1834
885.266968,1855
885.383789,1855
885.500671,1885
885.617493,1896
885.734314,1901
885.851196,1820
885.967896,1862
886.084717,1817
886.201599,1821
886.318359,1867
886.435181,1830
886.552002,1805
886.668762,1808
886.785645,1785
886.902344,1745
887.019165,1747
887.135925,1692
887.252747,1677
887.369446,1657
887.486267,1628
887.603027,1621
887.719788,1602
887.836548,1615
887.953247,1577
888.070068,1480
888.186829,1557
888.303528,1522
888.420288,1519
888.536987,1471
888.653687,1481
888.770447,1436
888.887146,1459
889.003967,1431
889.120667,1426
889.237305,1427
889.354065,1450
889.470703,1439
889.587463,1426
889.704163,1434
889.820862,1440
889.937561,1458
890.054199,1445
890.170837,1378
890.287598,1430
890.404236,1431
890.520874,1434
890.637634,1450
890.754211,1417
890.87085,1467
890.987549,1456
891.104187,1491
891.220886,1448
891.337463,1445
891.454102,1469
891.57074,1407
891.687378,1458
891.804077,1467
891.920654,1460
892.037231,1412
892.15387,1475
892.270447,1465
892.387085,1433
892.503723,1460
892.6203,1397
892.736877,1446
892.853516,1429
892.970032,1411
893.08667,1459
893.203186,1457
893.319763,1443
893.43634,1406
893.552917,1466
893.669556,1430
893.786011,1437
893.902588,1431
894.019165,1421
894.135681,1377
894.252197,1426
894.368835,1425
894.485291,1436
894.601868,1429
894.718384,1428
894.8349,1480
894.951355,1452
895.067932,1455
895.184448,1456
895.300964,1442
895.417419,1406
895.533936,1418
895.650452,1471
895.766907,1426
895.883423,1438
895.999878,1415
896.116333,1434
896.232849,1433
896.349304,1460
896.465759,1436
896.582214,1401
896.698669,1432
896.815125,1439
896.931641,1438
897.048035,1478
897.164551,1439
897.280884,1450
897.397339,1428
897.513794,1432
897.630249,1461
897.746582,1445
897.863098,1422
897.979431,1459
898.095886,1413
898.212341,1423
898.328674,1445
898.445129,1448
898.561462,1437
898.677795,1478
898.794312,1472
898.910645,1476
899.026978,1413
899.143433,1476
899.259766,1439
899.37616,1452
899.492493,1457
899.608765,1503
899.725159,1492
899.841553,1443
899.957947,1452
900.07428,1465
900.190552,1443
900.306946,1474
900.423157,1450
900.53949,1447
900.655884,1451
900.772156,1490
900.888489,1429
901.004822,1454
901.121033,1473
901.237366,1460
901.353699,1507
901.46991,1461
901.586304,1531
901.702515,1479
901.818787,1509
901.93512,1541
902.051331,1581
902.167603,1589
902.283875,1616
902.400085,1640
902.516418,1651
902.632629,1662
902.74884,1677
902.865112,1706
902.981384,1667
903.097595,1689
903.213867,1700
903.330017,1644
903.446289,1631
903.5625,1600
903.67865,1635
903.794922,1622
903.911072,1582
904.027344,1595
904.143494,1590
904.259705,1532
904.375916,1550
904.492065,1525
904.608215,1499
904.724426,1501
904.840576,1513
904.956726,1536
905.072876,1517
905.189087,1457
905.305176,1475
905.421387,1493
905.537537,1482
905.653687,1468
905.769775,1512
905.885925,1469
906.002014,1482
906.118164,1454
906.234314,1455
906.350403,1452
906.466492,1447
906.582642,1433
906.69873,1435
906.814758,1502
906.930908,1485
907.046936,1435
907.163086,1460
907.279175,1448
907.395264,1452
907.511353,1438
907.62738,1473
907.743408,1444
907.859497,1423
907.975525,1452
908.091553,1420
908.207703,1448
908.32373,1484
908.439758,1440
908.555786,1406
908.671814,1466
908.787842,1475
908.90387,1421
909.019775,1425
909.135864,1428
909.251892,1460
909.367859,1454
909.483826,1460
909.599854,1451
909.715881,1451
909.831848,1471
909.947815,1469
910.063782,1446
910.179749,1465
910.295776,1471
910.411743,1424
910.527649,1477
910.643616,1472
910.759583,1430
910.875488,1452
910.991455,1442
911.107361,1473
911.223267,1437
911.339294,1433
911.4552,1448
911.571106,1405
911.687073,1481
911.802979,1455
911.918823,1467
912.034729,1469
912.150635,1460
912.266602,1478
912.382446,1449
912.498352,1452
912.614197,1385
912.730103,1447
912.846008,1412
792.44574,3726
792.56488,3567
792.68396,3488
792.80304,3476
792.92218,3341
793.041199,3231
793.160339,3232
793.279419,3158
793.398499,3088
793.517578,3025
793.636658,2925
793.755737,2884
793.874817,2876
793.993896,2968
794.112976,2777
794.232056,2768
794.351074,2691
794.470215,2717
794.589233,2665
794.708313,2615
794.827393,2605
794.946411,2599
795.065552,2600
795.18457,2479
795.303589,2501
795.422668,2452
795.541687,2434
795.660767,2416
795.779846,2424
795.898865,2398
796.017883,2336
796.136963,2305
796.255981,2298
796.375061,2294
796.49408,2231
796.613037,2277
796.732117,2220
796.851135,2238
796.970154,2176
797.089233,2239
797.208191,2177
797.327271,2154
797.446228,2159
797.565186,2136
797.684265,2097
797.803223,2115
797.922241,2115
798.04126,2098
798.160278,2129
798.279297,2080
798.398315,2096
798.517273,2038
798.636292,2075
798.75531,2080
798.874268,2056
798.993286,2074
799.112244,1985
799.231323,2016
799.350281,2032
799.469238,2000
799.588257,2039
799.707153,2036
799.826111,2009
799.945129,2031
800.064087,2007
800.183044,2009
800.302063,2002
800.421021,1972
800.539978,1942
800.658936,1927
800.777893,2006
800.896912,1922
801.015747,1933
801.134705,1944
801.253723,1949
801.37262,1952
801.491638,1890
801.610535,1949
801.729492,1961
801.84845,1895
801.967407,1901
802.086243,1943
802.205261,1919
802.324158,1890
802.443115,1949
802.562073,1877
802.680969,1888
802.799927,1884
802.918762,1843
803.037659,1853
803.156677,1882
803.275574,1867
803.39447,1830
803.513428,1812
803.632263,1854
803.751221,1842
803.870117,1864
803.989014,1846
804.107971,1870
804.226746,1857
804.345642,1799
804.4646,1849
804.583496,1858
804.702393,1857
804.821228,1839
804.940125,1853
805.059021,1832
805.177917,1842
805.296814,1805
805.415649,1812
805.534546,1835
805.653442,1862
805.772278,1840
805.891113,1820
806.01001,1847
806.128906,1833
806.247742,1855
806.366577,1808
806.485413,1830
806.604309,1801
806.723145,1812
806.84198,1775
806.960876,1826
807.079712,1819
807.198486,1795
807.317383,1769
807.436218,1786
807.554993,1787
807.673889,1778
807.792725,1786
807.91156,1831
808.030396,1793
808.14917,1815
808.268005,1775
808.386841,1820
808.505676,1793
808.624451,1802
808.743286,1791
808.862122,1801
808.980896,1763
809.099731,1791
809.218506,1821
809.337341,1843
809.456116,1797
809.57489,1829
809.693726,1787
809.8125,1801
809.931274,1785
810.050049,1821
810.168884,1757
810.287659,1763
810.406372,1733
810.525269,1780
810.643982,1783
810.762756,1758
810.881531,1847
811.000305,1813
811.11908,1763
811.237854,1742
811.356567,1784
811.475403,1794
811.594116,1755
811.71283,1814
811.831604,1778
811.950378,1827
812.069153,1776
812.187927,1836
812.30658,1805
812.425415,1805
812.544128,1806
812.662781,1761
812.781616,1747
812.900269,1769
813.019043,1774
813.137756,1819
813.256531,1795
813.375244,1788
813.493896,1747
813.612671,1795
813.731384,1747
813.850037,1763
813.96875,1757
814.087524,1761
814.206238,1729
814.324951,1774
814.443604,1730
814.562256,1700
814.68103,1756
814.799683,1756
814.918335,1742
815.037109,1771
815.155762,1743
815.274475,1728
815.393188,1753
815.511841,1669
815.630554,1738
815.749146,1663
815.867859,1707
815.986572,1711
816.105164,1710
816.223877,1676
816.342529,1750
816.461182,1733
816.579895,1766
816.698486,1729
816.817139,1747
816.935791,1714
817.054504,1718
817.173096,1716
817.291748,1689
817.4104,1673
817.529053,1701
817.647644,1700
817.766235,1699
817.884949,1694
818.00354,1614
818.122192,1661
818.240845,1628
818.359436,1641
818.478088,1606
818.59668,1639
818.715271,1590
818.833923,1617
818.952515,1578
819.071106,1544
819.189758,1585
819.30835,1552
819.426941,1554
819.545532,1561
819.664124,1542
819.782715,1562
819.901306,1538
820.019897,1561
820.138489,1506
820.25708,1510
820.375671,1558
820.494202,1512
820.612732,1620
820.731384,1543
820.849915,1506
820.968506,1503
821.087097,1531
821.205627,1499
821.324158,1534
821.442749,1500
821.561279,1502
821.679871,1482
821.798401,1451
821.916931,1460
822.035461,1542
822.154053,1493
822.272583,1502
822.391174,1534
822.509583,1475
822.628174,1524
822.746704,1486
822.865234,1442
822.983765,1475
823.102295,1499
823.220825,1514
823.339294,1500
823.457825,1488
823.576355,1455
823.694824,1521
823.813354,1501
823.931885,1482
824.050354,1470
824.168884,1473
824.287354,1535
824.405823,1507
824.524353,1462
824.642822,1489
824.761353,1503
824.879822,1525
824.998291,1499
825.116699,1488
825.235291,1466
825.353699,1514
825.472168,1481
825.590637,1484
825.709106,1484
825.827576,1457
825.946045,1427
826.064453,1499
826.182983,1435
826.301392,1427
826.4198,1428
826.53833,1447
826.656738,1433
826.775208,1424
826.893677,1449
827.012024,1407
827.130493,1448
827.248962,1471
827.36731,1451
827.485779,1460
827.604248,1443
827.722595,1430
827.841064,1428
827.959412,1425
828.077942,1464
828.196289,1411
828.314636,1415
828.433105,1413
828.551514,1402
828.669861,1400
828.78833,1385
828.906677,1432
829.025085,1439
829.143433,1417
829.261841,1422
829.38031,1419
829.498657,1393
829.617004,1392
829.735413,1428
829.85376,1410
829.972107,1441
830.090515,1403
830.208862,1465
830.327209,1380
830.445557,1431
830.563904,1419
830.682312,1444
830.800659,1436
830.919006,1470
831.037354,1444
831.155701,1516
831.274048,1427
831.392395,1450
831.51062,1459
831.629028,1401
831.747314,1442
831.865662,1420
831.984009,1490
832.102356,1463
832.220642,1423
832.338928,1497
832.457275,1445
832.575623,1443
832.693909,1448
832.812134,1465
832.930481,1473
833.048828,1472
833.167114,1445
833.2854,1467
833.403687,1444
833.521973,1425
833.640259,1433
833.758545,1438
833.876831,1486
833.995056,1450
834.113281,1396
834.231628,1464
834.349915,1426
834.468201,1423
834.586426,1447
834.704651,1475
834.822998,1449
834.941162,1450
835.059448,1470
835.177673,1458
835.295959,1476
835.414246,1458
835.53241,1439
835.650635,1446
835.768921,1443
835.887146,1447
836.005371,1439
836.123596,1429
836.241821,1445
836.360046,1403
836.478271,1439
836.596497,1460
836.714722,1451
836.832886,1420
836.95105,1396
837.069336,1463
837.1875,1442
837.305725,1450
837.423889,1426
837.542053,1438
837.660339,1413
837.778503,1449
837.896667,1450
838.014832,1411
838.132996,1484
838.25116,1451
838.369385,1484
838.487488,1457
838.605713,1478
838.723877,1466
838.84198,1472
838.960205,1475
839.078308,1436
839.196472,1481
839.314636,1433
839.4328,1455
839.550964,1444
839.669067,1499
839.787231,1511
839.905396,1508
840.023499,1452
840.141602,1519
840.259766,1568
840.377869,1514
840.495972,1483
840.614136,1526
840.732239,1504
840.850342,1568
840.968445,1508
841.086548,1544
841.204651,1561
841.322754,1550
841.440918,1548
841.55896,1589
841.677002,1546
841.795166,1529
841.913208,1583
842.031311,1533
842.149353,1553
842.267456,1535
842.385498,1525
842.503601,1572
842.621643,1526
842.739746,1515
842.857788,1579
842.97583,1538
843.093933,1546
843.211975,1591
843.330017,1526
843.44812,1571
843.566101,1583
843.684204,1524
843.802246,1541
843.920227,1587
844.038269,1574
844.156311,1550
844.274292,1554
844.392395,1525
844.510376,1547
844.628357,1526
844.74646,1542
844.864441,1538
844.982422,1475
845.100403,1532
845.218384,1529
845.336426,1515
845.454468,1561
845.572449,1492
845.69043,1495
845.808411,1498
845.926453,1471
846.044373,1490
846.162354,1521
846.280396,1477
846.398315,1481
846.516296,1523
846.634216,1510
846.752197,1538
846.870178,1515
846.988098,1508
847.106079,1554
847.22406,1519
847.34198,1498
847.4599,1552
847.577881,1542
847.695801,1497
847.813782,1536
847.931641,1508
848.049561,1502
848.167603,1472
848.285461,1494
848.403381,1532
848.521362,1499
848.639221,1530
848.75708,1503
848.875,1608
848.99292,1557
849.110901,1585
849.22876,1581
849.34668,1527
849.464539,1530
849.582458,1561
849.700317,1532
849.818176,1503
849.936096,1551
850.053955,1599
850.171875,1579
850.289673,1539
850.407593,1590
850.525452,1556
850.643311,1546
850.761169,1550
850.878967,1546
850.996887,1519
851.114746,1522
851.232544,1534
851.350403,1490
851.468262,1552
851.58606,1539
851.703979,1565
851.821777,1483
851.939636,1541
852.057434,1510
852.175232,1560
852.293091,1567
852.410889,1600
852.528687,1616
852.646545,1665
852.764343,1627
852.88208,1653
852.999939,1638
853.117676,1556
853.235535,1559
853.353271,1583
853.471069,1535
853.588928,1533
853.706604,1540
853.824402,1549
853.9422,1528
854.059998,1494
854.177734,1526
854.295532,1580
854.413269,1592
854.531006,1554
854.648804,1545
854.766541,1547
854.884277,1554
855.002014,1536
855.119751,1532
855.237549,1500
855.355225,1498
855.473022,1536
855.590698,1513
855.708435,1507
855.826172,1556
855.943848,1534
856.061646,1548
856.179321,1508
856.296997,1479
856.414795,1544
856.53241,1558
856.650085,1525
856.767822,1551
856.885559,1627
857.003174,1608
857.120911,1580
857.238586,1598
857.356201,1587
857.473938,1576
857.591614,1546
857.709351,1612
857.826965,1565
857.944641,1602
858.062317,1561
858.179993,1603
858.297668,1597
858.415283,1563
858.532959,1581
858.650574,1553
858.768188,1584
858.885803,1580
859.003479,1601
859.121094,1555
859.23877,1583
859.356384,1556
859.473999,1507
859.591675,1528
859.709229,1552
859.826843,1502
859.944458,1507
860.062012,1485
860.179626,1507
860.297302,1519
860.414856,1487
860.532471,1521
860.650024,1536
860.767639,1505
860.885193,1502
861.002808,1523
861.120361,1510
861.237976,1516
861.35553,1503
861.473022,1490
861.590698,1544
861.708191,1530
861.825745,1511
861.943298,1492
862.060852,1491
862.178406,1508
862.295959,1488
862.413513,1440
862.531006,1443
862.64856,1445
862.766113,1404
862.883667,1461
863.00116,1492
863.118713,1483
863.236206,1520
863.353699,1466
863.471252,1443
863.588745,1511
863.706177,1530
863.82373,1452
863.941162,1491
864.058716,1539
864.176208,1483
864.29364,1465
864.411194,1485
864.528687,1500
864.646118,1490
864.763611,1451
864.881042,1480
864.998535,1466
865.116028,1532
865.233459,1526
865.350891,1485
865.468384,1498
865.585754,1495
865.703308,1489
865.820679,1461
865.938171,1505
866.055542,1483
866.173035,1486
866.290466,1472
866.407837,1438
866.52533,1492
866.6427,1467
866.760071,1473
866.877563,1449
866.994934,1494
867.112305,1483
867.229736,1517
867.347107,1497
867.464539,1504
867.58197,1537
867.699341,1488
867.81665,1516
867.934082,1487
868.051453,1506
868.168823,1486
868.286194,1512
868.403564,1489
868.520935,1487
868.638306,1529
868.755676,1506
868.872986,1478
868.990295,1517
869.107727,1503
869.225037,1512
869.342346,1490
869.459717,1492
869.577026,1523
869.694336,1495
869.811707,1515
869.929016,1563
870.046326,1555
870.163635,1572
870.280945,1590
870.398254,1532
870.515564,1559
870.632812,1595
870.750183,1638
870.867432,1576
870.984741,1596
871.102051,1609
871.219299,1609
871.336609,1604
871.453918,1676
871.571106,1619
871.688416,1629
871.805664,1668
871.922852,1624
872.040222,1664
872.157471,1624
872.274719,1653
872.391968,1692
872.509155,1694
872.626465,1673
872.743652,1639
872.860962,1637
872.978149,1603
873.095337,1645
873.212646,1629
873.329834,1578
873.44696,1631
873.564209,1547
873.681396,1572
873.798645,1602
873.915894,1623
874.03302,1638
874.150208,1640
874.267456,1637
874.384583,1635
874.501831,1665
874.618958,1695
874.736145,1708
874.853333,1704
874.970459,1650
875.087646,1636
875.204834,1682
875.32196,1664
875.439148,1660
875.556274,1595
875.673401,1638
875.790527,1576
875.907715,1641
876.024841,1557
876.141968,1580
876.259094,1597
876.376282,1596
876.493347,1551
876.610474,1571
876.7276,1535
876.844727,1578
876.961853,1561
877.078918,1572
877.195984,1568
877.313171,1559
877.430237,1521
877.547302,1583
877.664368,1542
877.781433,1569
877.898499,1545
878.015625,1540
878.13269,1512
878.249695,1531
878.366821,1551
878.483887,1553
878.600952,1519
878.717957,1539
878.834961,1485
878.952087,1537
879.069092,1477
879.186157,1497
879.303162,1496
879.420227,1484
879.537231,1501
879.654236,1500
879.77124,1472
879.888306,1484
880.005249,1490
880.122314,1475
880.239319,1484
880.356323,1511
880.473328,1470
880.590271,1447
880.707275,1509
880.824341,1443
880.941284,1463
881.058228,1497
881.175232,1473
881.292236,1501
881.40918,1439
881.526123,1497
881.643066,1435
881.760071,1451
881.877014,1503
881.993958,1429
882.11084,1483
882.227783,1456
882.344727,1463
882.46167,1532
882.578613,1444
882.695618,1506
882.812439,1446
882.929382,1443
883.046326,1446
883.163208,1478
883.280151,1527
883.397034,1496
883.513916,1428
883.630798,1481
883.747742,1534
883.864563,1526
883.981506,1493
884.098389,1495
884.21521,1539
884.332153,1578
884.448975,1578
884.565796,1585
884.682678,1654
884.7995,1676
884.916443,1710
885.033264,1751
885.150085,1832
885.266968,1865
885.383789,1905
885.500671,1927
885.617493,1960
885.734314,1909
885.851196,1860
885.967896,1885
886.084717,1833
886.201599,1881
886.318359,1825
886.435181,1821
886.552002,1820
886.668762,1800
886.785645,1846
886.902344,1777
887.019165,1793
887.135925,1767
887.252747,1748
887.369446,1703
887.486267,1680
887.603027,1616
887.719788,1598
887.836548,1614
887.953247,1615
888.070068,1565
888.186829,1503
888.303528,1573
888.420288,1529
888.536987,1482
888.653687,1492
888.770447,1480
888.887146,1486
889.003967,1462
889.120667,1442
889.237305,1461
889.354065,1465
889.470703,1442
889.587463,1433
889.704163,1486
889.820862,1457
889.937561,1439
890.054199,1472
890.170837,1416
890.287598,1452
890.404236,1452
890.520874,1435
890.637634,1472
890.754211,1474
890.87085,1436
890.987549,1495
891.104187,1514
891.220886,1516
891.337463,1449
891.454102,1529
891.57074,1469
891.687378,1480
891.804077,1433
891.920654,1436
892.037231,1480
892.15387,1454
892.270447,1490
892.387085,1491
892.503723,1486
892.6203,1461
892.736877,1458
892.853516,1460
892.970032,1488
893.08667,1443
893.203186,1436
893.319763,1427
893.43634,1442
893.552917,1465
893.669556,1453
893.786011,1445
893.902588,1493
894.019165,1492
894.135681,1482
894.252197,1436
894.368835,1473
894.485291,1481
894.601868,1416
894.718384,1496
894.8349,1485
894.951355,1463
895.067932,1448
895.184448,1470
895.300964,1445
895.417419,1475
895.533936,1424
895.650452,1487
895.766907,1452
895.883423,1436
895.999878,1441
896.116333,1484
896.232849,1468
896.349304,1482
896.465759,1449
896.582214,1422
896.698669,1482
896.815125,1464
896.931641,1468
897.048035,1436
897.164551,1432
897.280884,1489
897.397339,1454
897.513794,1497
897.630249,1493
897.746582,1440
897.863098,1426
897.979431,1485
898.095886,1471
898.212341,1486
898.328674,1491
898.445129,1503
898.561462,1509
898.677795,1502
898.794312,1467
898.910645,1504
899.026978,1485
899.143433,1521
899.259766,1435
899.37616,1465
899.492493,1455
899.608765,1464
899.725159,1436
899.841553,1481
899.957947,1437
900.07428,1466
900.190552,1541
900.306946,1513
900.423157,1472
900.53949,1483
900.655884,1482
900.772156,1479
900.888489,1505
901.004822,1494
901.121033,1510
901.237366,1469
901.353699,1480
901.46991,1513
901.586304,1560
901.702515,1562
901.818787,1540
901.93512,1526
902.051331,1617
902.167603,1576
902.283875,1632
902.400085,1629
902.516418,1688
902.632629,1719
902.74884,1683
902.865112,1726
902.981384,1718
903.097595,1693
903.213867,1695
903.330017,1653
903.446289,1710
903.5625,1628
903.67865,1649
903.794922,1637
903.911072,1622
904.027344,1608
904.143494,1578
904.259705,1610
904.375916,1572
904.492065,1569
904.608215,1552
904.724426,1544
904.840576,1531
904.956726,1549
905.072876,1527
905.189087,1500
905.305176,1481
905.421387,1509
905.537537,1536
905.653687,1464
905.769775,1512
905.885925,1463
906.002014,1522
906.118164,1500
906.234314,1449
906.350403,1421
906.466492,1496
906.582642,1469
906.69873,1491
906.814758,1482
906.930908,1442
907.046936,1475
907.163086,1458
907.279175,1496
907.395264,1472
907.511353,1483
907.62738,1444
907.743408,1482
907.859497,1500
907.975525,1476
908.091553,1489
908.207703,1476
908.32373,1487
908.439758,1474
908.555786,1455
908.671814,1454
908.787842,1467
908.90387,1470
909.019775,1490
909.135864,1477
909.251892,1472
909.367859,1556
909.483826,1498
909.599854,1510
909.715881,1450
909.831848,1476
909.947815,1481
910.063782,1489
910.179749,1503
910.295776,1480
910.411743,1522
910.527649,1483
910.643616,1546
910.759583,1531
910.875488,1477
910.991455,1530
911.107361,1502
911.223267,1480
911.339294,1455
911.4552,1497
911.571106,1478
911.687073,1475
911.802979,1462
911.918823,1453
912.034729,1471
912.150635,1480
912.266602,1468
912.382446,1432
912.498352,1476
912.614197,1449
912.730103,1485
912.846008,1449
792.44574,3742
792.56488,3596
792.68396,3529
792.80304,3437
792.92218,3285
793.041199,3272
793.160339,3261
793.279419,3108
793.398499,3055
793.517578,3012
793.636658,2979
793.755737,3007
793.874817,2883
793.993896,2874
794.112976,2818
794.232056,2783
794.351074,2701
794.470215,2733
794.589233,2719
794.708313,2625
794.827393,2612
794.946411,2558
795.065552,2514
795.18457,2536
795.303589,2523
795.422668,2479
795.541687,2443
795.660767,2376
795.779846,2333
795.898865,2300
796.017883,2373
796.136963,2363
796.255981,2281
796.375061,2313
796.49408,2330
796.613037,2331
796.732117,2279
796.851135,2251
796.970154,2254
797.089233,2223
797.208191,2166
797.327271,2173
797.446228,2180
797.565186,2116
797.684265,2164
797.803223,2129
797.922241,2100
798.04126,2096
798.160278,2084
798.279297,2119
798.398315,2145
798.517273,2023
798.636292,2049
798.75531,2059
798.874268,2083
798.993286,2093
799.112244,2013
799.231323,2061
799.350281,2077
799.469238,2055
799.588257,2037
799.707153,2017
799.826111,2037
799.945129,2029
800.064087,2021
800.183044,2031
800.302063,1970
800.421021,1985
800.539978,2001
800.658936,1999
800.777893,1994
800.896912,1959
801.015747,1989
801.134705,1919
801.253723,1966
801.37262,1950
801.491638,1914
801.610535,1924
801.729492,1967
801.84845,1902
801.967407,1961
802.086243,1904
802.205261,1914
802.324158,1883
802.443115,1939
802.562073,1848
802.680969,1936
802.799927,1897
802.918762,1918
803.037659,1890
803.156677,1913
803.275574,1893
803.39447,1917
803.513428,1852
803.632263,1868
803.751221,1889
803.870117,1827
803.989014,1864
804.107971,1859
804.226746,1920
804.345642,1856
804.4646,1805
804.583496,1891
804.702393,1859
804.821228,1840
804.940125,1845
805.059021,1860
805.177917,1847
805.296814,1783
805.415649,1811
805.534546,1808
805.653442,1788
805.772278,1821
805.891113,1861
806.01001,1810
806.128906,1801
806.247742,1825
806.366577,1823
806.485413,1814
806.604309,1801
806.723145,1802
806.84198,1835
806.960876,1773
807.079712,1802
807.198486,1765
807.317383,1842
807.436218,1819
807.554993,1778
807.673889,1801
807.792725,1794
807.91156,1828
808.030396,1742
808.14917,1786
808.268005,1776
808.386841,1796
808.505676,1782
808.624451,1784
808.743286,1792
808.862122,1829
808.980896,1813
809.099731,1807
809.218506,1853
809.337341,1788
809.456116,1814
809.57489,1801
809.693726,1799
809.8125,1831
809.931274,1767
810.050049,1813
810.168884,1786
810.287659,1770
810.406372,1772
810.525269,1789
810.643982,1755
810.762756,1769
810.881531,1785
811.000305,1841
811.11908,1786
811.237854,1811
811.356567,1763
811.475403,1819
811.594116,1765
811.71283,1788
811.831604,1821
811.950378,1807
812.069153,1761
812.187927,1775
812.30658,1857
812.425415,1831
812.544128,1793
812.662781,1813
812.781616,1868
812.900269,1819
813.019043,1821
813.137756,1793
813.256531,1829
813.375244,1830
813.493896,1766
813.612671,1802
813.731384,1794
813.850037,1800
813.96875,1784
814.087524,1802
814.206238,1739
814.324951,1749
814.443604,1761
814.562256,1743
814.68103,1822
814.799683,1801
814.918335,1718
815.037109,1764
815.155762,1723
815.274475,1716
815.393188,1754
815.511841,1731
815.630554,1743
815.749146,1767
815.867859,1683
815.986572,1722
816.105164,1697
816.223877,1693
816.342529,1716
816.461182,1735
816.579895,1768
816.698486,1728
816.817139,1745
816.935791,1749
817.054504,1733
817.173096,1708
817.291748,1743
817.4104,1712
817.529053,1710
817.647644,1720
817.766235,1718
817.884949,1661
818.00354,1590
818.122192,1649
818.240845,1665
818.359436,1604
818.478088,1580
818.59668,1640
818.715271,1609
818.833923,1602
818.952515,1643
819.071106,1598
819.189758,1580
819.30835,1612
819.426941,1576
819.545532,1548
819.664124,1565
819.782715,1583
819.901306,1578
820.019897,1517
820.138489,1568
820.25708,1535
820.375671,1518
820.494202,1564
820.612732,1594
820.731384,1569
820.849915,1557
820.968506,1551
821.087097,1515
821.205627,1513
821.324158,1534
821.442749,1548
821.561279,1526
821.679871,1546
821.798401,1569
821.916931,1493
822.035461,1507
822.154053,1526
822.272583,1547
822.391174,1520
822.509583,1477
822.628174,1504
822.746704,1521
822.865234,1507
822.983765,1508
823.102295,1498
823.220825,1492
823.339294,1541
823.457825,1500
823.576355,1481
823.694824,1593
823.813354,1517
823.931885,1506
824.050354,1490
824.168884,1529
824.287354,1526
824.405823,1523
824.524353,1453
824.642822,1548
824.761353,1521
824.879822,1532
824.998291,1532
825.116699,1511
825.235291,1500
825.353699,1481
825.472168,1488
825.590637,1524
825.709106,1487
825.827576,1488
825.946045,1458
826.064453,1488
826.182983,1464
826.301392,1499
826.4198,1430
826.53833,1467
826.656738,1483
826.775208,1461
826.893677,1453
827.012024,1436
827.130493,1487
827.248962,1493
827.36731,1484
827.485779,1474
827.604248,1474
827.722595,1427
827.841064,1457
827.959412,1458
828.077942,1462
828.196289,1433
828.314636,1442
828.433105,1410
828.551514,1420
828.669861,1493
828.78833,1430
828.906677,1445
829.025085,1399
829.143433,1441
829.261841,1406
829.38031,1467
829.498657,1416
829.617004,1429
829.735413,1445
829.85376,1423
829.972107,1407
830.090515,1468
830.208862,1414
830.327209,1431
830.445557,1412
830.563904,1452
830.682312,1418
830.800659,1443
830.919006,1495
831.037354,1442
831.155701,1483
831.274048,1480
831.392395,1483
831.51062,1488
831.629028,1415
831.747314,1464
831.865662,1423
831.984009,1480
832.102356,1491
832.220642,1467
832.338928,1533
832.457275,1500
832.575623,1499
832.693909,1474
832.812134,1450
832.930481,1471
833.048828,1461
833.167114,1496
833.2854,1469
833.403687,1463
833.521973,1470
833.640259,1385
833.758545,1454
833.876831,1454
833.995056,1445
834.113281,1493
834.231628,1523
834.349915,1436
834.468201,1436
834.586426,1449
834.704651,1466
834.822998,1446
834.941162,1450
835.059448,1475
835.177673,1473
835.295959,1438
835.414246,1437
835.53241,1475
835.650635,1477
835.768921,1456
835.887146,1506
836.005371,1476
836.123596,1456
836.241821,1449
836.360046,1464
836.478271,1401
836.596497,1464
836.714722,1447
836.832886,1445
836.95105,1464
837.069336,1464
837.1875,1443
837.305725,1449
837.423889,1477
837.542053,1456
837.660339,1447
837.778503,1470
837.896667,1458
838.014832,1462
838.132996,1464
838.25116,1479
838.369385,1495
838.487488,1486
838.605713,1487
838.723877,1433
838.84198,1456
838.960205,1492
839.078308,1479
839.196472,1469
839.314636,1461
839.4328,1479
839.550964,1476
839.669067,1503
839.787231,1511
839.905396,1519
840.023499,1565
840.141602,1557
840.259766,1528
840.377869,1509
840.495972,1563
840.614136,1515
840.732239,1542
840.850342,1578
840.968445,1554
841.086548,1557
841.204651,1575
841.322754,1506
841.440918,1557
841.55896,1571
841.677002,1556
841.795166,1557
841.913208,1550
842.031311,1587
842.149353,1559
842.267456,1578
842.385498,1556
842.503601,1592
842.621643,1572
842.739746,1569
842.857788,1518
842.97583,1564
843.093933,1576
843.211975,1549
843.330017,1564
843.44812,1557
843.566101,1554
843.684204,1532
843.802246,1538
843.920227,1587
844.038269,1545
844.156311,1604
844.274292,1537
844.392395,1564
844.510376,1594
844.628357,1497
844.74646,1518
844.864441,1563
844.982422,1523
845.100403,1558
845.218384,1515
845.336426,1498
845.454468,1522
845.572449,1554
845.69043,1512
845.808411,1496
845.926453,1523
846.044373,1541
846.162354,1505
846.280396,1519
846.398315,1521
846.516296,1535
846.634216,1519
846.752197,1539
846.870178,1548
846.988098,1535
847.106079,1516
847.22406,1523
847.34198,1504
847.4599,1540
847.577881,1557
847.695801,1544
847.813782,1495
847.931641,1536
848.049561,1547
848.167603,1519
848.285461,1529
848.403381,1568
848.521362,1501
848.639221,1525
848.75708,1534
848.875,1521
848.99292,1566
849.110901,1544
849.22876,1548
849.34668,1579
849.464539,1601
849.582458,1574
849.700317,1541
849.818176,1545
849.936096,1561
850.053955,1543
850.171875,1580
850.289673,1562
850.407593,1598
850.525452,1565
850.643311,1543
850.761169,1568
850.878967,1532
850.996887,1530
851.114746,1503
851.232544,1531
851.350403,1530
851.468262,1568
851.58606,1541
851.703979,1514
851.821777,1562
851.939636,1563
852.057434,1545
852.175232,1551
852.293091,1577
852.410889,1585
852.528687,1649
852.646545,1648
852.764343,1667
852.88208,1635
852.999939,1579
853.117676,1588
853.235535,1568
853.353271,1568
853.471069,1601
853.588928,1543
853.706604,1571
853.824402,1541
853.9422,1528
854.059998,1565
854.177734,1553
854.295532,1576
854.413269,1597
854.531006,1563
854.648804,1567
854.766541,1553
854.884277,1534
855.002014,1554
855.119751,1509
855.237549,1540
855.355225,1558
855.473022,1512
855.590698,1509
855.708435,1504
855.826172,1525
855.943848,1569
856.061646,1549
856.179321,1563
856.296997,1548
856.414795,1557
856.53241,1563
856.650085,1548
856.767822,1596
856.885559,1651
857.003174,1624
857.120911,1600
857.238586,1610
857.356201,1585
857.473938,1594
857.591614,1601
857.709351,1587
857.826965,1586
857.944641,1555
858.062317,1638
858.179993,1644
858.297668,1598
858.415283,1583
858.532959,1606
858.650574,1565
858.768188,1595
858.885803,1608
859.003479,1588
859.121094,1566
859.23877,1550
859.356384,1589
859.473999,1590
859.591675,1545
859.709229,1580
859.826843,1565
859.944458,1496
860.062012,1525
860.179626,1540
860.297302,1538
860.414856,1511
860.532471,1502
860.650024,1436
860.767639,1484
860.885193,1507
861.002808,1518
861.120361,1497
861.237976,1507
861.35553,1552
861.473022,1529
861.590698,1513
861.708191,1559
861.825745,1516
861.943298,1530
862.060852,1499
862.178406,1489
862.295959,1515
862.413513,1470
862.531006,1500
862.64856,1483
862.766113,1499
862.883667,1520
863.00116,1448
863.118713,1495
863.236206,1486
863.353699,1533
863.471252,1474
863.588745,1459
863.706177,1532
863.82373,1499
863.941162,1508
864.058716,1538
864.176208,1500
864.29364,1500
864.411194,1500
864.528687,1530
864.646118,1491
864.763611,1482
864.881042,1495
864.998535,1509
865.116028,1476
865.233459,1499
865.350891,1464
865.468384,1482
865.585754,1481
865.703308,1505
865.820679,1491
865.938171,1504
866.055542,1475
866.173035,1490
866.290466,1480
866.407837,1506
866.52533,1456
866.6427,1535
866.760071,1512
866.877563,1470
866.994934,1535
867.112305,1453
867.229736,1524
867.347107,1496
867.464539,1487
867.58197,1519
867.699341,1520
867.81665,1532
867.934082,1487
868.051453,1513
868.168823,1472
868.286194,1502
868.403564,1486
868.520935,1514
868.638306,1509
868.755676,1508
868.872986,1521
868.990295,1543
869.107727,1545
869.225037,1519
869.342346,1522
869.459717,1547
869.577026,1523
869.694336,1563
869.811707,1568
869.929016,1602
870.046326,1537
870.163635,1597
870.280945,1579
870.398254,1598
870.515564,1611
870.632812,1603
870.750183,1606
870.867432,1580
870.984741,1624
871.102051,1647
871.219299,1658
871.336609,1629
871.453918,1639
871.571106,1675
871.688416,1676
871.805664,1690
871.922852,1634
872.040222,1693
872.157471,1660
872.274719,1646
872.391968,1645
872.509155,1702
872.626465,1652
872.743652,1640
872.860962,1622
872.978149,1593
873.095337,1647
873.212646,1608
873.329834,1621
873.44696,1647
873.564209,1604
873.681396,1611
873.798645,1601
873.915894,1630
874.03302,1639
874.150208,1635
874.267456,1601
874.384583,1686
874.501831,1678
874.618958,1718
874.736145,1718
874.853333,1684
874.970459,1678
875.087646,1723
875.204834,1632
875.32196,1674
875.439148,1671
875.556274,1598
875.673401,1608
875.790527,1637
875.907715,1587
876.024841,1593
876.141968,1587
876.259094,1557
876.376282,1566
876.493347,1537
876.610474,1575
876.7276,1614
876.844727,1612
876.961853,1568
877.078918,1603
877.195984,1549
877.313171,1535
877.430237,1541
877.547302,1551
877.664368,1585
877.781433,1539
877.898499,1531
878.015625,1540
878.13269,1521
878.249695,1542
878.366821,1519
878.483887,1530
878.600952,1503
878.717957,1569
878.834961,1547
878.952087,1509
879.069092,1493
879.186157,1491
879.303162,1541
879.420227,1506
879.537231,1493
879.654236,1516
879.77124,1464
879.888306,1498
880.005249,1466
880.122314,1477
880.239319,1473
880.356323,1441
880.473328,1500
880.590271,1460
880.707275,1514
880.824341,1504
880.941284,1479
881.058228,1436
881.175232,1492
881.292236,1464
881.40918,1420
881.526123,1474
881.643066,1480
881.760071,1470
881.877014,1486
881.993958,1524
882.11084,1478
882.227783,1486
882.344727,1455
882.46167,1471
882.578613,1480
882.695618,1501
882.812439,1473
882.929382,1447
883.046326,1506
883.163208,1512
883.280151,1526
883.397034,1474
883.513916,1521
883.630798,1505
883.747742,1512
883.864563,1509
883.981506,1528
884.098389,1523
884.21521,1575
884.332153,1542
884.448975,1567
884.565796,1611
884.682678,1651
884.7995,1672
884.916443,1755
885.033264,1799
885.150085,1815
885.266968,1874
885.383789,1907
885.500671,1901
885.617493,1923
885.734314,1914
885.851196,1893
885.967896,1887
886.084717,1837
886.201599,1891
886.318359,1849
886.435181,1800
886.552002,1848
886.668762,1817
886.785645,1780
886.902344,1777
887.019165,1722
887.135925,1734
887.252747,1746
887.369446,1701
887.486267,1659
887.603027,1680
887.719788,1667
887.836548,1599
887.953247,1634
888.070068,1579
888.186829,1541
888.303528,1553
888.420288,1517
888.536987,1463
888.653687,1514
888.770447,1480
888.887146,1474
889.003967,1506
889.120667,1463
889.237305,1477
889.354065,1439
889.470703,1438
889.587463,1444
889.704163,1479
889.820862,1431
889.937561,1482
890.054199,1445
890.170837,1441
890.287598,1459
890.404236,1444
890.520874,1460
890.637634,1442
890.754211,1490
890.87085,1466
890.987549,1472
891.104187,1497
891.220886,1464
891.337463,1492
891.454102,1488
891.57074,1503
891.687378,1486
891.804077,1460
891.920654,1449
892.037231,1490
892.15387,1512
892.270447,1486
892.387085,1525
892.503723,1510
892.6203,1475
892.736877,1487
892.853516,1482
892.970032,1496
893.08667,1481
893.203186,1439
893.319763,1463
893.43634,1496
893.552917,1471
893.669556,1492
893.786011,1509
893.902588,1462
894.019165,1435
894.135681,1442
894.252197,1490
894.368835,1506
894.485291,1481
894.601868,1502
894.718384,1495
894.8349,1511
894.951355,1473
895.067932,1465
895.184448,1454
895.300964,1476
895.417419,1467
895.533936,1486
895.650452,1462
895.766907,1477
895.883423,1457
895.999878,1489
896.116333,1444
896.232849,1468
896.349304,1463
896.465759,1477
896.582214,1509
896.698669,1458
896.815125,1481
896.931641,1485
897.048035,1446
897.164551,1453
897.280884,1486
897.397339,1466
897.513794,1455
897.630249,1498
897.746582,1488
897.863098,1467
897.979431,1458
898.095886,1488
898.212341,1502
898.328674,1504
898.445129,1488
898.561462,1501
898.677795,1536
898.794312,1470
898.910645,1482
899.026978,1495
899.143433,1505
899.259766,1465
899.37616,1490
899.492493,1500
899.608765,1539
899.725159,1506
899.841553,1537
899.957947,1495
900.07428,1499
900.190552,1506
900.306946,1513
900.423157,1499
900.53949,1518
900.655884,1506
900.772156,1537
900.888489,1505
901.004822,1511
901.121033,1530
901.237366,1525
901.353699,1530
901.46991,1498
901.586304,1564
901.702515,1529
901.818787,1585
901.93512,1589
902.051331,1628
902.167603,1636
902.283875,1643
902.400085,1669
902.516418,1680
902.632629,1745
902.74884,1679
902.865112,1742
902.981384,1725
903.097595,1735
903.213867,1724
903.330017,1756
903.446289,1656
903.5625,1667
903.67865,1638
903.794922,1636
903.911072,1660
904.027344,1630
904.143494,1610
904.259705,1592
904.375916,1615
904.492065,1552
904.608215,1551
904.724426,1495
904.840576,1525
904.956726,1535
905.072876,1586
905.189087,1486
905.305176,1524
905.421387,1479
905.537537,1486
905.653687,1534
905.769775,1529
905.885925,1480
906.002014,1523
906.118164,1501
906.234314,1464
906.350403,1504
906.466492,1512
906.582642,1470
906.69873,1485
906.814758,1474
906.930908,1485
907.046936,1495
907.163086,1483
907.279175,1496
907.395264,1483
907.511353,1472
907.62738,1463
907.743408,1496
907.859497,1508
907.975525,1485
908.091553,1491
908.207703,1476
908.32373,1481
908.439758,1491
908.555786,1483
908.671814,1488
908.787842,1484
908.90387,1472
909.019775,1464
909.135864,1465
909.251892,1506
909.367859,1514
909.483826,1473
909.599854,1515
909.715881,1486
909.831848,1493
909.947815,1521
910.063782,1508
910.179749,1525
910.295776,1513
910.411743,1488
910.527649,1544
910.643616,1503
910.759583,1473
910.875488,1492
910.991455,1454
911.107361,1527
911.223267,1475
911.339294,1507
911.4552,1513
911.571106,1480
911.687073,1507
911.802979,1484
911.918823,1459
912.034729,1455
912.150635,1513
912.266602,1525
912.382446,1488
912.498352,1512
912.614197,1499
912.730103,1461
912.846008,1449
