792.44574,1702
792.56488,1675
792.68396,1654
792.80304,1642
792.92218,1563
793.041199,1591
793.160339,1570
793.279419,1577
793.398499,1567
793.517578,1618
793.636658,1552
793.755737,1580
793.874817,1532
793.993896,1573
794.112976,1555
794.232056,1560
794.351074,1569
794.470215,1536
794.589233,1542
794.708313,1533
794.827393,1545
794.946411,1536
795.065552,1541
795.18457,1529
795.303589,1493
795.422668,1523
795.541687,1520
795.660767,1483
795.779846,1507
795.898865,1520
796.017883,1485
796.136963,1524
796.255981,1521
796.375061,1487
796.49408,1490
796.613037,1515
796.732117,1524
796.851135,1508
796.970154,1500
797.089233,1446
797.208191,1482
797.327271,1469
797.446228,1462
797.565186,1449
797.684265,1457
797.803223,1494
797.922241,1457
798.04126,1505
798.160278,1433
798.279297,1502
798.398315,1498
798.517273,1471
798.636292,1474
798.75531,1480
798.874268,1469
798.993286,1480
799.112244,1457
799.231323,1462
799.350281,1491
799.469238,1422
799.588257,1479
799.707153,1428
799.826111,1471
799.945129,1455
800.064087,1491
800.183044,1428
800.302063,1476
800.421021,1464
800.539978,1471
800.658936,1455
800.777893,1439
800.896912,1451
801.015747,1445
801.134705,1447
801.253723,1432
801.37262,1441
801.491638,1497
801.610535,1486
801.729492,1436
801.84845,1426
801.967407,1425
802.086243,1420
802.205261,1486
802.324158,1441
802.443115,1419
802.562073,1476
802.680969,1438
802.799927,1453
802.918762,1452
803.037659,1439
803.156677,1437
803.275574,1461
803.39447,1427
803.513428,1418
803.632263,1460
803.751221,1476
803.870117,1425
803.989014,1438
804.107971,1424
804.226746,1469
804.345642,1439
804.4646,1425
804.583496,1414
804.702393,1458
804.821228,1418
804.940125,1437
805.059021,1410
805.177917,1429
805.296814,1458
805.415649,1451
805.534546,1429
805.653442,1421
805.772278,1466
805.891113,1450
806.01001,1440
806.128906,1430
806.247742,1444
806.366577,1385
806.485413,1444
806.604309,1439
806.723145,1434
806.84198,1435
806.960876,1425
807.079712,1434
807.198486,1493
807.317383,1428
807.436218,1441
807.554993,1397
807.673889,1427
807.792725,1453
807.91156,1442
808.030396,1460
808.14917,1427
808.268005,1452
808.386841,1451
808.505676,1421
808.624451,1389
808.743286,1424
808.862122,1415
808.980896,1489
809.099731,1423
809.218506,1441
809.337341,1434
809.456116,1430
809.57489,1454
809.693726,1440
809.8125,1455
809.931274,1480
810.050049,1436
810.168884,1429
810.287659,1446
810.406372,1402
810.525269,1436
810.643982,1394
810.762756,1424
810.881531,1451
811.000305,1415
811.11908,1417
811.237854,1407
811.356567,1417
811.475403,1459
811.594116,1413
811.71283,1439
811.831604,1393
811.950378,1454
812.069153,1424
812.187927,1416
812.30658,1441
812.425415,1472
812.544128,1446
812.662781,1414
812.781616,1368
812.900269,1408
813.019043,1404
813.137756,1395
813.256531,1403
813.375244,1422
813.493896,1436
813.612671,1450
813.731384,1413
813.850037,1401
813.96875,1412
814.087524,1410
814.206238,1399
814.324951,1443
814.443604,1377
814.562256,1399
814.68103,1369
814.799683,1418
814.918335,1430
815.037109,1388
815.155762,1410
815.274475,1339
815.393188,1393
815.511841,1416
815.630554,1420
815.749146,1405
815.867859,1410
815.986572,1422
816.105164,1382
816.223877,1368
816.342529,1380
816.461182,1452
816.579895,1423
816.698486,1376
816.817139,1387
816.935791,1428
817.054504,1381
817.173096,1426
817.291748,1415
817.4104,1422
817.529053,1342
817.647644,1420
817.766235,1393
817.884949,1380
818.00354,1350
818.122192,1348
818.240845,1384
818.359436,2276
818.478088,1716
818.59668,1317
818.715271,1364
818.833923,1341
818.952515,1369
819.071106,1335
819.189758,1371
819.30835,1329
819.426941,1318
819.545532,1353
819.664124,1365
819.782715,1364
819.901306,1354
820.019897,1330
820.138489,1371
820.25708,1327
820.375671,1328
820.494202,1353
820.612732,1316
820.731384,1343
820.849915,1304
820.968506,1307
821.087097,1335
821.205627,1331
821.324158,1355
821.442749,1320
821.561279,1334
821.679871,1331
821.798401,1316
821.916931,1361
822.035461,1304
822.154053,1343
822.272583,1291
822.391174,1315
822.509583,1341
822.628174,1354
822.746704,1320
822.865234,1323
822.983765,1321
823.102295,1325
823.220825,1322
823.339294,1329
823.457825,1330
823.576355,1313
823.694824,1271
823.813354,1333
823.931885,1301
824.050354,1296
824.168884,1314
824.287354,1311
824.405823,1332
824.524353,1305
824.642822,1338
824.761353,1312
824.879822,1306
824.998291,1330
825.116699,1319
825.235291,1309
825.353699,1319
825.472168,1309
825.590637,1334
825.709106,1294
825.827576,1284
825.946045,1283
826.064453,1316
826.182983,1289
826.301392,1267
826.4198,1324
826.53833,1286
826.656738,1265
826.775208,1289
826.893677,1275
827.012024,1296
827.130493,1311
827.248962,1307
827.36731,1331
827.485779,1275
827.604248,1290
827.722595,1245
827.841064,1284
827.959412,1302
828.077942,1297
828.196289,1306
828.314636,1288
828.433105,1280
828.551514,1264
828.669861,1303
828.78833,1284
828.906677,1262
829.025085,1304
829.143433,1285
829.261841,1275
829.38031,1286
829.498657,1290
829.617004,1295
829.735413,1270
829.85376,1279
829.972107,1265
830.090515,1275
830.208862,1285
830.327209,1306
830.445557,1265
830.563904,1258
830.682312,1269
830.800659,1257
830.919006,1271
831.037354,1269
831.155701,1255
831.274048,1303
831.392395,1244
831.51062,1296
831.629028,1314
831.747314,1259
831.865662,1279
831.984009,1284
832.102356,1251
832.220642,1246
832.338928,1314
832.457275,1263
832.575623,1280
832.693909,1271
832.812134,1280
832.930481,1291
833.048828,1291
833.167114,1286
833.2854,1316
833.403687,1309
833.521973,1289
833.640259,1300
833.758545,1265
833.876831,1274
833.995056,1241
834.113281,1245
834.231628,1284
834.349915,1278
834.468201,1254
834.586426,1315
834.704651,1260
834.822998,1262
834.941162,1249
835.059448,1309
835.177673,1278
835.295959,1256
835.414246,1303
835.53241,1295
835.650635,1312
835.768921,1270
835.887146,1281
836.005371,1291
836.123596,1295
836.241821,1302
836.360046,1244
836.478271,1322
836.596497,1265
836.714722,1264
836.832886,1239
836.95105,1318
837.069336,1296
837.1875,1299
837.305725,1249
837.423889,1272
837.542053,1237
837.660339,1272
837.778503,1246
837.896667,1258
838.014832,1292
838.132996,1275
838.25116,1271
838.369385,1255
838.487488,1277
838.605713,1301
838.723877,1302
838.84198,1266
838.960205,1270
839.078308,1259
839.196472,1247
839.314636,1258
839.4328,1276
839.550964,1279
839.669067,1266
839.787231,1266
839.905396,1295
840.023499,1266
840.141602,1306
840.259766,1294
840.377869,1277
840.495972,1305
840.614136,1266
840.732239,1248
840.850342,1262
840.968445,1251
841.086548,1273
841.204651,1270
841.322754,1290
841.440918,1258
841.55896,1248
841.677002,1238
841.795166,1272
841.913208,1305
842.031311,1285
842.149353,1256
842.267456,1240
842.385498,1242
842.503601,1255
842.621643,1277
842.739746,1234
842.857788,1234
842.97583,1256
843.093933,1262
843.211975,1273
843.330017,1233
843.44812,1240
843.566101,1236
843.684204,1241
843.802246,1229
843.920227,1282
844.038269,1243
844.156311,1267
844.274292,1256
844.392395,1248
844.510376,1255
844.628357,1258
844.74646,1221
844.864441,1294
844.982422,1280
845.100403,1248
845.218384,1275
845.336426,1263
845.454468,1253
845.572449,1277
845.69043,1279
845.808411,1221
845.926453,1242
846.044373,1251
846.162354,1287
846.280396,1251
846.398315,1243
846.516296,1283
846.634216,1236
846.752197,1255
846.870178,1233
846.988098,1221
847.106079,1263
847.22406,1255
847.34198,1225
847.4599,1254
847.577881,1246
847.695801,1230
847.813782,1255
847.931641,1268
848.049561,1244
848.167603,1273
848.285461,1224
848.403381,1260
848.521362,1249
848.639221,1252
848.75708,1236
848.875,1272
848.99292,1264
849.110901,1311
849.22876,1261
849.34668,1268
849.464539,1283
849.582458,1251
849.700317,1264
849.818176,1238
849.936096,1255
850.053955,1252
850.171875,1269
850.289673,1278
850.407593,1214
850.525452,1307
850.643311,1283
850.761169,1268
850.878967,1225
850.996887,1276
851.114746,1260
851.232544,1249
851.350403,1261
851.468262,1267
851.58606,1288
851.703979,1239
851.821777,1278
851.939636,1286
852.057434,1231
852.175232,1269
852.293091,1262
852.410889,1297
852.528687,1274
852.646545,1271
852.764343,1228
852.88208,1274
852.999939,1237
853.117676,1274
853.235535,1245
853.353271,1296
853.471069,1268
853.588928,1248
853.706604,1282
853.824402,1279
853.9422,1279
854.059998,1260
854.177734,1233
854.295532,1258
854.413269,1303
854.531006,1296
854.648804,1245
854.766541,1238
854.884277,1275
855.002014,1263
855.119751,1295
855.237549,1232
855.355225,1297
855.473022,1270
855.590698,1253
855.708435,1273
855.826172,1227
855.943848,1281
856.061646,1264
856.179321,1285
856.296997,1234
856.414795,1316
856.53241,1253
856.650085,1287
856.767822,1265
856.885559,1278
857.003174,1259
857.120911,1263
857.238586,1288
857.356201,1278
857.473938,1280
857.591614,1282
857.709351,1260
857.826965,1253
857.944641,1252
858.062317,1205
858.179993,1250
858.297668,1289
858.415283,1257
858.532959,1276
858.650574,1288
858.768188,1311
858.885803,1279
859.003479,1289
859.121094,1238
859.23877,1268
859.356384,1250
859.473999,1253
859.591675,1292
859.709229,1273
859.826843,1251
859.944458,1263
860.062012,1288
860.179626,1254
860.297302,1265
860.414856,1260
860.532471,1288
860.650024,1302
860.767639,1307
860.885193,1300
861.002808,1256
861.120361,1267
861.237976,1286
861.35553,1267
861.473022,1280
861.590698,1272
861.708191,1277
861.825745,1290
861.943298,1313
862.060852,1313
862.178406,1225
862.295959,1270
862.413513,1259
862.531006,1269
862.64856,1276
862.766113,1279
862.883667,1285
863.00116,1257
863.118713,1258
863.236206,1266
863.353699,1266
863.471252,1293
863.588745,1289
863.706177,1261
863.82373,1290
863.941162,1264
864.058716,1285
864.176208,1280
864.29364,1274
864.411194,1326
864.528687,1304
864.646118,1295
864.763611,1257
864.881042,1263
864.998535,1272
865.116028,1305
865.233459,1262
865.350891,1250
865.468384,1291
865.585754,1297
865.703308,1247
865.820679,1286
865.938171,1285
866.055542,1274
866.173035,1301
866.290466,1238
866.407837,1233
866.52533,1299
866.6427,1289
866.760071,1320
866.877563,1254
866.994934,1297
867.112305,1291
867.229736,1259
867.347107,1256
867.464539,1282
867.58197,1299
867.699341,1296
867.81665,1295
867.934082,1276
868.051453,1305
868.168823,1244
868.286194,1246
868.403564,1283
868.520935,1266
868.638306,1294
868.755676,1263
868.872986,1289
868.990295,1273
869.107727,1278
869.225037,1300
869.342346,1317
869.459717,1310
869.577026,1297
869.694336,1275
869.811707,1327
869.929016,1262
870.046326,1310
870.163635,1290
870.280945,1303
870.398254,1299
870.515564,1303
870.632812,1268
870.750183,1259
870.867432,1300
870.984741,1307
871.102051,1258
871.219299,1306
871.336609,1306
871.453918,1301
871.571106,1304
871.688416,1290
871.805664,1288
871.922852,1255
872.040222,1280
872.157471,1300
872.274719,1291
872.391968,1313
872.509155,1308
872.626465,1304
872.743652,1271
872.860962,1299
872.978149,1284
873.095337,1292
873.212646,1316
873.329834,1279
873.44696,1306
873.564209,1331
873.681396,1276
873.798645,1298
873.915894,1325
874.03302,1281
874.150208,1301
874.267456,1261
874.384583,1284
874.501831,1257
874.618958,1315
874.736145,1312
874.853333,1293
874.970459,1272
875.087646,1318
875.204834,1323
875.32196,1288
875.439148,1252
875.556274,1322
875.673401,1317
875.790527,1306
875.907715,1286
876.024841,1298
876.141968,1293
876.259094,1292
876.376282,1283
876.493347,1278
876.610474,1323
876.7276,1314
876.844727,1295
876.961853,1300
877.078918,1293
877.195984,1333
877.313171,1291
877.430237,1312
877.547302,1296
877.664368,1319
877.781433,1243
877.898499,1309
878.015625,1290
878.13269,1312
878.249695,1299
878.366821,1257
878.483887,1298
878.600952,1299
878.717957,1295
878.834961,1283
878.952087,1316
879.069092,1286
879.186157,1318
879.303162,1255
879.420227,1291
879.537231,1253
879.654236,1341
879.77124,1248
879.888306,1288
880.005249,1306
880.122314,1290
880.239319,1293
880.356323,1294
880.473328,1340
880.590271,1307
880.707275,1293
880.824341,1296
880.941284,1264
881.058228,1289
881.175232,1277
881.292236,1317
881.40918,1262
881.526123,1313
881.643066,1304
881.760071,1330
881.877014,1323
881.993958,1312
882.11084,1264
882.227783,1291
882.344727,1299
882.46167,1322
882.578613,1345
882.695618,1292
882.812439,1299
882.929382,1307
883.046326,1295
883.163208,1297
883.280151,1269
883.397034,1313
883.513916,1317
883.630798,1332
883.747742,1327
883.864563,1318
883.981506,1318
884.098389,1291
884.21521,1302
884.332153,1289
884.448975,1287
884.565796,1298
884.682678,1323
884.7995,1312
884.916443,1342
885.033264,1302
885.150085,1325
885.266968,1342
885.383789,1343
885.500671,1289
885.617493,1346
885.734314,1363
885.851196,1346
885.967896,1343
886.084717,1348
886.201599,1351
886.318359,1327
886.435181,1330
886.552002,1334
886.668762,1351
886.785645,1331
886.902344,1338
887.019165,1368
887.135925,1307
887.252747,1319
887.369446,1312
887.486267,1316
887.603027,1296
887.719788,1337
887.836548,1339
887.953247,1294
888.070068,1336
888.186829,1337
888.303528,1336
888.420288,1340
888.536987,1324
888.653687,1352
888.770447,1315
888.887146,1305
889.003967,1322
889.120667,1304
889.237305,1332
889.354065,1334
889.470703,1324
889.587463,1306
889.704163,1326
889.820862,1325
889.937561,1368
890.054199,1374
890.170837,1365
890.287598,1332
890.404236,1345
890.520874,1326
890.637634,1315
890.754211,1323
890.87085,1292
890.987549,1317
891.104187,1315
891.220886,1344
891.337463,1340
891.454102,1307
891.57074,1357
891.687378,1300
891.804077,1300
891.920654,1349
892.037231,1304
892.15387,1333
892.270447,1282
892.387085,1333
892.503723,1334
892.6203,1307
892.736877,1296
892.853516,1332
892.970032,1364
893.08667,1356
893.203186,1357
893.319763,1324
893.43634,1334
893.552917,1380
893.669556,1331
893.786011,1333
893.902588,1301
894.019165,1369
894.135681,1328
894.252197,1356
894.368835,1359
894.485291,1328
894.601868,1358
894.718384,1355
894.8349,1301
894.951355,1335
895.067932,1364
895.184448,1328
895.300964,1371
895.417419,1358
895.533936,1369
895.650452,1333
895.766907,1355
895.883423,1359
895.999878,1316
896.116333,1332
896.232849,1360
896.349304,1370
896.465759,1339
896.582214,1320
896.698669,1341
896.815125,1345
896.931641,1374
897.048035,1361
897.164551,1371
897.280884,1317
897.397339,1371
897.513794,1353
897.630249,1357
897.746582,1353
897.863098,1371
897.979431,1360
898.095886,1340
898.212341,1337
898.328674,1371
898.445129,1349
898.561462,1389
898.677795,1340
898.794312,1347
898.910645,1353
899.026978,1338
899.143433,1366
899.259766,1358
899.37616,1389
899.492493,1361
899.608765,1360
899.725159,1367
899.841553,1346
899.957947,1369
900.07428,1379
900.190552,1343
900.306946,1342
900.423157,1379
900.53949,1350
900.655884,1387
900.772156,1377
900.888489,1341
901.004822,1358
901.121033,1347
901.237366,1350
901.353699,1364
901.46991,1373
901.586304,1370
901.702515,1343
901.818787,1382
901.93512,1369
902.051331,1381
902.167603,1390
902.283875,1362
902.400085,1403
902.516418,1351
902.632629,1385
902.74884,1378
902.865112,1405
902.981384,1342
903.097595,1374
903.213867,1347
903.330017,1384
903.446289,1377
903.5625,1364
903.67865,1351
903.794922,1372
903.911072,1376
904.027344,1361
904.143494,1376
904.259705,1381
904.375916,1367
904.492065,1367
904.608215,1377
904.724426,1347
904.840576,1398
904.956726,1325
905.072876,1382
905.189087,1386
905.305176,1360
905.421387,1392
905.537537,1352
905.653687,1391
905.769775,1383
905.885925,1359
906.002014,1359
906.118164,1367
906.234314,1369
906.350403,1367
906.466492,1374
906.582642,1343
906.69873,1395
906.814758,1347
906.930908,1413
907.046936,1365
907.163086,1374
907.279175,1366
907.395264,1376
907.511353,1390
907.62738,1389
907.743408,1322
907.859497,1351
907.975525,1399
908.091553,1387
908.207703,1370
908.32373,1379
908.439758,1353
908.555786,1378
908.671814,1390
908.787842,1370
908.90387,1400
909.019775,1371
909.135864,1370
909.251892,1401
909.367859,1406
909.483826,1425
909.599854,1438
909.715881,1375
909.831848,1407
909.947815,1382
910.063782,1375
910.179749,1390
910.295776,1411
910.411743,1390
910.527649,1387
910.643616,1392
910.759583,1389
910.875488,1382
910.991455,1390
911.107361,1368
911.223267,1387
911.339294,1345
911.4552,1376
911.571106,1387
911.687073,1428
911.802979,1360
911.918823,1379
912.034729,1399
912.150635,1351
912.266602,1351
912.382446,1390
912.498352,1355
912.614197,1389
912.730103,1381
912.846008,1390
792.44574,1668
792.56488,1708
792.68396,1706
792.80304,1643
792.92218,1631
793.041199,1592
793.160339,1650
793.279419,1574
793.398499,1599
793.517578,1582
793.636658,1631
793.755737,1573
793.874817,1630
793.993896,1629
794.112976,1559
794.232056,1599
794.351074,1633
794.470215,1578
794.589233,1565
794.708313,1574
794.827393,1603
794.946411,1510
795.065552,1572
795.18457,1570
795.303589,1565
795.422668,1552
795.541687,1555
795.660767,1532
795.779846,1561
795.898865,1499
796.017883,1550
796.136963,1549
796.255981,1510
796.375061,1525
796.49408,1544
796.613037,1528
796.732117,1532
796.851135,1520
796.970154,1510
797.089233,1542
797.208191,1493
797.327271,1515
797.446228,1559
797.565186,1515
797.684265,1487
797.803223,1483
797.922241,1534
798.04126,1500
798.160278,1498
798.279297,1483
798.398315,1512
798.517273,1456
798.636292,1515
798.75531,1494
798.874268,1503
798.993286,1495
799.112244,1483
799.231323,1491
799.350281,1507
799.469238,1532
799.588257,1505
799.707153,1506
799.826111,1483
799.945129,1487
800.064087,1432
800.183044,1485
800.302063,1486
800.421021,1494
800.539978,1450
800.658936,1493
800.777893,1499
800.896912,1472
801.015747,1481
801.134705,1485
801.253723,1461
801.37262,1480
801.491638,1444
801.610535,1477
801.729492,1450
801.84845,1482
801.967407,1519
802.086243,1480
802.205261,1471
802.324158,1477
802.443115,1484
802.562073,1448
802.680969,1457
802.799927,1440
802.918762,1489
803.037659,1499
803.156677,1437
803.275574,1484
803.39447,1470
803.513428,1499
803.632263,1488
803.751221,1474
803.870117,1459
803.989014,1464
804.107971,1454
804.226746,1447
804.345642,1493
804.4646,1458
804.583496,1468
804.702393,1477
804.821228,1443
804.940125,1512
805.059021,1456
805.177917,1443
805.296814,1484
805.415649,1479
805.534546,1480
805.653442,1421
805.772278,1450
805.891113,1491
806.01001,1449
806.128906,1491
806.247742,1491
806.366577,1472
806.485413,1456
806.604309,1422
806.723145,1467
806.84198,1461
806.960876,1508
807.079712,1487
807.198486,1482
807.317383,1478
807.436218,1508
807.554993,1484
807.673889,1488
807.792725,1443
807.91156,1467
808.030396,1464
808.14917,1456
808.268005,1478
808.386841,1467
808.505676,1472
808.624451,1460
808.743286,1436
808.862122,1503
808.980896,1450
809.099731,1475
809.218506,1476
809.337341,1453
809.456116,1451
809.57489,1466
809.693726,1500
809.8125,1483
809.931274,1430
810.050049,1495
810.168884,1455
810.287659,1456
810.406372,1454
810.525269,1439
810.643982,1477
810.762756,1457
810.881531,1484
811.000305,1452
811.11908,1451
811.237854,1426
811.356567,1439
811.475403,1453
811.594116,1442
811.71283,1518
811.831604,1427
811.950378,1439
812.069153,1406
812.187927,1458
812.30658,1414
812.425415,1445
812.544128,1415
812.662781,1436
812.781616,1500
812.900269,1456
813.019043,1432
813.137756,1453
813.256531,1416
813.375244,1418
813.493896,1414
813.612671,1416
813.731384,1468
813.850037,1430
813.96875,1413
814.087524,1466
814.206238,1432
814.324951,1457
814.443604,1390
814.562256,1477
814.68103,1482
814.799683,1447
814.918335,1473
815.037109,1398
815.155762,1430
815.274475,1426
815.393188,1441
815.511841,1432
815.630554,1449
815.749146,1413
815.867859,1441
815.986572,1426
816.105164,1408
816.223877,1476
816.342529,1409
816.461182,1424
816.579895,1433
816.698486,1432
816.817139,1445
816.935791,1438
817.054504,1427
817.173096,1411
817.291748,1418
817.4104,1408
817.529053,1415
817.647644,1453
817.766235,1453
817.884949,1423
818.00354,1441
818.122192,1388
818.240845,1407
818.359436,1385
818.478088,1379
818.59668,1369
818.715271,1395
818.833923,1388
818.952515,1427
819.071106,1437
819.189758,1359
819.30835,1364
819.426941,1386
819.545532,1406
819.664124,1304
819.782715,1389
819.901306,1405
820.019897,1352
820.138489,1372
820.25708,1366
820.375671,1401
820.494202,1377
820.612732,1350
820.731384,1387
820.849915,1326
820.968506,1390
821.087097,1366
821.205627,1346
821.324158,1319
821.442749,1335
821.561279,1344
821.679871,1325
821.798401,1341
821.916931,1378
822.035461,1338
822.154053,1338
822.272583,1329
822.391174,1350
822.509583,1302
822.628174,1360
822.746704,1327
822.865234,1312
822.983765,1331
823.102295,1326
823.220825,1340
823.339294,1383
823.457825,1348
823.576355,1333
823.694824,1333
823.813354,1333
823.931885,1326
824.050354,1337
824.168884,1365
824.287354,1346
824.405823,1308
824.524353,1337
824.642822,1316
824.761353,1345
824.879822,1305
824.998291,1301
825.116699,1381
825.235291,1347
825.353699,1359
825.472168,1341
825.590637,1322
825.709106,1335
825.827576,1358
825.946045,1336
826.064453,1383
826.182983,1345
826.301392,1305
826.4198,1334
826.53833,1313
826.656738,1334
826.775208,1320
826.893677,1336
827.012024,1300
827.130493,1344
827.248962,1317
827.36731,1342
827.485779,1305
827.604248,1327
827.722595,1306
827.841064,1302
827.959412,1316
828.077942,1270
828.196289,1332
828.314636,1313
828.433105,1292
828.551514,1333
828.669861,1280
828.78833,1333
828.906677,1272
829.025085,1317
829.143433,1335
829.261841,1340
829.38031,1310
829.498657,1288
829.617004,1349
829.735413,1319
829.85376,1328
829.972107,1317
830.090515,1327
830.208862,1276
830.327209,1296
830.445557,1306
830.563904,1314
830.682312,1329
830.800659,1255
830.919006,1338
831.037354,1336
831.155701,1360
831.274048,1307
831.392395,1298
831.51062,1291
831.629028,1267
831.747314,1348
831.865662,1318
831.984009,1292
832.102356,1302
832.220642,1282
832.338928,1307
832.457275,1271
832.575623,1343
832.693909,1311
832.812134,1323
832.930481,1271
833.048828,1338
833.167114,1317
833.2854,1314
833.403687,1308
833.521973,1314
833.640259,1287
833.758545,1284
833.876831,1336
833.995056,1327
834.113281,1300
834.231628,1289
834.349915,1274
834.468201,1314
834.586426,1299
834.704651,1280
834.822998,1320
834.941162,1270
835.059448,1260
835.177673,1322
835.295959,1290
835.414246,1312
835.53241,1272
835.650635,1325
835.768921,1323
835.887146,1335
836.005371,1309
836.123596,1298
836.241821,1301
836.360046,1329
836.478271,1283
836.596497,1266
836.714722,1308
836.832886,1291
836.95105,1319
837.069336,1304
837.1875,1296
837.305725,1301
837.423889,1329
837.542053,1334
837.660339,1304
837.778503,1321
837.896667,1274
838.014832,1306
838.132996,1298
838.25116,1336
838.369385,1297
838.487488,1329
838.605713,1291
838.723877,1302
838.84198,1317
838.960205,1292
839.078308,1304
839.196472,1301
839.314636,1298
839.4328,1324
839.550964,1341
839.669067,1289
839.787231,1321
839.905396,1304
840.023499,1293
840.141602,1338
840.259766,1255
840.377869,1304
840.495972,1279
840.614136,1290
840.732239,1325
840.850342,1280
840.968445,1319
841.086548,1297
841.204651,1285
841.322754,1305
841.440918,1304
841.55896,1302
841.677002,1261
841.795166,1344
841.913208,1272
842.031311,1322
842.149353,1318
842.267456,1282
842.385498,1277
842.503601,1314
842.621643,1268
842.739746,1307
842.857788,1261
842.97583,1310
843.093933,1295
843.211975,1301
843.330017,1308
843.44812,1266
843.566101,1292
843.684204,1277
843.802246,1263
843.920227,1305
844.038269,1332
844.156311,1314
844.274292,1295
844.392395,1316
844.510376,1280
844.628357,1275
844.74646,1265
844.864441,1288
844.982422,1294
845.100403,1303
845.218384,1296
845.336426,1311
845.454468,1305
845.572449,1264
845.69043,1310
845.808411,1276
845.926453,1287
846.044373,1304
846.162354,1283
846.280396,1341
846.398315,1282
846.516296,1273
846.634216,1306
846.752197,1283
846.870178,1305
846.988098,1297
847.106079,1278
847.22406,1284
847.34198,1275
847.4599,1264
847.577881,1268
847.695801,1321
847.813782,1269
847.931641,1294
848.049561,1269
848.167603,1267
848.285461,1266
848.403381,1283
848.521362,1271
848.639221,1296
848.75708,1275
848.875,1318
848.99292,1271
849.110901,1323
849.22876,1275
849.34668,1291
849.464539,1265
849.582458,1290
849.700317,1278
849.818176,1290
849.936096,1256
850.053955,1288
850.171875,1277
850.289673,1296
850.407593,1260
850.525452,1277
850.643311,1265
850.761169,1259
850.878967,1284
850.996887,1311
851.114746,1281
851.232544,1302
851.350403,1247
851.468262,1285
851.58606,1277
851.703979,1334
851.821777,1308
851.939636,1275
852.057434,1271
852.175232,1292
852.293091,1296
852.410889,1270
852.528687,1271
852.646545,1302
852.764343,1287
852.88208,1293
852.999939,1272
853.117676,1287
853.235535,1286
853.353271,1288
853.471069,1321
853.588928,1275
853.706604,1318
853.824402,1267
853.9422,1328
854.059998,1280
854.177734,1297
854.295532,1280
854.413269,1263
854.531006,1311
854.648804,1244
854.766541,1316
854.884277,1314
855.002014,1294
855.119751,1288
855.237549,1315
855.355225,1251
855.473022,1292
855.590698,1315
855.708435,1281
855.826172,1268
855.943848,1300
856.061646,1297
856.179321,1294
856.296997,1331
856.414795,1308
856.53241,1333
856.650085,1311
856.767822,1308
856.885559,1350
857.003174,1291
857.120911,1292
857.238586,1355
857.356201,1296
857.473938,1329
857.591614,1289
857.709351,1307
857.826965,1287
857.944641,1277
858.062317,1309
858.179993,1302
858.297668,1298
858.415283,1317
858.532959,1322
858.650574,1305
858.768188,1360
858.885803,1290
859.003479,1329
859.121094,1291
859.23877,1344
859.356384,1297
859.473999,1326
859.591675,1295
859.709229,1286
859.826843,1289
859.944458,1281
860.062012,1305
860.179626,1298
860.297302,1310
860.414856,1289
860.532471,1270
860.650024,1310
860.767639,1260
860.885193,1298
861.002808,1297
861.120361,1277
861.237976,1273
861.35553,1341
861.473022,1247
861.590698,1324
861.708191,1290
861.825745,1325
861.943298,1299
862.060852,1282
862.178406,1305
862.295959,1304
862.413513,1309
862.531006,1318
862.64856,1277
862.766113,1323
862.883667,1439
863.00116,3614
863.118713,1257
863.236206,1328
863.353699,1282
863.471252,1330
863.588745,1288
863.706177,1310
863.82373,1287
863.941162,1297
864.058716,1292
864.176208,1282
864.29364,1288
864.411194,1329
864.528687,1306
864.646118,1310
864.763611,1257
864.881042,1249
864.998535,1311
865.116028,1292
865.233459,1295
865.350891,1356
865.468384,1311
865.585754,1325
865.703308,1296
865.820679,1301
865.938171,1290
866.055542,1305
866.173035,1294
866.290466,1317
866.407837,1337
866.52533,1287
866.6427,1304
866.760071,1295
866.877563,1291
866.994934,1277
867.112305,1333
867.229736,1271
867.347107,1319
867.464539,1306
867.58197,1296
867.699341,1349
867.81665,1335
867.934082,1309
868.051453,1288
868.168823,1345
868.286194,1339
868.403564,1312
868.520935,1307
868.638306,1276
868.755676,1305
868.872986,1285
868.990295,1315
869.107727,1327
869.225037,1297
869.342346,1328
869.459717,1289
869.577026,1343
869.694336,1323
869.811707,1332
869.929016,1315
870.046326,1318
870.163635,1279
870.280945,1372
870.398254,1280
870.515564,1336
870.632812,1322
870.750183,1354
870.867432,1305
870.984741,1308
871.102051,1330
871.219299,1274
871.336609,1332
871.453918,1299
871.571106,1358
871.688416,1325
871.805664,1338
871.922852,1327
872.040222,1335
872.157471,1308
872.274719,1331
872.391968,1338
872.509155,1339
872.626465,1282
872.743652,1299
872.860962,1358
872.978149,1300
873.095337,1325
873.212646,1334
873.329834,1283
873.44696,1314
873.564209,1312
873.681396,1325
873.798645,1336
873.915894,1307
874.03302,1330
874.150208,1316
874.267456,1346
874.384583,1297
874.501831,1294
874.618958,1330
874.736145,1305
874.853333,1362
874.970459,1296
875.087646,1330
875.204834,1293
875.32196,1313
875.439148,1308
875.556274,1317
875.673401,1333
875.790527,1307
875.907715,1346
876.024841,1326
876.141968,1324
876.259094,1306
876.376282,1342
876.493347,1319
876.610474,1383
876.7276,1346
876.844727,1322
876.961853,1318
877.078918,1344
877.195984,1347
877.313171,1324
877.430237,1366
877.547302,1361
877.664368,1349
877.781433,1316
877.898499,1348
878.015625,1345
878.13269,1308
878.249695,1318
878.366821,1283
878.483887,1320
878.600952,1349
878.717957,1350
878.834961,1361
878.952087,1303
879.069092,1340
879.186157,1334
879.303162,1314
879.420227,1335
879.537231,1289
879.654236,1368
879.77124,1324
879.888306,1313
880.005249,1337
880.122314,1301
880.239319,1261
880.356323,1337
880.473328,1317
880.590271,1348
880.707275,1320
880.824341,1319
880.941284,1306
881.058228,1348
881.175232,1375
881.292236,1360
881.40918,1296
881.526123,1310
881.643066,1328
881.760071,1321
881.877014,1327
881.993958,1332
882.11084,1331
882.227783,1352
882.344727,1318
882.46167,1312
882.578613,1312
882.695618,1323
882.812439,1335
882.929382,1342
883.046326,1331
883.163208,1352
883.280151,1296
883.397034,1351
883.513916,1304
883.630798,1336
883.747742,1338
883.864563,1316
883.981506,1363
884.098389,1346
884.21521,1368
884.332153,1378
884.448975,1356
884.565796,1390
884.682678,1322
884.7995,1377
884.916443,1312
885.033264,1365
885.150085,1370
885.266968,1358
885.383789,1329
885.500671,1380
885.617493,1373
885.734314,1403
885.851196,1356
885.967896,1322
886.084717,1373
886.201599,1388
886.318359,1342
886.435181,1363
886.552002,1382
886.668762,1379
886.785645,1372
886.902344,1390
887.019165,1362
887.135925,1381
887.252747,1357
887.369446,1379
887.486267,1341
887.603027,1348
887.719788,1373
887.836548,1397
887.953247,1333
888.070068,1352
888.186829,1391
888.303528,1368
888.420288,1342
888.536987,1342
888.653687,1361
888.770447,1363
888.887146,1344
889.003967,1331
889.120667,1386
889.237305,1318
889.354065,1351
889.470703,1325
889.587463,1387
889.704163,1357
889.820862,1336
889.937561,1360
890.054199,1394
890.170837,1368
890.287598,1338
890.404236,1409
890.520874,1351
890.637634,1349
890.754211,1333
890.87085,1382
890.987549,1342
891.104187,1378
891.220886,1366
891.337463,1337
891.454102,1352
891.57074,1380
891.687378,1321
891.804077,1370
891.920654,1341
892.037231,1363
892.15387,1366
892.270447,1345
892.387085,1370
892.503723,1440
892.6203,1373
892.736877,1370
892.853516,1363
892.970032,1350
893.08667,1341
893.203186,1361
893.319763,1364
893.43634,1361
893.552917,1401
893.669556,1350
893.786011,1358
893.902588,1375
894.019165,1338
894.135681,1378
894.252197,1419
894.368835,1385
894.485291,1407
894.601868,1349
894.718384,1383
894.8349,1383
894.951355,1389
895.067932,1358
895.184448,1343
895.300964,1416
895.417419,1373
895.533936,1364
895.650452,1348
895.766907,1388
895.883423,1394
895.999878,1362
896.116333,1419
896.232849,1391
896.349304,1386
896.465759,1379
896.582214,1359
896.698669,1411
896.815125,1329
896.931641,1345
897.048035,1373
897.164551,1396
897.280884,1373
897.397339,1399
897.513794,1371
897.630249,1417
897.746582,1358
897.863098,1426
897.979431,1356
898.095886,1416
898.212341,1397
898.328674,1358
898.445129,1339
898.561462,1415
898.677795,1373
898.794312,1368
898.910645,1357
899.026978,1399
899.143433,1360
899.259766,1346
899.37616,1367
899.492493,1326
899.608765,1403
899.725159,1389
899.841553,1413
899.957947,1371
900.07428,1396
900.190552,1407
900.306946,1364
900.423157,1413
900.53949,1405
900.655884,1367
900.772156,1395
900.888489,1404
901.004822,1384
901.121033,1442
901.237366,1391
901.353699,1387
901.46991,1389
901.586304,1425
901.702515,1392
901.818787,1409
901.93512,1408
902.051331,1421
902.167603,1405
902.283875,1386
902.400085,1402
902.516418,1356
902.632629,1450
902.74884,1414
902.865112,1425
902.981384,1401
903.097595,1399
903.213867,1393
903.330017,1386
903.446289,1375
903.5625,1385
903.67865,1409
903.794922,1397
903.911072,1411
904.027344,1417
904.143494,1445
904.259705,1375
904.375916,1384
904.492065,1388
904.608215,1421
904.724426,1386
904.840576,1437
904.956726,1443
905.072876,1387
905.189087,1358
905.305176,1439
905.421387,1386
905.537537,1425
905.653687,1388
905.769775,1424
905.885925,1371
906.002014,1419
906.118164,1378
906.234314,1408
906.350403,1408
906.466492,1445
906.582642,1399
906.69873,1414
906.814758,1387
906.930908,1418
907.046936,1364
907.163086,1436
907.279175,1364
907.395264,1408
907.511353,1429
907.62738,1405
907.743408,1406
907.859497,1426
907.975525,1448
908.091553,1398
908.207703,1412
908.32373,1418
908.439758,1402
908.555786,1401
908.671814,1401
908.787842,1458
908.90387,1410
909.019775,1413
909.135864,1402
909.251892,1429
909.367859,1425
909.483826,1434
909.599854,1421
909.715881,1436
909.831848,1384
909.947815,1416
910.063782,1437
910.179749,1412
910.295776,1409
910.411743,1413
910.527649,1431
910.643616,1442
910.759583,1421
910.875488,1412
910.991455,1386
911.107361,1454
911.223267,1453
911.339294,1415
911.4552,1410
911.571106,1430
911.687073,1416
911.802979,1448
911.918823,1427
912.034729,1416
912.150635,1371
912.266602,1455
912.382446,1405
912.498352,1428
912.614197,1433
912.730103,1437
912.846008,1407
792.44574,1692
792.56488,1693
792.68396,1739
792.80304,1665
792.92218,1640
793.041199,1612
793.160339,1625
793.279419,1654
793.398499,1590
793.517578,1590
793.636658,1627
793.755737,1613
793.874817,1651
793.993896,1596
794.112976,1600
794.232056,1616
794.351074,1585
794.470215,1591
794.589233,1604
794.708313,1582
794.827393,1560
794.946411,1547
795.065552,1621
795.18457,1587
795.303589,1555
795.422668,1567
795.541687,1557
795.660767,1550
795.779846,1542
795.898865,1541
796.017883,1531
796.136963,1505
796.255981,1516
796.375061,1536
796.49408,1560
796.613037,1530
796.732117,1563
796.851135,1523
796.970154,1477
797.089233,1518
797.208191,1476
797.327271,1542
797.446228,1523
797.565186,1528
797.684265,1534
797.803223,1524
797.922241,1545
798.04126,1501
798.160278,1554
798.279297,1493
798.398315,1495
798.517273,1511
798.636292,1493
798.75531,1524
798.874268,1494
798.993286,1527
799.112244,1510
799.231323,1512
799.350281,1521
799.469238,1510
799.588257,1496
799.707153,1537
799.826111,1504
799.945129,1499
800.064087,1485
800.183044,1498
800.302063,1549
800.421021,1526
800.539978,1512
800.658936,1517
800.777893,1499
800.896912,1506
801.015747,1508
801.134705,1501
801.253723,1521
801.37262,1487
801.491638,1501
801.610535,1471
801.729492,1536
801.84845,1446
801.967407,1525
802.086243,1496
802.205261,1528
802.324158,1504
802.443115,1503
802.562073,1500
802.680969,1487
802.799927,1458
802.918762,1471
803.037659,1502
803.156677,1495
803.275574,1533
803.39447,1516
803.513428,1491
803.632263,1500
803.751221,1475
803.870117,1440
803.989014,1454
804.107971,1505
804.226746,1490
804.345642,1478
804.4646,1477
804.583496,1501
804.702393,1486
804.821228,1480
804.940125,1537
805.059021,1514
805.177917,1460
805.296814,1503
805.415649,1511
805.534546,1505
805.653442,1467
805.772278,1509
805.891113,1444
806.01001,1512
806.128906,1516
806.247742,1459
806.366577,1431
806.485413,1519
806.604309,1457
806.723145,1503
806.84198,1486
806.960876,1473
807.079712,1474
807.198486,1464
807.317383,1516
807.436218,1461
807.554993,1452
807.673889,1458
807.792725,1460
807.91156,1440
808.030396,1492
808.14917,1471
808.268005,1501
808.386841,1485
808.505676,1480
808.624451,1427
808.743286,1492
808.862122,1494
808.980896,1462
809.099731,1462
809.218506,1467
809.337341,1489
809.456116,1489
809.57489,1445
809.693726,1513
809.8125,1467
809.931274,1516
810.050049,1450
810.168884,1459
810.287659,1466
810.406372,1466
810.525269,1497
810.643982,1459
810.762756,1477
810.881531,1468
811.000305,1474
811.11908,1438
811.237854,1445
811.356567,1509
811.475403,1438
811.594116,1477
811.71283,1492
811.831604,1488
811.950378,1465
812.069153,1469
812.187927,1491
812.30658,1472
812.425415,1457
812.544128,1447
812.662781,1445
812.781616,1467
812.900269,1449
813.019043,1462
813.137756,1460
813.256531,1448
813.375244,1480
813.493896,1414
813.612671,1455
813.731384,1432
813.850037,1447
813.96875,1487
814.087524,1474
814.206238,1467
814.324951,1428
814.443604,1444
814.562256,1418
814.68103,1430
814.799683,1495
814.918335,1441
815.037109,1453
815.155762,1471
815.274475,1454
815.393188,1426
815.511841,1491
815.630554,1418
815.749146,1389
815.867859,1439
815.986572,1433
816.105164,1457
816.223877,1423
816.342529,1430
816.461182,1427
816.579895,1452
816.698486,1447
816.817139,1377
816.935791,1422
817.054504,1465
817.173096,1472
817.291748,1458
817.4104,1447
817.529053,1425
817.647644,1429
817.766235,1421
817.884949,1415
818.00354,1426
818.122192,1418
818.240845,1395
818.359436,1431
818.478088,1422
818.59668,1379
818.715271,1409
818.833923,1390
818.952515,1390
819.071106,1404
819.189758,1394
819.30835,1359
819.426941,1381
819.545532,1407
819.664124,1368
819.782715,1354
819.901306,1376
820.019897,1349
820.138489,1392
820.25708,1361
820.375671,1358
820.494202,1372
820.612732,1381
820.731384,1367
820.849915,1408
820.968506,1344
821.087097,1395
821.205627,1404
821.324158,1407
821.442749,1352
821.561279,1351
821.679871,1361
821.798401,1406
821.916931,1370
822.035461,1332
822.154053,1353
822.272583,1361
822.391174,1384
822.509583,1342
822.628174,1372
822.746704,1395
822.865234,1371
822.983765,1349
823.102295,1346
823.220825,1327
823.339294,1338
823.457825,1364
823.576355,1394
823.694824,1366
823.813354,1360
823.931885,1373
824.050354,1339
824.168884,1379
824.287354,1374
824.405823,1329
824.524353,1351
824.642822,1301
824.761353,1366
824.879822,1356
824.998291,1354
825.116699,1379
825.235291,1331
825.353699,1378
825.472168,1326
825.590637,1346
825.709106,1374
825.827576,1325
825.946045,1352
826.064453,1331
826.182983,1384
826.301392,1348
826.4198,1366
826.53833,1351
826.656738,1324
826.775208,1357
826.893677,1341
827.012024,1341
827.130493,1343
827.248962,1370
827.36731,1340
827.485779,1358
827.604248,1339
827.722595,1294
827.841064,1312
827.959412,1321
828.077942,1310
828.196289,1314
828.314636,1327
828.433105,1317
828.551514,1347
828.669861,1358
828.78833,1311
828.906677,1299
829.025085,1315
829.143433,1327
829.261841,1303
829.38031,1355
829.498657,1320
829.617004,1361
829.735413,1263
829.85376,1380
829.972107,1336
830.090515,1314
830.208862,1350
830.327209,1323
830.445557,1273
830.563904,1306
830.682312,1352
830.800659,1299
830.919006,1303
831.037354,1327
831.155701,1343
831.274048,1280
831.392395,1355
831.51062,1307
831.629028,1320
831.747314,1302
831.865662,1276
831.984009,1290
832.102356,1316
832.220642,1320
832.338928,1351
832.457275,1292
832.575623,1305
832.693909,1312
832.812134,1340
832.930481,1315
833.048828,1344
833.167114,1340
833.2854,1339
833.403687,1341
833.521973,1321
833.640259,1297
833.758545,1322
833.876831,1342
833.995056,1288
834.113281,1347
834.231628,1361
834.349915,1275
834.468201,1334
834.586426,1310
834.704651,1328
834.822998,1308
834.941162,1318
835.059448,1314
835.177673,1348
835.295959,1284
835.414246,1353
835.53241,1323
835.650635,1317
835.768921,1321
835.887146,1327
836.005371,1307
836.123596,1317
836.241821,1305
836.360046,1356
836.478271,1270
836.596497,1330
836.714722,1289
836.832886,1330
836.95105,1334
837.069336,1279
837.1875,1328
837.305725,1314
837.423889,1275
837.542053,1285
837.660339,1315
837.778503,1274
837.896667,1332
838.014832,1301
838.132996,1305
838.25116,1300
838.369385,1291
838.487488,1311
838.605713,1325
838.723877,1287
838.84198,1318
838.960205,1322
839.078308,1286
839.196472,1291
839.314636,1343
839.4328,1312
839.550964,1280
839.669067,1257
839.787231,1294
839.905396,1287
840.023499,1271
840.141602,1292
840.259766,1329
840.377869,1306
840.495972,1313
840.614136,1300
840.732239,1308
840.850342,1345
840.968445,1302
841.086548,1289
841.204651,1267
841.322754,1325
841.440918,1252
841.55896,1321
841.677002,1291
841.795166,1305
841.913208,1252
842.031311,1339
842.149353,1316
842.267456,1311
842.385498,1297
842.503601,1280
842.621643,1326
842.739746,1271
842.857788,1310
842.97583,1307
843.093933,1286
843.211975,1265
843.330017,1308
843.44812,1284
843.566101,1263
843.684204,1316
843.802246,1303
843.920227,1305
844.038269,1317
844.156311,1273
844.274292,1288
844.392395,1332
844.510376,1276
844.628357,1318
844.74646,1264
844.864441,1297
844.982422,1312
845.100403,1276
845.218384,1288
845.336426,1278
845.454468,1298
845.572449,1256
845.69043,1286
845.808411,1275
845.926453,1302
846.044373,1317
846.162354,1260
846.280396,1302
846.398315,1283
846.516296,1275
846.634216,1288
846.752197,1295
846.870178,1292
846.988098,1328
847.106079,1263
847.22406,1314
847.34198,1296
847.4599,1307
847.577881,1296
847.695801,1313
847.813782,1267
847.931641,1296
848.049561,1251
848.167603,1273
848.285461,1330
848.403381,1308
848.521362,1272
848.639221,1297
848.75708,1306
848.875,1267
848.99292,1305
849.110901,1311
849.22876,1236
849.34668,1284
849.464539,1287
849.582458,1299
849.700317,1259
849.818176,1313
849.936096,1327
850.053955,1316
850.171875,1305
850.289673,1314
850.407593,1302
850.525452,1320
850.643311,1272
850.761169,1261
850.878967,1284
850.996887,1336
851.114746,1286
851.232544,1287
851.350403,1327
851.468262,1324
851.58606,1302
851.703979,1302
851.821777,1267
851.939636,1279
852.057434,1314
852.175232,1298
852.293091,1295
852.410889,1305
852.528687,1317
852.646545,1314
852.764343,1282
852.88208,1299
852.999939,1322
853.117676,1294
853.235535,1323
853.353271,1307
853.471069,1305
853.588928,1305
853.706604,1283
853.824402,1318
853.9422,1288
854.059998,1274
854.177734,1304
854.295532,1318
854.413269,1306
854.531006,1275
854.648804,1313
854.766541,1281
854.884277,1326
855.002014,1278
855.119751,1323
855.237549,1298
855.355225,1335
855.473022,1295
855.590698,1316
855.708435,1275
855.826172,1291
855.943848,1292
856.061646,1308
856.179321,1329
856.296997,1278
856.414795,1310
856.53241,1308
856.650085,1267
856.767822,1313
856.885559,1303
857.003174,1275
857.120911,1339
857.238586,1324
857.356201,1310
857.473938,1287
857.591614,1300
857.709351,1319
857.826965,1310
857.944641,1326
858.062317,1271
858.179993,1318
858.297668,1316
858.415283,1348
858.532959,1319
858.650574,1310
858.768188,1308
858.885803,1327
859.003479,1330
859.121094,1288
859.23877,1286
859.356384,1266
859.473999,1298
859.591675,1307
859.709229,1272
859.826843,1326
859.944458,1322
860.062012,1309
860.179626,1335
860.297302,1334
860.414856,1288
860.532471,1298
860.650024,1353
860.767639,1320
860.885193,1330
861.002808,1284
861.120361,1311
861.237976,1304
861.35553,1305
861.473022,1277
861.590698,1315
861.708191,1306
861.825745,1311
861.943298,1327
862.060852,1321
862.178406,1313
862.295959,1301
862.413513,1287
862.531006,1327
862.64856,1320
862.766113,1325
862.883667,1289
863.00116,1320
863.118713,1301
863.236206,1326
863.353699,1313
863.471252,1250
863.588745,1264
863.706177,1341
863.82373,1287
863.941162,1323
864.058716,1277
864.176208,1324
864.29364,1318
864.411194,1315
864.528687,1344
864.646118,1314
864.763611,1302
864.881042,1310
864.998535,1331
865.116028,1334
865.233459,1334
865.350891,1274
865.468384,1318
865.585754,1306
865.703308,1286
865.820679,1351
865.938171,1273
866.055542,1291
866.173035,1337
866.290466,1304
866.407837,1304
866.52533,1309
866.6427,1332
866.760071,1316
866.877563,1295
866.994934,1305
867.112305,1305
867.229736,1226
867.347107,1310
867.464539,1313
867.58197,1315
867.699341,1323
867.81665,1344
867.934082,1293
868.051453,1317
868.168823,1331
868.286194,1305
868.403564,1325
868.520935,1338
868.638306,1327
868.755676,1322
868.872986,1315
868.990295,1329
869.107727,1320
869.225037,1306
869.342346,1294
869.459717,1313
869.577026,1319
869.694336,1380
869.811707,1317
869.929016,1294
870.046326,1321
870.163635,1315
870.280945,1348
870.398254,1302
870.515564,1366
870.632812,1325
870.750183,1332
870.867432,1304
870.984741,1295
871.102051,1320
871.219299,1330
871.336609,1301
871.453918,1318
871.571106,1300
871.688416,1289
871.805664,1298
871.922852,1335
872.040222,1311
872.157471,1354
872.274719,1342
872.391968,1351
872.509155,1349
872.626465,1310
872.743652,1342
872.860962,1331
872.978149,1301
873.095337,1326
873.212646,1287
873.329834,1344
873.44696,1314
873.564209,1366
873.681396,1366
873.798645,1370
873.915894,1376
874.03302,1313
874.150208,1352
874.267456,1308
874.384583,1311
874.501831,1319
874.618958,1333
874.736145,1304
874.853333,1320
874.970459,1324
875.087646,1353
875.204834,1338
875.32196,1365
875.439148,1326
875.556274,1316
875.673401,1349
875.790527,1340
875.907715,1303
876.024841,1302
876.141968,1320
876.259094,1368
876.376282,1351
876.493347,1309
876.610474,1368
876.7276,1366
876.844727,1328
876.961853,1364
877.078918,1332
877.195984,1344
877.313171,1341
877.430237,1334
877.547302,1331
877.664368,1342
877.781433,1318
877.898499,1305
878.015625,1381
878.13269,1338
878.249695,1328
878.366821,1317
878.483887,1336
878.600952,1339
878.717957,1316
878.834961,1326
878.952087,1374
879.069092,1320
879.186157,1329
879.303162,1320
879.420227,1351
879.537231,1348
879.654236,1317
879.77124,1336
879.888306,1313
880.005249,1369
880.122314,1321
880.239319,1394
880.356323,1289
880.473328,1346
880.590271,1320
880.707275,1365
880.824341,1334
880.941284,1337
881.058228,1353
881.175232,1326
881.292236,1327
881.40918,1320
881.526123,1329
881.643066,1333
881.760071,1365
881.877014,1306
881.993958,1333
882.11084,1325
882.227783,1379
882.344727,1380
882.46167,1334
882.578613,1320
882.695618,1369
882.812439,1328
882.929382,1364
883.046326,1341
883.163208,1367
883.280151,1337
883.397034,1355
883.513916,1325
883.630798,1395
883.747742,1313
883.864563,1355
883.981506,1327
884.098389,1357
884.21521,1378
884.332153,1337
884.448975,1388
884.565796,1318
884.682678,1370
884.7995,1354
884.916443,1345
885.033264,1337
885.150085,1373
885.266968,1389
885.383789,1356
885.500671,1390
885.617493,1355
885.734314,1390
885.851196,1399
885.967896,1386
886.084717,1388
886.201599,1402
886.318359,1402
886.435181,1402
886.552002,1376
886.668762,1371
886.785645,1355
886.902344,1375
887.019165,1381
887.135925,1389
887.252747,1410
887.369446,1419
887.486267,1378
887.603027,1335
887.719788,1380
887.836548,1399
887.953247,1375
888.070068,1369
888.186829,1351
888.303528,1413
888.420288,1358
888.536987,1382
888.653687,1345
888.770447,1389
888.887146,1367
889.003967,1352
889.120667,1326
889.237305,1344
889.354065,1391
889.470703,1351
889.587463,1356
889.704163,1318
889.820862,1354
889.937561,1353
890.054199,1366
890.170837,1365
890.287598,1382
890.404236,1355
890.520874,1389
890.637634,1411
890.754211,1388
890.87085,1375
890.987549,1400
891.104187,1368
891.220886,1348
891.337463,1418
891.454102,1334
891.57074,1410
891.687378,1377
891.804077,1401
891.920654,1353
892.037231,1375
892.15387,1399
892.270447,1347
892.387085,1417
892.503723,1372
892.6203,1387
892.736877,1379
892.853516,1401
892.970032,1389
893.08667,1420
893.203186,1356
893.319763,1410
893.43634,1349
893.552917,1374
893.669556,1383
893.786011,1426
893.902588,1364
894.019165,1409
894.135681,1376
894.252197,1389
894.368835,1413
894.485291,1387
894.601868,1405
894.718384,1412
894.8349,1387
894.951355,1402
895.067932,1398
895.184448,1367
895.300964,1416
895.417419,1407
895.533936,1391
895.650452,1390
895.766907,1408
895.883423,1375
895.999878,1403
896.116333,1378
896.232849,1424
896.349304,1388
896.465759,1394
896.582214,1364
896.698669,1395
896.815125,1352
896.931641,1397
897.048035,1423
897.164551,1410
897.280884,1332
897.397339,1428
897.513794,1414
897.630249,1411
897.746582,1401
897.863098,1386
897.979431,1420
898.095886,1358
898.212341,1412
898.328674,1416
898.445129,1450
898.561462,1351
898.677795,1407
898.794312,1374
898.910645,1413
899.026978,1379
899.143433,1389
899.259766,1393
899.37616,1413
899.492493,1396
899.608765,1439
899.725159,1393
899.841553,1389
899.957947,1427
900.07428,1404
900.190552,1381
900.306946,1392
900.423157,1389
900.53949,1401
900.655884,1411
900.772156,1392
900.888489,1422
901.004822,1376
901.121033,1431
901.237366,1390
901.353699,1417
901.46991,1408
901.586304,1433
901.702515,1392
901.818787,1391
901.93512,1386
902.051331,1423
902.167603,1354
902.283875,1429
902.400085,1396
902.516418,1420
902.632629,1405
902.74884,1406
902.865112,1438
902.981384,1443
903.097595,1406
903.213867,1414
903.330017,1463
903.446289,1424
903.5625,1450
903.67865,1417
903.794922,1416
903.911072,1391
904.027344,1433
904.143494,1414
904.259705,1437
904.375916,1413
904.492065,1417
904.608215,1411
904.724426,1422
904.840576,1425
904.956726,1379
905.072876,1422
905.189087,1424
905.305176,1419
905.421387,1457
905.537537,1423
905.653687,1421
905.769775,1454
905.885925,1415
906.002014,1410
906.118164,1461
906.234314,1403
906.350403,1411
906.466492,1429
906.582642,1416
906.69873,1421
906.814758,1480
906.930908,1471
907.046936,1381
907.163086,1420
907.279175,1436
907.395264,1457
907.511353,1381
907.62738,1429
907.743408,1435
907.859497,1421
907.975525,1464
908.091553,1416
908.207703,1399
908.32373,1424
908.439758,1426
908.555786,1446
908.671814,1463
908.787842,1430
908.90387,1423
909.019775,1404
909.135864,1443
909.251892,1410
909.367859,1465
909.483826,1444
909.599854,1393
909.715881,1406
909.831848,1433
909.947815,1430
910.063782,1431
910.179749,1449
910.295776,1404
910.411743,1376
910.527649,1454
910.643616,1450
910.759583,1404
910.875488,1422
910.991455,1416
911.107361,1446
911.223267,1414
911.339294,1442
911.4552,1441
911.571106,1457
911.687073,1423
911.802979,1399
911.918823,1431
912.034729,1415
912.150635,1497
912.266602,1442
912.382446,1435
912.498352,1455
912.614197,1441
912.730103,1438
912.846008,1420
