792.44574,2120
792.56488,2126
792.68396,2112
792.80304,2106
792.92218,2092
793.041199,2078
793.160339,2009
793.279419,2040
793.398499,2041
793.517578,2021
793.636658,2036
793.755737,1984
793.874817,2043
793.993896,2013
794.112976,2010
794.232056,2039
794.351074,2001
794.470215,1948
794.589233,1944
794.708313,1985
794.827393,1962
794.946411,1929
795.065552,1931
795.18457,1941
795.303589,1969
795.422668,1956
795.541687,1927
795.660767,1944
795.779846,1914
795.898865,1923
796.017883,1909
796.136963,1913
796.255981,1892
796.375061,1968
796.49408,1934
796.613037,1919
796.732117,1902
796.851135,1914
796.970154,1891
797.089233,1930
797.208191,1881
797.327271,1890
797.446228,1902
797.565186,1911
797.684265,1887
797.803223,1927
797.922241,1911
798.04126,1932
798.160278,1934
798.279297,1906
798.398315,1918
798.517273,1857
798.636292,1881
798.75531,1895
798.874268,1931
798.993286,1905
799.112244,1888
799.231323,1881
799.350281,1871
799.469238,1905
799.588257,1912
799.707153,1905
799.826111,1914
799.945129,1906
800.064087,1925
800.183044,1911
800.302063,1929
800.421021,1878
800.539978,1905
800.658936,1916
800.777893,1906
800.896912,1924
801.015747,1869
801.134705,1891
801.253723,2006
801.37262,1896
801.491638,1959
801.610535,1923
801.729492,1924
801.84845,1955
801.967407,1966
802.086243,1958
802.205261,1986
802.324158,1933
802.443115,1964
802.562073,1960
802.680969,2009
802.799927,2008
802.918762,1940
803.037659,1930
803.156677,2010
803.275574,2017
803.39447,1945
803.513428,1965
803.632263,1975
803.751221,1953
803.870117,1999
803.989014,2002
804.107971,1975
804.226746,1984
804.345642,2041
804.4646,1995
804.583496,2042
804.702393,2027
804.821228,2042
804.940125,2084
805.059021,1992
805.177917,1992
805.296814,2076
805.415649,2060
805.534546,2069
805.653442,2023
805.772278,2092
805.891113,2053
806.01001,2085
806.128906,2025
806.247742,2105
806.366577,2117
806.485413,2089
806.604309,2089
806.723145,2093
806.84198,2076
806.960876,2081
807.079712,2121
807.198486,2116
807.317383,2084
807.436218,2095
807.554993,2073
807.673889,2066
807.792725,2080
807.91156,2077
808.030396,2065
808.14917,2116
808.268005,2141
808.386841,2117
808.505676,2060
808.624451,2126
808.743286,2138
808.862122,2178
808.980896,2180
809.099731,2142
809.218506,2097
809.337341,2097
809.456116,2123
809.57489,2165
809.693726,2155
809.8125,2147
809.931274,2177
810.050049,2107
810.168884,2152
810.287659,2179
810.406372,2139
810.525269,2174
810.643982,2143
810.762756,2186
810.881531,2156
811.000305,2204
811.11908,2159
811.237854,2115
811.356567,2177
811.475403,2191
811.594116,2184
811.71283,2152
811.831604,2169
811.950378,2161
812.069153,2209
812.187927,2157
812.30658,2211
812.425415,2208
812.544128,2165
812.662781,2254
812.781616,2181
812.900269,2136
813.019043,2201
813.137756,2226
813.256531,2195
813.375244,2177
813.493896,2159
813.612671,2193
813.731384,2177
813.850037,2201
813.96875,2137
814.087524,2171
814.206238,2164
814.324951,2123
814.443604,2140
814.562256,2119
814.68103,2151
814.799683,2156
814.918335,2102
815.037109,2148
815.155762,2114
815.274475,2076
815.393188,2091
815.511841,2148
815.630554,2118
815.749146,2092
815.867859,2082
815.986572,2111
816.105164,2066
816.223877,2074
816.342529,2119
816.461182,2101
816.579895,2087
816.698486,2104
816.817139,2113
816.935791,2054
817.054504,2131
817.173096,2127
817.291748,2075
817.4104,2044
817.529053,1990
817.647644,2015
817.766235,1942
817.884949,1901
818.00354,1904
818.122192,1881
818.240845,1797
818.359436,1747
818.478088,1767
818.59668,1760
818.715271,1748
818.833923,1662
818.952515,1668
819.071106,1647
819.189758,1633
819.30835,1573
819.426941,1580
819.545532,1610
819.664124,1581
819.782715,1509
819.901306,1542
820.019897,1566
820.138489,1530
820.25708,1557
820.375671,1479
820.494202,1520
820.612732,1572
820.731384,1510
820.849915,1532
820.968506,1443
821.087097,1477
821.205627,1504
821.324158,1542
821.442749,1520
821.561279,1435
821.679871,1524
821.798401,1448
821.916931,1480
822.035461,1470
822.154053,1456
822.272583,1502
822.391174,1456
822.509583,1461
822.628174,1442
822.746704,1448
822.865234,1441
822.983765,1493
823.102295,1435
823.220825,1445
823.339294,1444
823.457825,1435
823.576355,1450
823.694824,1495
823.813354,1477
823.931885,1464
824.050354,1454
824.168884,1488
824.287354,1470
824.405823,1493
824.524353,1484
824.642822,1502
824.761353,1496
824.879822,1461
824.998291,1453
825.116699,1442
825.235291,1494
825.353699,1444
825.472168,1444
825.590637,1422
825.709106,1429
825.827576,1461
825.946045,1431
826.064453,1445
826.182983,1424
826.301392,1390
826.4198,1457
826.53833,1382
826.656738,1441
826.775208,1379
826.893677,1403
827.012024,1362
827.130493,1397
827.248962,1409
827.36731,1375
827.485779,1376
827.604248,1366
827.722595,1337
827.841064,1351
827.959412,1390
828.077942,1342
828.196289,1359
828.314636,1388
828.433105,1399
828.551514,1363
828.669861,1385
828.78833,1367
828.906677,1342
829.025085,1363
829.143433,1363
829.261841,1388
829.38031,1336
829.498657,1356
829.617004,1307
829.735413,1396
829.85376,1358
829.972107,1368
830.090515,1325
830.208862,1371
830.327209,1343
830.445557,1321
830.563904,1337
830.682312,1303
830.800659,1305
830.919006,1362
831.037354,1362
831.155701,1334
831.274048,1365
831.392395,1317
831.51062,1395
831.629028,1341
831.747314,1301
831.865662,1365
831.984009,1335
832.102356,1353
832.220642,1357
832.338928,1344
832.457275,1289
832.575623,1389
832.693909,1303
832.812134,1325
832.930481,1337
833.048828,1355
833.167114,1344
833.2854,1370
833.403687,1342
833.521973,1350
833.640259,1348
833.758545,1352
833.876831,1318
833.995056,1339
834.113281,1339
834.231628,1376
834.349915,1323
834.468201,1395
834.586426,1367
834.704651,1366
834.822998,1323
834.941162,1364
835.059448,1358
835.177673,1369
835.295959,1351
835.414246,1343
835.53241,1353
835.650635,1353
835.768921,1323
835.887146,1337
836.005371,1354
836.123596,1369
836.241821,1410
836.360046,1388
836.478271,1391
836.596497,1392
836.714722,1406
836.832886,1425
836.95105,1441
837.069336,1414
837.1875,1409
837.305725,1431
837.423889,1463
837.542053,1435
837.660339,1385
837.778503,1401
837.896667,1387
838.014832,1398
838.132996,1413
838.25116,1409
838.369385,1423
838.487488,1453
838.605713,1436
838.723877,1408
838.84198,1422
838.960205,1439
839.078308,1414
839.196472,1393
839.314636,1432
839.4328,1439
839.550964,1354
839.669067,1412
839.787231,1438
839.905396,1381
840.023499,1391
840.141602,1371
840.259766,1387
840.377869,1399
840.495972,1405
840.614136,1406
840.732239,1389
840.850342,1393
840.968445,1356
841.086548,1396
841.204651,1343
841.322754,1385
841.440918,1389
841.55896,1386
841.677002,1369
841.795166,1340
841.913208,1363
842.031311,1360
842.149353,1382
842.267456,1360
842.385498,1355
842.503601,1347
842.621643,1311
842.739746,1348
842.857788,1315
842.97583,1330
843.093933,1340
843.211975,1357
843.330017,1352
843.44812,1316
843.566101,1275
843.684204,1336
843.802246,1307
843.920227,1337
844.038269,1326
844.156311,1305
844.274292,1327
844.392395,1328
844.510376,1326
844.628357,1323
844.74646,1305
844.864441,1352
844.982422,1344
845.100403,1314
845.218384,1331
845.336426,1287
845.454468,1334
845.572449,1341
845.69043,1366
845.808411,1337
845.926453,1287
846.044373,1314
846.162354,1308
846.280396,1317
846.398315,1308
846.516296,1310
846.634216,1309
846.752197,1307
846.870178,1292
846.988098,1322
847.106079,1339
847.22406,1296
847.34198,1338
847.4599,1302
847.577881,1310
847.695801,1287
847.813782,1325
847.931641,1311
848.049561,1321
848.167603,1310
848.285461,1311
848.403381,1300
848.521362,1328
848.639221,1286
848.75708,1314
848.875,1307
848.99292,1332
849.110901,1284
849.22876,1278
849.34668,1332
849.464539,1336
849.582458,1335
849.700317,1328
849.818176,1284
849.936096,1329
850.053955,1288
850.171875,1344
850.289673,1298
850.407593,1290
850.525452,1336
850.643311,1357
850.761169,1295
850.878967,1357
850.996887,1306
851.114746,1353
851.232544,1329
851.350403,1333
851.468262,1337
851.58606,1308
851.703979,1321
851.821777,1333
851.939636,1347
852.057434,1288
852.175232,1309
852.293091,1370
852.410889,1339
852.528687,1312
852.646545,1324
852.764343,1324
852.88208,1361
852.999939,1322
853.117676,1351
853.235535,1309
853.353271,1349
853.471069,1334
853.588928,1326
853.706604,1328
853.824402,1375
853.9422,1337
854.059998,1290
854.177734,1353
854.295532,1304
854.413269,1349
854.531006,1350
854.648804,1355
854.766541,1383
854.884277,1361
855.002014,1343
855.119751,1384
855.237549,1339
855.355225,1340
855.473022,1364
855.590698,1310
855.708435,1340
855.826172,1370
855.943848,1373
856.061646,1378
856.179321,1373
856.296997,1388
856.414795,1380
856.53241,1335
856.650085,1386
856.767822,1372
856.885559,1402
857.003174,1336
857.120911,1377
857.238586,1373
857.356201,1384
857.473938,1383
857.591614,1384
857.709351,1357
857.826965,1395
857.944641,1373
858.062317,1360
858.179993,1355
858.297668,1296
858.415283,1346
858.532959,1382
858.650574,1324
858.768188,1369
858.885803,1385
859.003479,1317
859.121094,1346
859.23877,1357
859.356384,1360
859.473999,1351
859.591675,1299
859.709229,1362
859.826843,1384
859.944458,1369
860.062012,1350
860.179626,1330
860.297302,1367
860.414856,1331
860.532471,1369
860.650024,1385
860.767639,1348
860.885193,1381
861.002808,1310
861.120361,1333
861.237976,1390
861.35553,1373
861.473022,1378
861.590698,1333
861.708191,1385
861.825745,1355
861.943298,1364
862.060852,1354
862.178406,1352
862.295959,1355
862.413513,1360
862.531006,1348
862.64856,1372
862.766113,1356
862.883667,1337
863.00116,1372
863.118713,1341
863.236206,1356
863.353699,1352
863.471252,1353
863.588745,1405
863.706177,1362
863.82373,1355
863.941162,1359
864.058716,1360
864.176208,1357
864.29364,1340
864.411194,1349
864.528687,1367
864.646118,1393
864.763611,1349
864.881042,1390
864.998535,1395
865.116028,1358
865.233459,1354
865.350891,1362
865.468384,1395
865.585754,1366
865.703308,1394
865.820679,1383
865.938171,1345
866.055542,1381
866.173035,1394
866.290466,1360
866.407837,1426
866.52533,1369
866.6427,1389
866.760071,1393
866.877563,1374
866.994934,1399
867.112305,1391
867.229736,1346
867.347107,1382
867.464539,1356
867.58197,1372
867.699341,1382
867.81665,1383
867.934082,1391
868.051453,1360
868.168823,1426
868.286194,1377
868.403564,1372
868.520935,1374
868.638306,1380
868.755676,1399
868.872986,1389
868.990295,1352
869.107727,1374
869.225037,1366
869.342346,1403
869.459717,1404
869.577026,1398
869.694336,1365
869.811707,1400
869.929016,1380
870.046326,1393
870.163635,1346
870.280945,1409
870.398254,1389
870.515564,1393
870.632812,1390
870.750183,1372
870.867432,1403
870.984741,1358
871.102051,1383
871.219299,1377
871.336609,1379
871.453918,1390
871.571106,1385
871.688416,1389
871.805664,1395
871.922852,1383
872.040222,1346
872.157471,1368
872.274719,1366
872.391968,1380
872.509155,1379
872.626465,1377
872.743652,1330
872.860962,1368
872.978149,1382
873.095337,1397
873.212646,1388
873.329834,1438
873.44696,1347
873.564209,1361
873.681396,1392
873.798645,1400
873.915894,1417
874.03302,1401
874.150208,1419
874.267456,1395
874.384583,1362
874.501831,1377
874.618958,1387
874.736145,1392
874.853333,1343
874.970459,1406
875.087646,1345
875.204834,1415
875.32196,1388
875.439148,1358
875.556274,1378
875.673401,1388
875.790527,1413
875.907715,1419
876.024841,1399
876.141968,1391
876.259094,1389
876.376282,1374
876.493347,1399
876.610474,1386
876.7276,1396
876.844727,1435
876.961853,1396
877.078918,1392
877.195984,1391
877.313171,1392
877.430237,1403
877.547302,1410
877.664368,1428
877.781433,1410
877.898499,1415
878.015625,1439
878.13269,1345
878.249695,1448
878.366821,1373
878.483887,1393
878.600952,1403
878.717957,1394
878.834961,1391
878.952087,1387
879.069092,1397
879.186157,1393
879.303162,1412
879.420227,1381
879.537231,1373
879.654236,1420
879.77124,1361
879.888306,1395
880.005249,1404
880.122314,1395
880.239319,1413
880.356323,1421
880.473328,1423
880.590271,1400
880.707275,1399
880.824341,1434
880.941284,1391
881.058228,1428
881.175232,1424
881.292236,1414
881.40918,1431
881.526123,1383
881.643066,1434
881.760071,1417
881.877014,1440
881.993958,1388
882.11084,1427
882.227783,1416
882.344727,1406
882.46167,1408
882.578613,1386
882.695618,1432
882.812439,1395
882.929382,1404
883.046326,1415
883.163208,1423
883.280151,1419
883.397034,1432
883.513916,1404
883.630798,1430
883.747742,1442
883.864563,1445
883.981506,1449
884.098389,1431
884.21521,1430
884.332153,1449
884.448975,1428
884.565796,1461
884.682678,1395
884.7995,1439
884.916443,1446
885.033264,1475
885.150085,1402
885.266968,1412
885.383789,1399
885.500671,1475
885.617493,1441
885.734314,1432
885.851196,1392
885.967896,1482
886.084717,1408
886.201599,1469
886.318359,1388
886.435181,1448
886.552002,1438
886.668762,1430
886.785645,1446
886.902344,1438
887.019165,1430
887.135925,1428
887.252747,1470
887.369446,1489
887.486267,1430
887.603027,1420
887.719788,1449
887.836548,1420
887.953247,1439
888.070068,1478
888.186829,1479
888.303528,1497
888.420288,1488
888.536987,1456
888.653687,1439
888.770447,1453
888.887146,1445
889.003967,1424
889.120667,1419
889.237305,1458
889.354065,1447
889.470703,1473
889.587463,1452
889.704163,1480
889.820862,1464
889.937561,1419
890.054199,1441
890.170837,1465
890.287598,1456
890.404236,1428
890.520874,1484
890.637634,1459
890.754211,1476
890.87085,1493
890.987549,1451
891.104187,1441
891.220886,1438
891.337463,1462
891.454102,1509
891.57074,1491
891.687378,1452
891.804077,1476
891.920654,1475
892.037231,1461
892.15387,1463
892.270447,1486
892.387085,1468
892.503723,1475
892.6203,1471
892.736877,1508
892.853516,1491
892.970032,1508
893.08667,1476
893.203186,1429
893.319763,1509
893.43634,1460
893.552917,1460
893.669556,1467
893.786011,1488
893.902588,1469
894.019165,1468
894.135681,1470
894.252197,1484
894.368835,1463
894.485291,1522
894.601868,1494
894.718384,1501
894.8349,1493
894.951355,1475
895.067932,1500
895.184448,1443
895.300964,1487
895.417419,1508
895.533936,1519
895.650452,1470
895.766907,1512
895.883423,1483
895.999878,1469
896.116333,1463
896.232849,1434
896.349304,1525
896.465759,1482
896.582214,1485
896.698669,1481
896.815125,1497
896.931641,1482
897.048035,1459
897.164551,1492
897.280884,1487
897.397339,1468
897.513794,1482
897.630249,1468
897.746582,1524
897.863098,1460
897.979431,1525
898.095886,1499
898.212341,1500
898.328674,1541
898.445129,1517
898.561462,1513
898.677795,1484
898.794312,1500
898.910645,1447
899.026978,1488
899.143433,1485
899.259766,1494
899.37616,1449
899.492493,1522
899.608765,1483
899.725159,1484
899.841553,1504
899.957947,1502
900.07428,1512
900.190552,1461
900.306946,1519
900.423157,1504
900.53949,1502
900.655884,1503
900.772156,1530
900.888489,1488
901.004822,1499
901.121033,1523
901.237366,1495
901.353699,1483
901.46991,1536
901.586304,1494
901.702515,1465
901.818787,1472
901.93512,1476
902.051331,1493
902.167603,1505
902.283875,1527
902.400085,1459
902.516418,1507
902.632629,1511
902.74884,1527
902.865112,1490
902.981384,1469
903.097595,1562
903.213867,1518
903.330017,1530
903.446289,1557
903.5625,1531
903.67865,1557
903.794922,1509
903.911072,1522
904.027344,1520
904.143494,1526
904.259705,1534
904.375916,1530
904.492065,1520
904.608215,1529
904.724426,1526
904.840576,1522
904.956726,1527
905.072876,1514
905.189087,1449
905.305176,1550
905.421387,1546
905.537537,1526
905.653687,1501
905.769775,1537
905.885925,1500
906.002014,1533
906.118164,1533
906.234314,1512
906.350403,1519
906.466492,1494
906.582642,1528
906.69873,1504
906.814758,1538
906.930908,1539
907.046936,1508
907.163086,1531
907.279175,1528
907.395264,1551
907.511353,1529
907.62738,1538
907.743408,1515
907.859497,1573
907.975525,1532
908.091553,1568
908.207703,1509
908.32373,1539
908.439758,1519
908.555786,1494
908.671814,1534
908.787842,1565
908.90387,1537
909.019775,1526
909.135864,1522
909.251892,1494
909.367859,1562
909.483826,1522
909.599854,1553
909.715881,1542
909.831848,1537
909.947815,1551
910.063782,1534
910.179749,1529
910.295776,1523
910.411743,1560
910.527649,1519
910.643616,1592
910.759583,1570
910.875488,1569
910.991455,1539
911.107361,1535
911.223267,1548
911.339294,1558
911.4552,1559
911.571106,1489
911.687073,1554
911.802979,1516
911.918823,1534
912.034729,1563
912.150635,1532
912.266602,1546
912.382446,1519
912.498352,1558
912.614197,1528
912.730103,1568
912.846008,1520
792.44574,2223
792.56488,2111
792.68396,2187
792.80304,2123
792.92218,2117
793.041199,2034
793.160339,2115
793.279419,2112
793.398499,2089
793.517578,2112
793.636658,2036
793.755737,2075
793.874817,2093
793.993896,2095
794.112976,1992
794.232056,2044
794.351074,2015
794.470215,2019
794.589233,2004
794.708313,1980
794.827393,2016
794.946411,1919
795.065552,1957
795.18457,1986
795.303589,2012
795.422668,1968
795.541687,1977
795.660767,1999
795.779846,2019
795.898865,1994
796.017883,1989
796.136963,1955
796.255981,1977
796.375061,1987
796.49408,1954
796.613037,1975
796.732117,1959
796.851135,1914
796.970154,1966
797.089233,1934
797.208191,1973
797.327271,1959
797.446228,1927
797.565186,1980
797.684265,1957
797.803223,1900
797.922241,1909
798.04126,1924
798.160278,1921
798.279297,1923
798.398315,1976
798.517273,1938
798.636292,1897
798.75531,1903
798.874268,1904
798.993286,1885
799.112244,1901
799.231323,1908
799.350281,1909
799.469238,1918
799.588257,1957
799.707153,1903
799.826111,1946
799.945129,1945
800.064087,1930
800.183044,1925
800.302063,1912
800.421021,1971
800.539978,1923
800.658936,1922
800.777893,1951
800.896912,1927
801.015747,1904
801.134705,1941
801.253723,1901
801.37262,1944
801.491638,1941
801.610535,1953
801.729492,2009
801.84845,1969
801.967407,1985
802.086243,1983
802.205261,1914
802.324158,1935
802.443115,2007
802.562073,2017
802.680969,2017
802.799927,1985
802.918762,2018
803.037659,1990
803.156677,2066
803.275574,2013
803.39447,2023
803.513428,2006
803.632263,2022
803.751221,2067
803.870117,2026
803.989014,2074
804.107971,1951
804.226746,1994
804.345642,2052
804.4646,2069
804.583496,2131
804.702393,2088
804.821228,2035
804.940125,2066
805.059021,2030
805.177917,2053
805.296814,2071
805.415649,2066
805.534546,2116
805.653442,2049
805.772278,2092
805.891113,2065
806.01001,2105
806.128906,2103
806.247742,2089
806.366577,2092
806.485413,2123
806.604309,2133
806.723145,2114
806.84198,2059
806.960876,2092
807.079712,2093
807.198486,2043
807.317383,2144
807.436218,2105
807.554993,2160
807.673889,2120
807.792725,2139
807.91156,2118
808.030396,2153
808.14917,2134
808.268005,2188
808.386841,2159
808.505676,2172
808.624451,2150
808.743286,2153
808.862122,2147
808.980896,2163
809.099731,2211
809.218506,2183
809.337341,2222
809.456116,2220
809.57489,2214
809.693726,2185
809.8125,2194
809.931274,2202
810.050049,2206
810.168884,2188
810.287659,2245
810.406372,2192
810.525269,2195
810.643982,2177
810.762756,2180
810.881531,2146
811.000305,2226
811.11908,2194
811.237854,2176
811.356567,2200
811.475403,2178
811.594116,2209
811.71283,2205
811.831604,2179
811.950378,2250
812.069153,2228
812.187927,2226
812.30658,2217
812.425415,2227
812.544128,2219
812.662781,2252
812.781616,2224
812.900269,2190
813.019043,2193
813.137756,2153
813.256531,2209
813.375244,2181
813.493896,2241
813.612671,2242
813.731384,2279
813.850037,2231
813.96875,2187
814.087524,2160
814.206238,2219
814.324951,2141
814.443604,2185
814.562256,2194
814.68103,2163
814.799683,2185
814.918335,2164
815.037109,2134
815.155762,2170
815.274475,2157
815.393188,2135
815.511841,2144
815.630554,2147
815.749146,2121
815.867859,2123
815.986572,2100
816.105164,2066
816.223877,2096
816.342529,2100
816.461182,2123
816.579895,2135
816.698486,2137
816.817139,2076
816.935791,2158
817.054504,2143
817.173096,2165
817.291748,2110
817.4104,2089
817.529053,2059
817.647644,2029
817.766235,1997
817.884949,1963
818.00354,1909
818.122192,1873
818.240845,1851
818.359436,1840
818.478088,1806
818.59668,1732
818.715271,1746
818.833923,1699
818.952515,1714
819.071106,1688
819.189758,1719
819.30835,1660
819.426941,1600
819.545532,1607
819.664124,1607
819.782715,1582
819.901306,1555
820.019897,1551
820.138489,1546
820.25708,1545
820.375671,1567
820.494202,1559
820.612732,1517
820.731384,1518
820.849915,1509
820.968506,1538
821.087097,1516
821.205627,1533
821.324158,1529
821.442749,1505
821.561279,1481
821.679871,1492
821.798401,1494
821.916931,1473
822.035461,1510
822.154053,1486
822.272583,1512
822.391174,1487
822.509583,1500
822.628174,1476
822.746704,1449
822.865234,1465
822.983765,1478
823.102295,1490
823.220825,1445
823.339294,1537
823.457825,1471
823.576355,1437
823.694824,1485
823.813354,1467
823.931885,1472
824.050354,1487
824.168884,1501
824.287354,1475
824.405823,1534
824.524353,1523
824.642822,1586
824.761353,1494
824.879822,1486
824.998291,1530
825.116699,1462
825.235291,1543
825.353699,1499
825.472168,1458
825.590637,1446
825.709106,1491
825.827576,1417
825.946045,1424
826.064453,1466
826.182983,1458
826.301392,1418
826.4198,1414
826.53833,1398
826.656738,1430
826.775208,1468
826.893677,1417
827.012024,1419
827.130493,1403
827.248962,1417
827.36731,1437
827.485779,1422
827.604248,1403
827.722595,1425
827.841064,1379
827.959412,1412
828.077942,1379
828.196289,1399
828.314636,1378
828.433105,1378
828.551514,1390
828.669861,1374
828.78833,1378
828.906677,1343
829.025085,1377
829.143433,1370
829.261841,1401
829.38031,1387
829.498657,1321
829.617004,1386
829.735413,1379
829.85376,1347
829.972107,1364
830.090515,1319
830.208862,1371
830.327209,1342
830.445557,1391
830.563904,1378
830.682312,1397
830.800659,1359
830.919006,1364
831.037354,1348
831.155701,1360
831.274048,1318
831.392395,1390
831.51062,1373
831.629028,1376
831.747314,1291
831.865662,1324
831.984009,1342
832.102356,1381
832.220642,1361
832.338928,1359
832.457275,1385
832.575623,1356
832.693909,1346
832.812134,1359
832.930481,1401
833.048828,1385
833.167114,1384
833.2854,1375
833.403687,1379
833.521973,1411
833.640259,1364
833.758545,1353
833.876831,1345
833.995056,1378
834.113281,1368
834.231628,1375
834.349915,1344
834.468201,1388
834.586426,1377
834.704651,1423
834.822998,1317
834.941162,1365
835.059448,1347
835.177673,1342
835.295959,1437
835.414246,1400
835.53241,1391
835.650635,1379
835.768921,1379
835.887146,1386
836.005371,1403
836.123596,1406
836.241821,1416
836.360046,1423
836.478271,1422
836.596497,1431
836.714722,1487
836.832886,1433
836.95105,1439
837.069336,1421
837.1875,1452
837.305725,1452
837.423889,1461
837.542053,1465
837.660339,1456
837.778503,1453
837.896667,1455
838.014832,1449
838.132996,1449
838.25116,1486
838.369385,1438
838.487488,1456
838.605713,1448
838.723877,1439
838.84198,1447
838.960205,1436
839.078308,1467
839.196472,1430
839.314636,1449
839.4328,1449
839.550964,1422
839.669067,1463
839.787231,1441
839.905396,1429
840.023499,1446
840.141602,1438
840.259766,1405
840.377869,1374
840.495972,1407
840.614136,1411
840.732239,1403
840.850342,1457
840.968445,1414
841.086548,1424
841.204651,1411
841.322754,1399
841.440918,1391
841.55896,1404
841.677002,1397
841.795166,1384
841.913208,1363
842.031311,1368
842.149353,1411
842.267456,1378
842.385498,1376
842.503601,1362
842.621643,1344
842.739746,1345
842.857788,1348
842.97583,1377
843.093933,1342
843.211975,1329
843.330017,1370
843.44812,1340
843.566101,1378
843.684204,1318
843.802246,1326
843.920227,1359
844.038269,1389
844.156311,1382
844.274292,1367
844.392395,1322
844.510376,1353
844.628357,1354
844.74646,1303
844.864441,1331
844.982422,1338
845.100403,1359
845.218384,1388
845.336426,1351
845.454468,1366
845.572449,1307
845.69043,1357
845.808411,1340
845.926453,1326
846.044373,1327
846.162354,1340
846.280396,1352
846.398315,1357
846.516296,1358
846.634216,1317
846.752197,1373
846.870178,1333
846.988098,1319
847.106079,1363
847.22406,1333
847.34198,1357
847.4599,1310
847.577881,1289
847.695801,1323
847.813782,1323
847.931641,1324
848.049561,1366
848.167603,1326
848.285461,1337
848.403381,1327
848.521362,1316
848.639221,1376
848.75708,1328
848.875,1306
848.99292,1355
849.110901,1348
849.22876,1317
849.34668,1343
849.464539,1370
849.582458,1345
849.700317,1328
849.818176,1339
849.936096,1378
850.053955,1322
850.171875,1349
850.289673,1358
850.407593,1326
850.525452,1364
850.643311,1361
850.761169,1301
850.878967,1337
850.996887,1343
851.114746,1318
851.232544,1358
851.350403,1373
851.468262,1344
851.58606,1340
851.703979,1359
851.821777,1324
851.939636,1363
852.057434,1327
852.175232,1373
852.293091,1332
852.410889,1378
852.528687,1379
852.646545,1331
852.764343,1374
852.88208,1347
852.999939,1387
853.117676,1331
853.235535,1351
853.353271,1340
853.471069,1391
853.588928,1332
853.706604,1371
853.824402,1380
853.9422,1338
854.059998,1348
854.177734,1368
854.295532,1399
854.413269,1394
854.531006,1387
854.648804,1376
854.766541,1379
854.884277,1367
855.002014,1353
855.119751,1374
855.237549,1376
855.355225,1418
855.473022,1387
855.590698,1409
855.708435,1356
855.826172,1376
855.943848,1399
856.061646,1382
856.179321,1373
856.296997,1386
856.414795,1363
856.53241,1417
856.650085,1399
856.767822,1406
856.885559,1423
857.003174,1418
857.120911,1429
857.238586,1408
857.356201,1421
857.473938,1402
857.591614,1408
857.709351,1392
857.826965,1374
857.944641,1358
858.062317,1419
858.179993,1364
858.297668,1409
858.415283,1393
858.532959,1356
858.650574,1345
858.768188,1404
858.885803,1384
859.003479,1342
859.121094,1423
859.23877,1422
859.356384,1386
859.473999,1377
859.591675,1377
859.709229,1368
859.826843,1396
859.944458,1398
860.062012,1381
860.179626,1354
860.297302,1358
860.414856,1379
860.532471,1346
860.650024,1357
860.767639,1348
860.885193,1342
861.002808,1394
861.120361,1352
861.237976,1399
861.35553,1390
861.473022,1404
861.590698,1368
861.708191,1373
861.825745,1371
861.943298,1351
862.060852,1390
862.178406,1378
862.295959,1420
862.413513,1357
862.531006,1395
862.64856,1385
862.766113,1363
862.883667,1401
863.00116,1379
863.118713,1397
863.236206,1401
863.353699,1389
863.471252,1378
863.588745,1409
863.706177,1326
863.82373,1402
863.941162,1356
864.058716,1414
864.176208,1405
864.29364,1380
864.411194,1402
864.528687,1389
864.646118,1403
864.763611,1395
864.881042,1371
864.998535,1404
865.116028,1391
865.233459,1405
865.350891,1391
865.468384,1398
865.585754,1406
865.703308,1389
865.820679,1423
865.938171,1406
866.055542,1390
866.173035,1408
866.290466,1417
866.407837,1383
866.52533,1362
866.6427,1415
866.760071,1405
866.877563,1404
866.994934,1418
867.112305,1413
867.229736,1404
867.347107,1418
867.464539,1382
867.58197,1435
867.699341,1419
867.81665,1454
867.934082,1379
868.051453,1465
868.168823,1418
868.286194,1432
868.403564,1429
868.520935,1423
868.638306,1383
868.755676,1400
868.872986,1360
868.990295,1419
869.107727,1421
869.225037,1476
869.342346,1422
869.459717,1423
869.577026,1452
869.694336,1402
869.811707,1395
869.929016,1410
870.046326,1409
870.163635,1407
870.280945,1437
870.398254,1426
870.515564,1400
870.632812,3152
870.750183,1546
870.867432,1391
870.984741,1427
871.102051,1390
871.219299,1466
871.336609,1410
871.453918,1412
871.571106,1416
871.688416,1991
871.805664,2165
871.922852,1916
872.040222,2149
872.157471,2043
872.274719,2109
872.391968,2021
872.509155,2602
872.626465,2785
872.743652,1610
872.860962,1400
872.978149,1404
873.095337,1388
873.212646,1447
873.329834,1444
873.44696,1401
873.564209,1390
873.681396,1410
873.798645,1396
873.915894,1404
874.03302,1397
874.150208,1425
874.267456,1440
874.384583,1438
874.501831,1402
874.618958,1408
874.736145,1419
874.853333,1400
874.970459,1427
875.087646,1406
875.204834,1400
875.32196,1416
875.439148,1383
875.556274,1452
875.673401,1414
875.790527,1423
875.907715,1418
876.024841,1392
876.141968,1428
876.259094,1429
876.376282,1416
876.493347,1447
876.610474,1384
876.7276,1413
876.844727,1418
876.961853,1426
877.078918,1400
877.195984,1407
877.313171,1437
877.430237,1402
877.547302,1468
877.664368,1428
877.781433,1459
877.898499,1403
878.015625,1432
878.13269,1383
878.249695,1453
878.366821,1394
878.483887,1439
878.600952,1423
878.717957,1474
878.834961,1411
878.952087,1445
879.069092,1434
879.186157,1460
879.303162,1424
879.420227,1474
879.537231,1469
879.654236,1449
879.77124,1413
879.888306,1444
880.005249,1472
880.122314,1408
880.239319,1472
880.356323,1398
880.473328,1463
880.590271,1397
880.707275,1439
880.824341,1428
880.941284,1429
881.058228,1447
881.175232,1439
881.292236,1415
881.40918,1433
881.526123,1458
881.643066,1433
881.760071,1452
881.877014,1446
881.993958,1444
882.11084,1448
882.227783,1475
882.344727,1430
882.46167,1487
882.578613,1424
882.695618,1434
882.812439,1424
882.929382,1438
883.046326,1468
883.163208,1470
883.280151,1432
883.397034,1487
883.513916,1459
883.630798,1428
883.747742,1455
883.864563,1457
883.981506,1473
884.098389,1421
884.21521,1460
884.332153,1491
884.448975,1427
884.565796,1398
884.682678,1498
884.7995,1458
884.916443,1455
885.033264,1485
885.150085,1446
885.266968,1468
885.383789,1428
885.500671,1450
885.617493,1450
885.734314,1422
885.851196,1486
885.967896,1453
886.084717,1473
886.201599,1479
886.318359,1476
886.435181,1431
886.552002,1458
886.668762,1465
886.785645,1478
886.902344,1479
887.019165,1471
887.135925,1487
887.252747,1465
887.369446,1467
887.486267,1471
887.603027,1488
887.719788,1450
887.836548,1462
887.953247,1467
888.070068,1476
888.186829,1464
888.303528,1451
888.420288,1433
888.536987,1456
888.653687,1455
888.770447,1487
888.887146,1458
889.003967,1462
889.120667,1514
889.237305,1445
889.354065,1502
889.470703,1505
889.587463,1459
889.704163,1510
889.820862,1513
889.937561,1481
890.054199,1458
890.170837,1511
890.287598,1506
890.404236,1476
890.520874,1480
890.637634,1494
890.754211,1494
890.87085,1473
890.987549,1491
891.104187,1480
891.220886,1536
891.337463,1498
891.454102,1467
891.57074,1470
891.687378,1492
891.804077,1478
891.920654,1437
892.037231,1486
892.15387,1517
892.270447,1518
892.387085,1504
892.503723,1492
892.6203,1522
892.736877,1520
892.853516,1517
892.970032,1507
893.08667,1505
893.203186,1513
893.319763,1469
893.43634,1506
893.552917,1504
893.669556,1525
893.786011,1503
893.902588,1495
894.019165,1523
894.135681,1506
894.252197,1518
894.368835,1545
894.485291,1513
894.601868,1509
894.718384,1524
894.8349,1512
894.951355,1531
895.067932,1466
895.184448,1466
895.300964,1528
895.417419,1506
895.533936,1539
895.650452,1519
895.766907,1572
895.883423,1535
895.999878,1530
896.116333,1490
896.232849,1515
896.349304,1524
896.465759,1528
896.582214,1515
896.698669,1510
896.815125,1507
896.931641,1494
897.048035,1514
897.164551,1532
897.280884,1510
897.397339,1549
897.513794,1546
897.630249,1488
897.746582,1531
897.863098,1572
897.979431,1524
898.095886,1518
898.212341,1518
898.328674,1532
898.445129,1528
898.561462,1571
898.677795,1512
898.794312,1516
898.910645,1507
899.026978,1502
899.143433,1499
899.259766,1534
899.37616,1474
899.492493,1539
899.608765,1544
899.725159,1548
899.841553,1568
899.957947,1534
900.07428,1528
900.190552,1512
900.306946,1513
900.423157,1577
900.53949,1533
900.655884,1555
900.772156,1556
900.888489,1542
901.004822,1563
901.121033,1557
901.237366,1555
901.353699,1527
901.46991,1533
901.586304,1529
901.702515,1520
901.818787,1512
901.93512,1491
902.051331,1526
902.167603,1550
902.283875,1574
902.400085,1544
902.516418,1616
902.632629,1535
902.74884,1549
902.865112,1593
902.981384,1543
903.097595,1556
903.213867,1557
903.330017,1562
903.446289,1571
903.5625,1526
903.67865,1599
903.794922,1582
903.911072,1578
904.027344,1548
904.143494,1500
904.259705,1598
904.375916,1523
904.492065,1600
904.608215,1557
904.724426,1532
904.840576,1564
904.956726,1625
905.072876,1596
905.189087,1533
905.305176,1601
905.421387,1600
905.537537,1520
905.653687,1589
905.769775,1557
905.885925,1583
906.002014,1576
906.118164,1527
906.234314,1581
906.350403,1564
906.466492,1550
906.582642,1566
906.69873,1577
906.814758,1595
906.930908,1537
907.046936,1507
907.163086,1541
907.279175,1563
907.395264,1559
907.511353,1542
907.62738,1576
907.743408,1574
907.859497,1565
907.975525,1558
908.091553,1575
908.207703,1584
908.32373,1561
908.439758,1575
908.555786,1580
908.671814,1574
908.787842,1596
908.90387,1576
909.019775,1561
909.135864,1600
909.251892,1594
909.367859,1587
909.483826,1570
909.599854,1554
909.715881,1560
909.831848,1555
909.947815,1551
910.063782,1531
910.179749,1569
910.295776,1563
910.411743,1600
910.527649,1565
910.643616,1606
910.759583,1610
910.875488,1573
910.991455,1610
911.107361,1614
911.223267,1589
911.339294,1584
911.4552,1609
911.571106,1545
911.687073,1580
911.802979,1567
911.918823,1563
912.034729,1585
912.150635,1524
912.266602,1588
912.382446,1580
912.498352,1577
912.614197,1580
912.730103,1572
912.846008,1583
792.44574,2236
792.56488,2211
792.68396,2188
792.80304,2164
792.92218,2104
793.041199,2098
793.160339,2094
793.279419,2081
793.398499,2082
793.517578,2125
793.636658,2024
793.755737,2080
793.874817,2049
793.993896,2072
794.112976,2047
794.232056,2021
794.351074,2039
794.470215,2077
794.589233,2107
794.708313,2028
794.827393,2045
794.946411,1991
795.065552,1961
795.18457,1985
795.303589,1973
795.422668,2008
795.541687,1977
795.660767,2017
795.779846,1993
795.898865,2009
796.017883,1969
796.136963,2014
796.255981,1981
796.375061,1961
796.49408,1949
796.613037,1918
796.732117,2008
796.851135,1955
796.970154,1907
797.089233,1986
797.208191,1939
797.327271,1983
797.446228,1985
797.565186,1934
797.684265,1948
797.803223,1932
797.922241,1939
798.04126,1940
798.160278,1924
798.279297,1973
798.398315,1912
798.517273,1941
798.636292,1955
798.75531,1944
798.874268,1930
798.993286,1950
799.112244,1946
799.231323,1925
799.350281,1954
799.469238,1943
799.588257,1923
799.707153,1975
799.826111,1983
799.945129,1925
800.064087,1926
800.183044,1943
800.302063,1984
800.421021,1977
800.539978,1932
800.658936,1936
800.777893,1977
800.896912,1923
801.015747,1984
801.134705,1965
801.253723,2011
801.37262,1979
801.491638,1980
801.610535,2022
801.729492,2006
801.84845,1974
801.967407,1988
802.086243,2023
802.205261,1995
802.324158,1993
802.443115,1952
802.562073,1975
802.680969,2021
802.799927,2022
802.918762,2008
803.037659,2035
803.156677,2047
803.275574,2016
803.39447,2026
803.513428,2002
803.632263,2043
803.751221,2040
803.870117,2008
803.989014,2089
804.107971,2025
804.226746,2034
804.345642,2072
804.4646,2092
804.583496,2066
804.702393,2085
804.821228,2054
804.940125,2124
805.059021,2095
805.177917,2022
805.296814,2068
805.415649,2081
805.534546,2089
805.653442,2130
805.772278,2126
805.891113,2119
806.01001,2093
806.128906,2153
806.247742,2168
806.366577,2134
806.485413,2173
806.604309,2069
806.723145,2124
806.84198,2082
806.960876,2121
807.079712,2126
807.198486,2113
807.317383,2184
807.436218,2122
807.554993,2143
807.673889,2187
807.792725,2144
807.91156,2180
808.030396,2154
808.14917,2146
808.268005,2192
808.386841,2188
808.505676,2161
808.624451,2159
808.743286,2184
808.862122,2138
808.980896,2161
809.099731,2184
809.218506,2192
809.337341,2166
809.456116,2159
809.57489,2224
809.693726,2200
809.8125,2252
809.931274,2213
810.050049,2171
810.168884,2196
810.287659,2186
810.406372,2232
810.525269,2203
810.643982,2198
810.762756,2185
810.881531,2245
811.000305,2196
811.11908,2233
811.237854,2214
811.356567,2246
811.475403,2190
811.594116,2148
811.71283,2185
811.831604,2252
811.950378,2237
812.069153,2233
812.187927,2274
812.30658,2219
812.425415,2264
812.544128,2224
812.662781,2264
812.781616,2220
812.900269,2209
813.019043,2230
813.137756,2256
813.256531,2230
813.375244,2210
813.493896,2221
813.612671,2198
813.731384,2252
813.850037,2274
813.96875,2183
814.087524,2233
814.206238,2196
814.324951,2258
814.443604,2223
814.562256,2168
814.68103,2219
814.799683,2202
814.918335,2196
815.037109,2210
815.155762,2140
815.274475,2142
815.393188,2149
815.511841,2134
815.630554,2097
815.749146,2151
815.867859,2100
815.986572,2074
816.105164,2130
816.223877,2118
816.342529,2090
816.461182,2157
816.579895,2167
816.698486,2148
816.817139,2179
816.935791,2183
817.054504,2151
817.173096,2170
817.291748,2132
817.4104,2123
817.529053,2061
817.647644,2012
817.766235,1968
817.884949,1974
818.00354,1943
818.122192,1883
818.240845,1888
818.359436,1815
818.478088,1816
818.59668,1804
818.715271,1768
818.833923,1710
818.952515,1719
819.071106,1672
819.189758,1675
819.30835,1599
819.426941,1677
819.545532,1626
819.664124,1585
819.782715,1582
819.901306,1564
820.019897,1594
820.138489,1566
820.25708,1601
820.375671,1566
820.494202,1515
820.612732,1547
820.731384,1577
820.849915,1567
820.968506,1527
821.087097,1508
821.205627,1580
821.324158,1496
821.442749,1545
821.561279,1489
821.679871,1492
821.798401,1488
821.916931,1516
822.035461,1453
822.154053,1506
822.272583,1467
822.391174,1555
822.509583,1518
822.628174,1426
822.746704,1504
822.865234,1536
822.983765,1473
823.102295,1497
823.220825,1441
823.339294,1475
823.457825,1514
823.576355,1477
823.694824,1474
823.813354,1518
823.931885,1504
824.050354,1529
824.168884,1517
824.287354,1518
824.405823,1503
824.524353,1525
824.642822,1551
824.761353,1486
824.879822,1483
824.998291,1469
825.116699,1477
825.235291,1494
825.353699,1455
825.472168,1503
825.590637,1499
825.709106,1468
825.827576,1453
825.946045,1498
826.064453,1472
826.182983,1409
826.301392,1419
826.4198,1477
826.53833,1373
826.656738,1426
826.775208,1460
826.893677,1447
827.012024,1399
827.130493,1391
827.248962,1391
827.36731,1453
827.485779,1403
827.604248,1405
827.722595,1448
827.841064,1395
827.959412,1423
828.077942,1434
828.196289,1454
828.314636,1408
828.433105,1401
828.551514,1366
828.669861,1394
828.78833,1404
828.906677,1448
829.025085,1408
829.143433,1368
829.261841,1384
829.38031,1383
829.498657,1356
829.617004,1380
829.735413,1356
829.85376,1440
829.972107,1362
830.090515,1388
830.208862,1397
830.327209,1404
830.445557,1377
830.563904,1369
830.682312,1406
830.800659,1392
830.919006,1411
831.037354,1422
831.155701,1374
831.274048,1372
831.392395,1328
831.51062,1412
831.629028,1391
831.747314,1410
831.865662,1355
831.984009,1405
832.102356,1382
832.220642,1353
832.338928,1384
832.457275,1345
832.575623,1330
832.693909,1404
832.812134,1387
832.930481,1403
833.048828,1329
833.167114,1368
833.2854,1334
833.403687,1378
833.521973,1383
833.640259,1380
833.758545,1353
833.876831,1364
833.995056,1355
834.113281,1401
834.231628,1420
834.349915,1386
834.468201,1415
834.586426,1382
834.704651,1374
834.822998,1359
834.941162,1418
835.059448,1392
835.177673,1360
835.295959,1404
835.414246,1415
835.53241,1395
835.650635,1350
835.768921,1416
835.887146,1361
836.005371,1422
836.123596,1393
836.241821,1387
836.360046,1444
836.478271,1440
836.596497,1436
836.714722,1454
836.832886,1447
836.95105,1489
837.069336,1409
837.1875,1471
837.305725,1475
837.423889,1481
837.542053,1486
837.660339,1463
837.778503,1452
837.896667,1503
838.014832,1493
838.132996,1455
838.25116,1411
838.369385,1473
838.487488,1464
838.605713,1484
838.723877,1445
838.84198,1452
838.960205,1400
839.078308,1425
839.196472,1475
839.314636,1472
839.4328,1476
839.550964,1505
839.669067,1444
839.787231,1454
839.905396,1447
840.023499,1444
840.141602,1420
840.259766,1416
840.377869,1466
840.495972,1464
840.614136,1402
840.732239,1437
840.850342,1389
840.968445,1398
841.086548,1454
841.204651,1417
841.322754,1408
841.440918,1398
841.55896,1385
841.677002,1355
841.795166,1416
841.913208,1348
842.031311,1396
842.149353,1401
842.267456,1364
842.385498,1341
842.503601,1440
842.621643,1382
842.739746,1399
842.857788,1371
842.97583,1389
843.093933,1322
843.211975,1365
843.330017,1376
843.44812,1342
843.566101,1339
843.684204,1361
843.802246,1351
843.920227,1368
844.038269,1365
844.156311,1372
844.274292,1324
844.392395,1328
844.510376,1358
844.628357,1342
844.74646,1348
844.864441,1344
844.982422,1333
845.100403,1349
845.218384,1363
845.336426,1332
845.454468,1402
845.572449,1357
845.69043,1349
845.808411,1351
845.926453,1365
846.044373,1325
846.162354,1390
846.280396,1340
846.398315,1344
846.516296,1323
846.634216,1323
846.752197,1397
846.870178,1378
846.988098,1311
847.106079,1343
847.22406,1359
847.34198,1343
847.4599,1327
847.577881,1375
847.695801,1332
847.813782,1332
847.931641,1372
848.049561,1339
848.167603,1330
848.285461,1339
848.403381,1358
848.521362,1359
848.639221,1334
848.75708,1356
848.875,1338
848.99292,1399
849.110901,1382
849.22876,1355
849.34668,1364
849.464539,1369
849.582458,1356
849.700317,1368
849.818176,1338
849.936096,1313
850.053955,1341
850.171875,1386
850.289673,1365
850.407593,1362
850.525452,1352
850.643311,1366
850.761169,1351
850.878967,1336
850.996887,1379
851.114746,1371
851.232544,1382
851.350403,1303
851.468262,1373
851.58606,1304
851.703979,1355
851.821777,1334
851.939636,1350
852.057434,1342
852.175232,1357
852.293091,1382
852.410889,1327
852.528687,1426
852.646545,1343
852.764343,1378
852.88208,1360
852.999939,1395
853.117676,1379
853.235535,1427
853.353271,1367
853.471069,1365
853.588928,1390
853.706604,1365
853.824402,1361
853.9422,1399
854.059998,1364
854.177734,1404
854.295532,1381
854.413269,1353
854.531006,1401
854.648804,1387
854.766541,1392
854.884277,1403
855.002014,1396
855.119751,1379
855.237549,1406
855.355225,1396
855.473022,1408
855.590698,1378
855.708435,1413
855.826172,1373
855.943848,1461
856.061646,1405
856.179321,1350
856.296997,1415
856.414795,1428
856.53241,1407
856.650085,1398
856.767822,1416
856.885559,1412
857.003174,1346
857.120911,1399
857.238586,1401
857.356201,1381
857.473938,1399
857.591614,1414
857.709351,1395
857.826965,1389
857.944641,1398
858.062317,1403
858.179993,1394
858.297668,1411
858.415283,1401
858.532959,1406
858.650574,1374
858.768188,1411
858.885803,1356
859.003479,1382
859.121094,1375
859.23877,1402
859.356384,1399
859.473999,1375
859.591675,1390
859.709229,1395
859.826843,1405
859.944458,1394
860.062012,1408
860.179626,1339
860.297302,1440
860.414856,1365
860.532471,1362
860.650024,1416
860.767639,1417
860.885193,1380
861.002808,1389
861.120361,1368
861.237976,1354
861.35553,1366
861.473022,1385
861.590698,1380
861.708191,1365
861.825745,1386
861.943298,1399
862.060852,1431
862.178406,1382
862.295959,1386
862.413513,1418
862.531006,1382
862.64856,1370
862.766113,1430
862.883667,1402
863.00116,1459
863.118713,1342
863.236206,1403
863.353699,1413
863.471252,1397
863.588745,1380
863.706177,1389
863.82373,1398
863.941162,1382
864.058716,1429
864.176208,1438
864.29364,1436
864.411194,1411
864.528687,1429
864.646118,1435
864.763611,1314
864.881042,1374
864.998535,1396
865.116028,1404
865.233459,1413
865.350891,1429
865.468384,1430
865.585754,1442
865.703308,1480
865.820679,1411
865.938171,1408
866.055542,1424
866.173035,1462
866.290466,1395
866.407837,1425
866.52533,1386
866.6427,1440
866.760071,1403
866.877563,1405
866.994934,1433
867.112305,1448
867.229736,1373
867.347107,1402
867.464539,1409
867.58197,1448
867.699341,1426
867.81665,1414
867.934082,1405
868.051453,1428
868.168823,1414
868.286194,1432
868.403564,1443
868.520935,1406
868.638306,1439
868.755676,1427
868.872986,1425
868.990295,1431
869.107727,1448
869.225037,1434
869.342346,1425
869.459717,1417
869.577026,1433
869.694336,1398
869.811707,1444
869.929016,1369
870.046326,1417
870.163635,1405
870.280945,1393
870.398254,1431
870.515564,1433
870.632812,1446
870.750183,1410
870.867432,1468
870.984741,1401
871.102051,1416
871.219299,1431
871.336609,1415
871.453918,1415
871.571106,1444
871.688416,1435
871.805664,1427
871.922852,1434
872.040222,1456
872.157471,1429
872.274719,1400
872.391968,1430
872.509155,1443
872.626465,1476
872.743652,1428
872.860962,1411
872.978149,1407
873.095337,1418
873.212646,1398
873.329834,1447
873.44696,1481
873.564209,1401
873.681396,1430
873.798645,1448
873.915894,1435
874.03302,1419
874.150208,1426
874.267456,1414
874.384583,1438
874.501831,1422
874.618958,1423
874.736145,1448
874.853333,1395
874.970459,1410
875.087646,1391
875.204834,1423
875.32196,1420
875.439148,1449
875.556274,1401
875.673401,1446
875.790527,1448
875.907715,1373
876.024841,1372
876.141968,1455
876.259094,1425
876.376282,1419
876.493347,1456
876.610474,1405
876.7276,1426
876.844727,1422
876.961853,1459
877.078918,1422
877.195984,1454
877.313171,1421
877.430237,1451
877.547302,1441
877.664368,1410
877.781433,1465
877.898499,1495
878.015625,1415
878.13269,1431
878.249695,1387
878.366821,1408
878.483887,1466
878.600952,1434
878.717957,1467
878.834961,1437
878.952087,1437
879.069092,1394
879.186157,1411
879.303162,1455
879.420227,1422
879.537231,1481
879.654236,1440
879.77124,1406
879.888306,1464
880.005249,1467
880.122314,1406
880.239319,1479
880.356323,1445
880.473328,1456
880.590271,1440
880.707275,1463
880.824341,1416
880.941284,1462
881.058228,1407
881.175232,1474
881.292236,1460
881.40918,1439
881.526123,1438
881.643066,1438
881.760071,1445
881.877014,1430
881.993958,1508
882.11084,1437
882.227783,1464
882.344727,1485
882.46167,1477
882.578613,1446
882.695618,1464
882.812439,1471
882.929382,1439
883.046326,1469
883.163208,1462
883.280151,1427
883.397034,1429
883.513916,1496
883.630798,1495
883.747742,1459
883.864563,1465
883.981506,1469
884.098389,1458
884.21521,1482
884.332153,1480
884.448975,1448
884.565796,1434
884.682678,1470
884.7995,1451
884.916443,1451
885.033264,1453
885.150085,1508
885.266968,1460
885.383789,1442
885.500671,1484
885.617493,1473
885.734314,1520
885.851196,1461
885.967896,1469
886.084717,1476
886.201599,1431
886.318359,1471
886.435181,1465
886.552002,1451
886.668762,1471
886.785645,1506
886.902344,1428
887.019165,1503
887.135925,1483
887.252747,1480
887.369446,1475
887.486267,1497
887.603027,1446
887.719788,1465
887.836548,1463
887.953247,1477
888.070068,1494
888.186829,1505
888.303528,1451
888.420288,1514
888.536987,1499
888.653687,1511
888.770447,1492
888.887146,1491
889.003967,1464
889.120667,1501
889.237305,1490
889.354065,1486
889.470703,1464
889.587463,1492
889.704163,1498
889.820862,1512
889.937561,1522
890.054199,1516
890.170837,1514
890.287598,1492
890.404236,1501
890.520874,1480
890.637634,1495
890.754211,1493
890.87085,1507
890.987549,1555
891.104187,1465
891.220886,1470
891.337463,1480
891.454102,1508
891.57074,1546
891.687378,1518
891.804077,1520
891.920654,1528
892.037231,1476
892.15387,1478
892.270447,1476
892.387085,1489
892.503723,1504
892.6203,1521
892.736877,1498
892.853516,1518
892.970032,1528
893.08667,1542
893.203186,1532
893.319763,1533
893.43634,1511
893.552917,1519
893.669556,1517
893.786011,1457
893.902588,1502
894.019165,1519
894.135681,1513
894.252197,1478
894.368835,1500
894.485291,1543
894.601868,1573
894.718384,1561
894.8349,1501
894.951355,1510
895.067932,1522
895.184448,1535
895.300964,1573
895.417419,1528
895.533936,1505
895.650452,1554
895.766907,1537
895.883423,1546
895.999878,1536
896.116333,1537
896.232849,1518
896.349304,1542
896.465759,1553
896.582214,1494
896.698669,1564
896.815125,1529
896.931641,1534
897.048035,1543
897.164551,1552
897.280884,1558
897.397339,1542
897.513794,1571
897.630249,1549
897.746582,1533
897.863098,1518
897.979431,1545
898.095886,1523
898.212341,1551
898.328674,1552
898.445129,1576
898.561462,1595
898.677795,1550
898.794312,1548
898.910645,1522
899.026978,1528
899.143433,1558
899.259766,1494
899.37616,1522
899.492493,1488
899.608765,1554
899.725159,1540
899.841553,1537
899.957947,1536
900.07428,1540
900.190552,1523
900.306946,1571
900.423157,1515
900.53949,1571
900.655884,1531
900.772156,1574
900.888489,1546
901.004822,1501
901.121033,1528
901.237366,1539
901.353699,1547
901.46991,1561
901.586304,1546
901.702515,1517
901.818787,1543
901.93512,1556
902.051331,1550
902.167603,1538
902.283875,1536
902.400085,1541
902.516418,1530
902.632629,1565
902.74884,1552
902.865112,1558
902.981384,1526
903.097595,1554
903.213867,1541
903.330017,1580
903.446289,1533
903.5625,1602
903.67865,1531
903.794922,1570
903.911072,1543
904.027344,1568
904.143494,1579
904.259705,1607
904.375916,1532
904.492065,1541
904.608215,1577
904.724426,1561
904.840576,1565
904.956726,1542
905.072876,1542
905.189087,1576
905.305176,1594
905.421387,1543
905.537537,1578
905.653687,1589
905.769775,1573
905.885925,1578
906.002014,1590
906.118164,1548
906.234314,1589
906.350403,1565
906.466492,1566
906.582642,1621
906.69873,1577
906.814758,1575
906.930908,1554
907.046936,1540
907.163086,1562
907.279175,1558
907.395264,1573
907.511353,1586
907.62738,1547
907.743408,1554
907.859497,1593
907.975525,1566
908.091553,1587
908.207703,1590
908.32373,1551
908.439758,1600
908.555786,1577
908.671814,1601
908.787842,1595
908.90387,1547
909.019775,1569
909.135864,1572
909.251892,1582
909.367859,1579
909.483826,1617
909.599854,1600
909.715881,1631
909.831848,1565
909.947815,1567
910.063782,1565
910.179749,1568
910.295776,1567
910.411743,1553
910.527649,1583
910.643616,1590
910.759583,1589
910.875488,1567
910.991455,1606
911.107361,1616
911.223267,1554
911.339294,1609
911.4552,1581
911.571106,1593
911.687073,1584
911.802979,1603
911.918823,1605
912.034729,1582
912.150635,1559
912.266602,1598
912.382446,1556
912.498352,1566
912.614197,1606
912.730103,1576
912.846008,1585
