792.44574,2165
792.56488,2176
792.68396,2139
792.80304,2066
792.92218,2068
793.041199,2034
793.160339,2001
793.279419,1992
793.398499,2023
793.517578,1939
793.636658,1885
793.755737,1922
793.874817,1939
793.993896,1912
794.112976,1907
794.232056,1861
794.351074,1853
794.470215,1850
794.589233,1861
794.708313,1808
794.827393,1788
794.946411,1793
795.065552,1818
795.18457,1766
795.303589,1806
795.422668,1796
795.541687,1769
795.660767,1771
795.779846,1738
795.898865,1747
796.017883,1712
796.136963,1715
796.255981,1677
796.375061,1684
796.49408,1712
796.613037,1708
796.732117,1724
796.851135,1713
796.970154,1672
797.089233,1639
797.208191,1681
797.327271,1703
797.446228,1671
797.565186,1562
797.684265,1693
797.803223,1654
797.922241,1649
798.04126,1677
798.160278,1659
798.279297,1655
798.398315,1625
798.517273,1643
798.636292,1622
798.75531,1631
798.874268,1646
798.993286,1651
799.112244,1626
799.231323,1608
799.350281,1605
799.469238,1641
799.588257,1624
799.707153,1621
799.826111,1609
799.945129,1583
800.064087,1601
800.183044,1605
800.302063,1588
800.421021,1639
800.539978,1585
800.658936,1583
800.777893,1634
800.896912,1606
801.015747,1606
801.134705,1600
801.253723,1586
801.37262,1589
801.491638,1559
801.610535,1602
801.729492,1587
801.84845,1544
801.967407,1611
802.086243,1593
802.205261,1571
802.324158,1644
802.443115,1598
802.562073,1575
802.680969,1577
802.799927,1558
802.918762,1596
803.037659,1606
803.156677,1579
803.275574,1577
803.39447,1576
803.513428,1563
803.632263,1613
803.751221,1497
803.870117,1590
803.989014,1570
804.107971,1551
804.226746,1555
804.345642,1563
804.4646,1559
804.583496,1588
804.702393,1569
804.821228,1552
804.940125,1548
805.059021,1550
805.177917,1606
805.296814,1519
805.415649,1543
805.534546,1551
805.653442,1582
805.772278,1549
805.891113,1542
806.01001,1529
806.128906,1538
806.247742,1495
806.366577,1505
806.485413,1556
806.604309,1580
806.723145,1535
806.84198,1601
806.960876,1536
807.079712,1597
807.198486,1572
807.317383,1586
807.436218,1514
807.554993,1570
807.673889,1568
807.792725,1509
807.91156,1519
808.030396,1550
808.14917,1560
808.268005,1506
808.386841,1582
808.505676,1597
808.624451,1553
808.743286,1531
808.862122,1555
808.980896,1500
809.099731,1546
809.218506,1549
809.337341,1569
809.456116,1554
809.57489,1492
809.693726,1556
809.8125,1544
809.931274,1543
810.050049,1558
810.168884,1489
810.287659,1535
810.406372,1540
810.525269,1559
810.643982,1529
810.762756,1523
810.881531,1552
811.000305,1568
811.11908,1532
811.237854,1564
811.356567,1529
811.475403,1548
811.594116,1567
811.71283,1550
811.831604,1534
811.950378,1545
812.069153,1551
812.187927,1558
812.30658,1561
812.425415,1551
812.544128,1539
812.662781,1564
812.781616,1529
812.900269,1531
813.019043,1506
813.137756,1554
813.256531,1534
813.375244,1553
813.493896,1535
813.612671,1524
813.731384,1470
813.850037,1495
813.96875,1485
814.087524,1534
814.206238,1471
814.324951,1499
814.443604,1501
814.562256,1524
814.68103,1474
814.799683,1494
814.918335,1471
815.037109,1564
815.155762,1479
815.274475,1513
815.393188,1515
815.511841,1519
815.630554,1520
815.749146,1492
815.867859,1448
815.986572,1526
816.105164,1519
816.223877,1477
816.342529,1468
816.461182,1508
816.579895,1481
816.698486,1482
816.817139,1472
816.935791,1469
817.054504,1479
817.173096,1489
817.291748,1495
817.4104,1504
817.529053,1483
817.647644,1486
817.766235,1460
817.884949,1513
818.00354,1454
818.122192,1423
818.240845,1477
818.359436,1450
818.478088,1459
818.59668,1401
818.715271,1445
818.833923,1394
818.952515,1454
819.071106,1416
819.189758,1415
819.30835,1437
819.426941,1444
819.545532,1395
819.664124,1420
819.782715,1426
819.901306,1393
820.019897,1406
820.138489,1413
820.25708,1456
820.375671,1361
820.494202,1426
820.612732,1404
820.731384,1393
820.849915,1419
820.968506,1406
821.087097,1396
821.205627,1390
821.324158,1366
821.442749,1399
821.561279,1379
821.679871,1384
821.798401,1399
821.916931,1381
822.035461,1370
822.154053,1377
822.272583,1363
822.391174,1357
822.509583,1374
822.628174,1371
822.746704,1369
822.865234,1340
822.983765,1367
823.102295,1360
823.220825,1348
823.339294,1380
823.457825,1345
823.576355,1383
823.694824,1378
823.813354,1370
823.931885,1340
824.050354,1407
824.168884,1384
824.287354,1370
824.405823,1386
824.524353,1375
824.642822,1370
824.761353,1409
824.879822,1398
824.998291,1371
825.116699,1336
825.235291,1381
825.353699,1326
825.472168,1330
825.590637,1359
825.709106,1387
825.827576,1355
825.946045,1352
826.064453,1357
826.182983,1388
826.301392,1358
826.4198,1369
826.53833,1328
826.656738,1352
826.775208,1372
826.893677,1342
827.012024,1353
827.130493,1371
827.248962,1334
827.36731,1373
827.485779,1356
827.604248,1384
827.722595,1315
827.841064,1303
827.959412,1317
828.077942,1333
828.196289,1316
828.314636,1297
828.433105,1349
828.551514,1350
828.669861,1322
828.78833,1341
828.906677,1310
829.025085,1331
829.143433,1300
829.261841,1333
829.38031,1311
829.498657,1320
829.617004,1323
829.735413,1305
829.85376,1305
829.972107,1314
830.090515,1297
830.208862,1350
830.327209,1289
830.445557,1326
830.563904,1333
830.682312,1313
830.800659,1338
830.919006,1350
831.037354,1350
831.155701,1360
831.274048,1363
831.392395,1348
831.51062,1325
831.629028,1315
831.747314,1316
831.865662,1314
831.984009,1294
832.102356,1276
832.220642,1311
832.338928,1309
832.457275,1304
832.575623,1352
832.693909,1340
832.812134,1347
832.930481,1262
833.048828,1319
833.167114,1333
833.2854,1350
833.403687,1292
833.521973,1319
833.640259,1284
833.758545,1336
833.876831,1341
833.995056,1312
834.113281,1331
834.231628,1308
834.349915,1301
834.468201,1352
834.586426,1325
834.704651,1343
834.822998,1338
834.941162,1342
835.059448,1324
835.177673,1319
835.295959,1326
835.414246,1319
835.53241,1335
835.650635,1322
835.768921,1308
835.887146,1304
836.005371,1308
836.123596,1315
836.241821,1306
836.360046,1313
836.478271,1359
836.596497,1336
836.714722,1338
836.832886,1332
836.95105,1322
837.069336,1346
837.1875,1309
837.305725,1340
837.423889,1289
837.542053,1322
837.660339,1331
837.778503,1352
837.896667,1359
838.014832,1327
838.132996,1328
838.25116,1324
838.369385,1317
838.487488,1369
838.605713,1358
838.723877,1333
838.84198,1356
838.960205,1309
839.078308,1334
839.196472,1324
839.314636,1356
839.4328,1295
839.550964,1330
839.669067,1308
839.787231,1345
839.905396,1316
840.023499,1384
840.141602,1343
840.259766,1355
840.377869,1357
840.495972,1324
840.614136,1319
840.732239,1344
840.850342,1365
840.968445,1369
841.086548,1344
841.204651,1365
841.322754,1317
841.440918,1327
841.55896,1346
841.677002,1340
841.795166,1380
841.913208,1329
842.031311,1363
842.149353,1327
842.267456,1334
842.385498,1338
842.503601,1375
842.621643,1355
842.739746,1333
842.857788,1365
842.97583,1348
843.093933,1343
843.211975,1283
843.330017,1367
843.44812,1325
843.566101,1355
843.684204,1353
843.802246,1340
843.920227,1357
844.038269,1367
844.156311,1392
844.274292,1355
844.392395,1357
844.510376,1363
844.628357,1356
844.74646,1331
844.864441,1300
844.982422,1328
845.100403,1348
845.218384,1340
845.336426,1348
845.454468,1326
845.572449,1376
845.69043,1320
845.808411,1355
845.926453,1317
846.044373,1341
846.162354,1334
846.280396,1333
846.398315,1354
846.516296,1309
846.634216,1340
846.752197,1350
846.870178,1344
846.988098,1311
847.106079,1288
847.22406,1321
847.34198,1345
847.4599,1331
847.577881,1368
847.695801,1343
847.813782,1360
847.931641,1330
848.049561,1341
848.167603,1371
848.285461,1321
848.403381,1379
848.521362,1342
848.639221,1401
848.75708,1388
848.875,1325
848.99292,1378
849.110901,1403
849.22876,1337
849.34668,1333
849.464539,1378
849.582458,1384
849.700317,1343
849.818176,1376
849.936096,1391
850.053955,1343
850.171875,1354
850.289673,1369
850.407593,1334
850.525452,1342
850.643311,1356
850.761169,1348
850.878967,1326
850.996887,1356
851.114746,1349
851.232544,1355
851.350403,1344
851.468262,1333
851.58606,1370
851.703979,1326
851.821777,1397
851.939636,1345
852.057434,1354
852.175232,1378
852.293091,1339
852.410889,1346
852.528687,1358
852.646545,1363
852.764343,1341
852.88208,1365
852.999939,1360
853.117676,1351
853.235535,1309
853.353271,1352
853.471069,1300
853.588928,1339
853.706604,1333
853.824402,1351
853.9422,1333
854.059998,1330
854.177734,1330
854.295532,1331
854.413269,1367
854.531006,1371
854.648804,1349
854.766541,1303
854.884277,1328
855.002014,1348
855.119751,1329
855.237549,1337
855.355225,1357
855.473022,1345
855.590698,1301
855.708435,1359
855.826172,1335
855.943848,1344
856.061646,1393
856.179321,1296
856.296997,1332
856.414795,1371
856.53241,1345
856.650085,1348
856.767822,1355
856.885559,1371
857.003174,1318
857.120911,1365
857.238586,1335
857.356201,1384
857.473938,1333
857.591614,1356
857.709351,1369
857.826965,1355
857.944641,1315
858.062317,1344
858.179993,1381
858.297668,1341
858.415283,1362
858.532959,1365
858.650574,1369
858.768188,1414
858.885803,1377
859.003479,1354
859.121094,1370
859.23877,1361
859.356384,1336
859.473999,1368
859.591675,1367
859.709229,1330
859.826843,1344
859.944458,1352
860.062012,1327
860.179626,1340
860.297302,1348
860.414856,1356
860.532471,1318
860.650024,1327
860.767639,1320
860.885193,1322
861.002808,1295
861.120361,1360
861.237976,1322
861.35553,1364
861.473022,1331
861.590698,1343
861.708191,1340
861.825745,1370
861.943298,1343
862.060852,1349
862.178406,1332
862.295959,1341
862.413513,1327
862.531006,1349
862.64856,1344
862.766113,1333
862.883667,1316
863.00116,1319
863.118713,1324
863.236206,1338
863.353699,1325
863.471252,1325
863.588745,1323
863.706177,1347
863.82373,1337
863.941162,1354
864.058716,1319
864.176208,1353
864.29364,1277
864.411194,1320
864.528687,1334
864.646118,1375
864.763611,1309
864.881042,1377
864.998535,1298
865.116028,1327
865.233459,1357
865.350891,1339
865.468384,1292
865.585754,1318
865.703308,1329
865.820679,1337
865.938171,1354
866.055542,1320
866.173035,1337
866.290466,1345
866.407837,1350
866.52533,1352
866.6427,1337
866.760071,1337
866.877563,1340
866.994934,1323
867.112305,1330
867.229736,1330
867.347107,1315
867.464539,1352
867.58197,1351
867.699341,1303
867.81665,1363
867.934082,1366
868.051453,1307
868.168823,1322
868.286194,1341
868.403564,1334
868.520935,1358
868.638306,1333
868.755676,1338
868.872986,1370
868.990295,1332
869.107727,1352
869.225037,1356
869.342346,1393
869.459717,1324
869.577026,1359
869.694336,1334
869.811707,1349
869.929016,1327
870.046326,1369
870.163635,1352
870.280945,1356
870.398254,1371
870.515564,1381
870.632812,1373
870.750183,1380
870.867432,1372
870.984741,1360
871.102051,1382
871.219299,1372
871.336609,1387
871.453918,1449
871.571106,1365
871.688416,1386
871.805664,1353
871.922852,1403
872.040222,1411
872.157471,1363
872.274719,1396
872.391968,1358
872.509155,1377
872.626465,1361
872.743652,1422
872.860962,1348
872.978149,1359
873.095337,1377
873.212646,1410
873.329834,1346
873.44696,1368
873.564209,1415
873.681396,1368
873.798645,1336
873.915894,1356
874.03302,1360
874.150208,1350
874.267456,1387
874.384583,1409
874.501831,1389
874.618958,1434
874.736145,1365
874.853333,1392
874.970459,1370
875.087646,1376
875.204834,1369
875.32196,1381
875.439148,1394
875.556274,1373
875.673401,1369
875.790527,1364
875.907715,1384
876.024841,1398
876.141968,1414
876.259094,1356
876.376282,1335
876.493347,1348
876.610474,1372
876.7276,1378
876.844727,1404
876.961853,1374
877.078918,1366
877.195984,1389
877.313171,1361
877.430237,1366
877.547302,1389
877.664368,1345
877.781433,1390
877.898499,1397
878.015625,1348
878.13269,1355
878.249695,1392
878.366821,1356
878.483887,1362
878.600952,1345
878.717957,1368
878.834961,1403
878.952087,1366
879.069092,1376
879.186157,1359
879.303162,1375
879.420227,1367
879.537231,1357
879.654236,1334
879.77124,1374
879.888306,1330
880.005249,1351
880.122314,1372
880.239319,1371
880.356323,1339
880.473328,1357
880.590271,1399
880.707275,1360
880.824341,1340
880.941284,1327
881.058228,1361
881.175232,1336
881.292236,1358
881.40918,1350
881.526123,1344
881.643066,1308
881.760071,1367
881.877014,1347
881.993958,1366
882.11084,1350
882.227783,1349
882.344727,1349
882.46167,1349
882.578613,1374
882.695618,1326
882.812439,1367
882.929382,1391
883.046326,1297
883.163208,1392
883.280151,1337
883.397034,1316
883.513916,1354
883.630798,1361
883.747742,1371
883.864563,1365
883.981506,1393
884.098389,1408
884.21521,1373
884.332153,1384
884.448975,1383
884.565796,1371
884.682678,1391
884.7995,1354
884.916443,1409
885.033264,1425
885.150085,1426
885.266968,1448
885.383789,1486
885.500671,1479
885.617493,1466
885.734314,1490
885.851196,1430
885.967896,1443
886.084717,1449
886.201599,1439
886.318359,1462
886.435181,1440
886.552002,1420
886.668762,1478
886.785645,1404
886.902344,1400
887.019165,1428
887.135925,1417
887.252747,1373
887.369446,1416
887.486267,1417
887.603027,1408
887.719788,1373
887.836548,1373
887.953247,1402
888.070068,1374
888.186829,1399
888.303528,1366
888.420288,1384
888.536987,1313
888.653687,1401
888.770447,1388
888.887146,1340
889.003967,1403
889.120667,1372
889.237305,1366
889.354065,1383
889.470703,1373
889.587463,1368
889.704163,1415
889.820862,1369
889.937561,1382
890.054199,1381
890.170837,1380
890.287598,1310
890.404236,1394
890.520874,1362
890.637634,1381
890.754211,1336
890.87085,1362
890.987549,1393
891.104187,1359
891.220886,1378
891.337463,1357
891.454102,1368
891.57074,1394
891.687378,1386
891.804077,1412
891.920654,1352
892.037231,1353
892.15387,1358
892.270447,1362
892.387085,1403
892.503723,1362
892.6203,1382
892.736877,1393
892.853516,1381
892.970032,1412
893.08667,1360
893.203186,1375
893.319763,1373
893.43634,1380
893.552917,1370
893.669556,1422
893.786011,1396
893.902588,1345
894.019165,1344
894.135681,1383
894.252197,1374
894.368835,1378
894.485291,1418
894.601868,1336
894.718384,1441
894.8349,1386
894.951355,1394
895.067932,1378
895.184448,1391
895.300964,1398
895.417419,1406
895.533936,1368
895.650452,1384
895.766907,1421
895.883423,1350
895.999878,1403
896.116333,1386
896.232849,1427
896.349304,1382
896.465759,1412
896.582214,1357
896.698669,1421
896.815125,1396
896.931641,1387
897.048035,1377
897.164551,1401
897.280884,1416
897.397339,1407
897.513794,1401
897.630249,1408
897.746582,1400
897.863098,1357
897.979431,1402
898.095886,1349
898.212341,1379
898.328674,1445
898.445129,1437
898.561462,1408
898.677795,1379
898.794312,1407
898.910645,1391
899.026978,1388
899.143433,1405
899.259766,1363
899.37616,1353
899.492493,1389
899.608765,1414
899.725159,1422
899.841553,1417
899.957947,1394
900.07428,1382
900.190552,1376
900.306946,1386
900.423157,1429
900.53949,1410
900.655884,1402
900.772156,1406
900.888489,1396
901.004822,1362
901.121033,1397
901.237366,1432
901.353699,1431
901.46991,1409
901.586304,1406
901.702515,1418
901.818787,1393
901.93512,1409
902.051331,1430
902.167603,1430
902.283875,1450
902.400085,1470
902.516418,1413
902.632629,1436
902.74884,1400
902.865112,1486
902.981384,1471
903.097595,1455
903.213867,1459
903.330017,1469
903.446289,1445
903.5625,1418
903.67865,1412
903.794922,1467
903.911072,1450
904.027344,1456
904.143494,1416
904.259705,1443
904.375916,1431
904.492065,1430
904.608215,1444
904.724426,1408
904.840576,1427
904.956726,1401
905.072876,1440
905.189087,1434
905.305176,1425
905.421387,1418
905.537537,1399
905.653687,1421
905.769775,1397
905.885925,1419
906.002014,1394
906.118164,1399
906.234314,1432
906.350403,1411
906.466492,1427
906.582642,1436
906.69873,1435
906.814758,1420
906.930908,1386
907.046936,1387
907.163086,1385
907.279175,1387
907.395264,1452
907.511353,1421
907.62738,1405
907.743408,1429
907.859497,1421
907.975525,1425
908.091553,1414
908.207703,1423
908.32373,1411
908.439758,1397
908.555786,1442
908.671814,1451
908.787842,1426
908.90387,1409
909.019775,1400
909.135864,1406
909.251892,1440
909.367859,1389
909.483826,1426
909.599854,1377
909.715881,1429
909.831848,1384
909.947815,1420
910.063782,1443
910.179749,1421
910.295776,1428
910.411743,1478
910.527649,1389
910.643616,1443
910.759583,1390
910.875488,1403
910.991455,1428
911.107361,1403
911.223267,1428
911.339294,1456
911.4552,1439
911.571106,1425
911.687073,1448
911.802979,1426
911.918823,1390
912.034729,1409
912.150635,1410
912.266602,1412
912.382446,1390
912.498352,1423
912.614197,1384
912.730103,1414
912.846008,1372
792.44574,2198
792.56488,2165
792.68396,2110
792.80304,2132
792.92218,1994
793.041199,2049
793.160339,1987
793.279419,1986
793.398499,1932
793.517578,1940
793.636658,1915
793.755737,1925
793.874817,1908
793.993896,1932
794.112976,1869
794.232056,1912
794.351074,1844
794.470215,1862
794.589233,1839
794.708313,1790
794.827393,1811
794.946411,1814
795.065552,1787
795.18457,1803
795.303589,1796
795.422668,1771
795.541687,1731
795.660767,1788
795.779846,1732
795.898865,1765
796.017883,1737
796.136963,1721
796.255981,1707
796.375061,1723
796.49408,1732
796.613037,1747
796.732117,1734
796.851135,1686
796.970154,1725
797.089233,1680
797.208191,1711
797.327271,1727
797.446228,1754
797.565186,1676
797.684265,1702
797.803223,1699
797.922241,1648
798.04126,1701
798.160278,1661
798.279297,1613
798.398315,1616
798.517273,1622
798.636292,1649
798.75531,1632
798.874268,1656
798.993286,1634
799.112244,1646
799.231323,1629
799.350281,1609
799.469238,1661
799.588257,1656
799.707153,1650
799.826111,1658
799.945129,1657
800.064087,1676
800.183044,1594
800.302063,1636
800.421021,1656
800.539978,1639
800.658936,1617
800.777893,1652
800.896912,1625
801.015747,1598
801.134705,1595
801.253723,1648
801.37262,1656
801.491638,1578
801.610535,1632
801.729492,1619
801.84845,1592
801.967407,1600
802.086243,1592
802.205261,1597
802.324158,1597
802.443115,1626
802.562073,1595
802.680969,1626
802.799927,1596
802.918762,1605
803.037659,1594
803.156677,1600
803.275574,1600
803.39447,1560
803.513428,1565
803.632263,1565
803.751221,1597
803.870117,1578
803.989014,1591
804.107971,1588
804.226746,1554
804.345642,1619
804.4646,1530
804.583496,1598
804.702393,1562
804.821228,1536
804.940125,1593
805.059021,1531
805.177917,1566
805.296814,1597
805.415649,1596
805.534546,1596
805.653442,1575
805.772278,1579
805.891113,1567
806.01001,1557
806.128906,1592
806.247742,1590
806.366577,1550
806.485413,1593
806.604309,1543
806.723145,1542
806.84198,1613
806.960876,1615
807.079712,1522
807.198486,1583
807.317383,1537
807.436218,1588
807.554993,1554
807.673889,1606
807.792725,1527
807.91156,1566
808.030396,1572
808.14917,1604
808.268005,1587
808.386841,1581
808.505676,1589
808.624451,1567
808.743286,1590
808.862122,1562
808.980896,1554
809.099731,1570
809.218506,1516
809.337341,1554
809.456116,1558
809.57489,1564
809.693726,1573
809.8125,1541
809.931274,1570
810.050049,1596
810.168884,1547
810.287659,1596
810.406372,1530
810.525269,1576
810.643982,1543
810.762756,1526
810.881531,1615
811.000305,1564
811.11908,1556
811.237854,1547
811.356567,1549
811.475403,1540
811.594116,1563
811.71283,1562
811.831604,1542
811.950378,1591
812.069153,1575
812.187927,1532
812.30658,1574
812.425415,1583
812.544128,1550
812.662781,1559
812.781616,1539
812.900269,1507
813.019043,1591
813.137756,1555
813.256531,1532
813.375244,1525
813.493896,1525
813.612671,1537
813.731384,1551
813.850037,1525
813.96875,1545
814.087524,1546
814.206238,1504
814.324951,1530
814.443604,1497
814.562256,1519
814.68103,1518
814.799683,1525
814.918335,1524
815.037109,1531
815.155762,1521
815.274475,1544
815.393188,1504
815.511841,1558
815.630554,1484
815.749146,1540
815.867859,1492
815.986572,1516
816.105164,1492
816.223877,1494
816.342529,1496
816.461182,1502
816.579895,1480
816.698486,1507
816.817139,1488
816.935791,1516
817.054504,1500
817.173096,1522
817.291748,1488
817.4104,1510
817.529053,1463
817.647644,1492
817.766235,1478
817.884949,1485
818.00354,1483
818.122192,1453
818.240845,1489
818.359436,1498
818.478088,1454
818.59668,1484
818.715271,1446
818.833923,1436
818.952515,1462
819.071106,1468
819.189758,1454
819.30835,1450
819.426941,1438
819.545532,1437
819.664124,1427
819.782715,1412
819.901306,1431
820.019897,1426
820.138489,1419
820.25708,1426
820.375671,1394
820.494202,1404
820.612732,1399
820.731384,1423
820.849915,1379
820.968506,1429
821.087097,1378
821.205627,1408
821.324158,1426
821.442749,1402
821.561279,1417
821.679871,1381
821.798401,1405
821.916931,1440
822.035461,1412
822.154053,1418
822.272583,1366
822.391174,1420
822.509583,1343
822.628174,1362
822.746704,1375
822.865234,1417
822.983765,1389
823.102295,1395
823.220825,1378
823.339294,1405
823.457825,1426
823.576355,1368
823.694824,1378
823.813354,1383
823.931885,1426
824.050354,1361
824.168884,1390
824.287354,1393
824.405823,1425
824.524353,1399
824.642822,1362
824.761353,1410
824.879822,1380
824.998291,1389
825.116699,1362
825.235291,1372
825.353699,1335
825.472168,1374
825.590637,1390
825.709106,1400
825.827576,1346
825.946045,1362
826.064453,1375
826.182983,1329
826.301392,1373
826.4198,1324
826.53833,1382
826.656738,1323
826.775208,1347
826.893677,1364
827.012024,1349
827.130493,1374
827.248962,1349
827.36731,1328
827.485779,1370
827.604248,1400
827.722595,1353
827.841064,1358
827.959412,1359
828.077942,1326
828.196289,1345
828.314636,1365
828.433105,1347
828.551514,1358
828.669861,1368
828.78833,1373
828.906677,1391
829.025085,1314
829.143433,1361
829.261841,1327
829.38031,1373
829.498657,1332
829.617004,1349
829.735413,1315
829.85376,1362
829.972107,1337
830.090515,1372
830.208862,1346
830.327209,1356
830.445557,1345
830.563904,1354
830.682312,1340
830.800659,1353
830.919006,1332
831.037354,1363
831.155701,1370
831.274048,1361
831.392395,1328
831.51062,1358
831.629028,1341
831.747314,1336
831.865662,1338
831.984009,1315
832.102356,1347
832.220642,1359
832.338928,1319
832.457275,1352
832.575623,1380
832.693909,1343
832.812134,1341
832.930481,1358
833.048828,1351
833.167114,1362
833.2854,1335
833.403687,1372
833.521973,1386
833.640259,1330
833.758545,1332
833.876831,1372
833.995056,1355
834.113281,1300
834.231628,1335
834.349915,1398
834.468201,1376
834.586426,1346
834.704651,1343
834.822998,1308
834.941162,1341
835.059448,1374
835.177673,1362
835.295959,1321
835.414246,1366
835.53241,1291
835.650635,1333
835.768921,1351
835.887146,1367
836.005371,1342
836.123596,1310
836.241821,1315
836.360046,1354
836.478271,1353
836.596497,1377
836.714722,1356
836.832886,1363
836.95105,1304
837.069336,1356
837.1875,1361
837.305725,1330
837.423889,1361
837.542053,1354
837.660339,1357
837.778503,1370
837.896667,1350
838.014832,1338
838.132996,1349
838.25116,1384
838.369385,1356
838.487488,1363
838.605713,1341
838.723877,1350
838.84198,1382
838.960205,1344
839.078308,1348
839.196472,1336
839.314636,1338
839.4328,1322
839.550964,1404
839.669067,1372
839.787231,1340
839.905396,1331
840.023499,1332
840.141602,1320
840.259766,1327
840.377869,1370
840.495972,1381
840.614136,1333
840.732239,1320
840.850342,1383
840.968445,1359
841.086548,1353
841.204651,1380
841.322754,1351
841.440918,1352
841.55896,1382
841.677002,1339
841.795166,1356
841.913208,1364
842.031311,1369
842.149353,1398
842.267456,1373
842.385498,1326
842.503601,1391
842.621643,1373
842.739746,1375
842.857788,1339
842.97583,1337
843.093933,1353
843.211975,1376
843.330017,1357
843.44812,1342
843.566101,1296
843.684204,1391
843.802246,1368
843.920227,1358
844.038269,1388
844.156311,1356
844.274292,1389
844.392395,1328
844.510376,1382
844.628357,1318
844.74646,1357
844.864441,1369
844.982422,1352
845.100403,1371
845.218384,1363
845.336426,1342
845.454468,1311
845.572449,1321
845.69043,1346
845.808411,1351
845.926453,1382
846.044373,1312
846.162354,1346
846.280396,1313
846.398315,1370
846.516296,1364
846.634216,1342
846.752197,1360
846.870178,1340
846.988098,1363
847.106079,1325
847.22406,1362
847.34198,1352
847.4599,1347
847.577881,1353
847.695801,1345
847.813782,1375
847.931641,1348
848.049561,1396
848.167603,1338
848.285461,1349
848.403381,1387
848.521362,1351
848.639221,1357
848.75708,1365
848.875,1432
848.99292,1352
849.110901,1355
849.22876,1388
849.34668,1364
849.464539,1372
849.582458,1387
849.700317,1369
849.818176,1385
849.936096,1396
850.053955,1367
850.171875,1373
850.289673,1349
850.407593,1378
850.525452,1343
850.643311,1396
850.761169,1348
850.878967,1389
850.996887,1374
851.114746,1364
851.232544,1370
851.350403,1347
851.468262,1383
851.58606,1380
851.703979,1363
851.821777,1353
851.939636,1342
852.057434,1362
852.175232,1361
852.293091,1385
852.410889,1375
852.528687,1354
852.646545,1404
852.764343,1369
852.88208,1418
852.999939,1378
853.117676,1397
853.235535,1357
853.353271,1369
853.471069,1339
853.588928,1368
853.706604,1328
853.824402,1380
853.9422,1370
854.059998,1385
854.177734,1358
854.295532,1358
854.413269,1344
854.531006,1352
854.648804,1370
854.766541,1336
854.884277,1345
855.002014,1378
855.119751,1360
855.237549,1391
855.355225,1333
855.473022,1363
855.590698,1351
855.708435,1366
855.826172,1306
855.943848,1387
856.061646,1361
856.179321,1343
856.296997,1369
856.414795,1388
856.53241,1330
856.650085,1399
856.767822,1373
856.885559,1374
857.003174,1381
857.120911,1366
857.238586,1403
857.356201,1358
857.473938,1373
857.591614,1346
857.709351,1384
857.826965,1362
857.944641,1361
858.062317,1376
858.179993,1361
858.297668,1376
858.415283,1356
858.532959,1388
858.650574,1385
858.768188,1377
858.885803,1376
859.003479,1343
859.121094,1377
859.23877,1340
859.356384,1366
859.473999,1378
859.591675,1387
859.709229,1356
859.826843,1340
859.944458,1328
860.062012,1369
860.179626,1368
860.297302,1365
860.414856,1331
860.532471,1352
860.650024,1385
860.767639,1337
860.885193,1352
861.002808,1324
861.120361,1387
861.237976,1329
861.35553,1348
861.473022,1378
861.590698,1324
861.708191,1373
861.825745,1331
861.943298,1367
862.060852,1369
862.178406,1398
862.295959,1330
862.413513,1358
862.531006,1344
862.64856,1352
862.766113,1371
862.883667,1370
863.00116,1308
863.118713,1349
863.236206,1342
863.353699,1324
863.471252,1388
863.588745,1342
863.706177,1349
863.82373,1344
863.941162,1368
864.058716,1403
864.176208,1292
864.29364,1366
864.411194,1348
864.528687,1367
864.646118,1345
864.763611,1386
864.881042,1328
864.998535,1337
865.116028,1365
865.233459,1377
865.350891,1331
865.468384,1384
865.585754,1378
865.703308,1311
865.820679,1376
865.938171,1332
866.055542,1367
866.173035,1362
866.290466,1351
866.407837,1340
866.52533,1360
866.6427,1352
866.760071,1352
866.877563,1354
866.994934,1361
867.112305,1358
867.229736,1383
867.347107,1355
867.464539,1385
867.58197,1393
867.699341,1396
867.81665,1377
867.934082,1359
868.051453,1325
868.168823,1359
868.286194,1330
868.403564,1342
868.520935,1356
868.638306,1388
868.755676,1348
868.872986,1409
868.990295,1370
869.107727,1403
869.225037,1384
869.342346,1377
869.459717,1334
869.577026,1395
869.694336,1358
869.811707,1397
869.929016,1362
870.046326,1338
870.163635,1348
870.280945,1374
870.398254,1426
870.515564,1378
870.632812,1420
870.750183,1401
870.867432,1393
870.984741,1386
871.102051,1413
871.219299,1418
871.336609,1418
871.453918,1377
871.571106,1384
871.688416,1396
871.805664,1396
871.922852,1401
872.040222,1412
872.157471,1412
872.274719,1371
872.391968,1404
872.509155,1388
872.626465,1391
872.743652,1407
872.860962,1395
872.978149,1400
873.095337,1382
873.212646,1397
873.329834,1413
873.44696,1395
873.564209,1377
873.681396,1396
873.798645,1391
873.915894,1361
874.03302,1389
874.150208,1398
874.267456,1421
874.384583,1428
874.501831,1416
874.618958,1383
874.736145,1429
874.853333,1388
874.970459,1396
875.087646,1426
875.204834,1394
875.32196,1395
875.439148,1354
875.556274,1407
875.673401,1396
875.790527,1404
875.907715,1340
876.024841,1390
876.141968,1382
876.259094,1394
876.376282,1399
876.493347,1383
876.610474,1406
876.7276,1393
876.844727,1388
876.961853,1405
877.078918,1382
877.195984,1397
877.313171,1364
877.430237,1389
877.547302,1399
877.664368,1391
877.781433,1377
877.898499,1401
878.015625,1386
878.13269,1392
878.249695,1400
878.366821,1348
878.483887,1370
878.600952,1363
878.717957,1408
878.834961,1401
878.952087,1402
879.069092,1391
879.186157,1382
879.303162,1393
879.420227,1422
879.537231,1408
879.654236,1372
879.77124,1367
879.888306,1362
880.005249,1373
880.122314,1385
880.239319,1385
880.356323,1405
880.473328,1354
880.590271,1343
880.707275,1358
880.824341,1404
880.941284,1350
881.058228,1351
881.175232,1383
881.292236,1372
881.40918,1379
881.526123,1349
881.643066,1383
881.760071,1393
881.877014,1390
881.993958,1442
882.11084,1385
882.227783,1350
882.344727,1376
882.46167,1401
882.578613,1382
882.695618,1342
882.812439,1355
882.929382,1401
883.046326,1379
883.163208,1370
883.280151,1383
883.397034,1379
883.513916,1378
883.630798,1377
883.747742,1351
883.864563,1392
883.981506,1410
884.098389,1408
884.21521,1379
884.332153,1433
884.448975,1362
884.565796,1420
884.682678,1420
884.7995,1416
884.916443,1455
885.033264,1464
885.150085,1465
885.266968,1467
885.383789,1485
885.500671,1497
885.617493,1482
885.734314,1470
885.851196,1474
885.967896,1479
886.084717,1477
886.201599,1443
886.318359,1436
886.435181,1503
886.552002,1473
886.668762,1434
886.785645,1462
886.902344,1411
887.019165,1442
887.135925,1402
887.252747,1448
887.369446,1494
887.486267,1435
887.603027,1416
887.719788,1428
887.836548,1387
887.953247,1405
888.070068,1412
888.186829,1422
888.303528,1392
888.420288,1404
888.536987,1387
888.653687,1429
888.770447,1413
888.887146,1426
889.003967,1343
889.120667,1412
889.237305,1398
889.354065,1427
889.470703,1400
889.587463,1398
889.704163,1384
889.820862,1398
889.937561,1349
890.054199,1389
890.170837,1391
890.287598,1348
890.404236,1395
890.520874,1378
890.637634,1406
890.754211,1386
890.87085,1416
890.987549,1394
891.104187,1421
891.220886,1411
891.337463,1360
891.454102,1401
891.57074,1391
891.687378,1386
891.804077,1396
891.920654,1376
892.037231,1369
892.15387,1420
892.270447,1395
892.387085,1436
892.503723,1407
892.6203,1411
892.736877,1392
892.853516,1413
892.970032,1381
893.08667,1434
893.203186,1431
893.319763,1349
893.43634,1420
893.552917,1441
893.669556,1427
893.786011,1415
893.902588,1383
894.019165,1419
894.135681,1396
894.252197,1429
894.368835,1420
894.485291,1440
894.601868,1448
894.718384,1416
894.8349,1379
894.951355,1403
895.067932,1394
895.184448,1412
895.300964,1470
895.417419,1415
895.533936,1441
895.650452,1393
895.766907,1463
895.883423,1394
895.999878,1392
896.116333,1395
896.232849,1426
896.349304,1401
896.465759,1406
896.582214,1411
896.698669,1411
896.815125,1436
896.931641,1415
897.048035,1391
897.164551,1419
897.280884,1442
897.397339,1413
897.513794,1453
897.630249,1392
897.746582,1410
897.863098,1460
897.979431,1436
898.095886,1409
898.212341,1421
898.328674,1449
898.445129,1419
898.561462,1423
898.677795,1403
898.794312,1424
898.910645,1442
899.026978,1446
899.143433,1440
899.259766,1416
899.37616,1413
899.492493,1393
899.608765,1457
899.725159,1404
899.841553,1466
899.957947,1413
900.07428,1452
900.190552,1452
900.306946,1417
900.423157,1432
900.53949,1440
900.655884,1406
900.772156,1489
900.888489,1462
901.004822,1438
901.121033,1457
901.237366,1450
901.353699,1423
901.46991,1464
901.586304,1480
901.702515,1391
901.818787,1446
901.93512,1456
902.051331,1449
902.167603,1445
902.283875,1476
902.400085,1457
902.516418,1463
902.632629,1431
902.74884,1479
902.865112,1475
902.981384,1497
903.097595,1462
903.213867,1470
903.330017,1456
903.446289,1496
903.5625,1477
903.67865,1494
903.794922,1483
903.911072,1468
904.027344,1473
904.143494,1451
904.259705,1459
904.375916,1442
904.492065,1443
904.608215,1471
904.724426,1415
904.840576,1479
904.956726,1479
905.072876,1435
905.189087,1445
905.305176,1449
905.421387,1433
905.537537,1440
905.653687,1448
905.769775,1467
905.885925,1444
906.002014,1449
906.118164,1420
906.234314,1422
906.350403,1477
906.466492,1429
906.582642,1473
906.69873,1422
906.814758,1476
906.930908,1460
907.046936,1448
907.163086,1421
907.279175,1434
907.395264,1436
907.511353,1422
907.62738,1458
907.743408,1446
907.859497,1433
907.975525,1427
908.091553,1441
908.207703,1418
908.32373,1411
908.439758,1485
908.555786,1467
908.671814,1484
908.787842,1439
908.90387,1442
909.019775,1475
909.135864,1472
909.251892,1488
909.367859,1475
909.483826,1480
909.599854,1482
909.715881,1448
909.831848,1426
909.947815,1451
910.063782,1459
910.179749,1430
910.295776,1483
910.411743,1445
910.527649,1506
910.643616,1479
910.759583,1465
910.875488,1445
910.991455,1435
911.107361,1421
911.223267,1459
911.339294,1451
911.4552,1440
911.571106,1480
911.687073,1442
911.802979,1425
911.918823,1452
912.034729,1422
912.150635,1463
912.266602,1448
912.382446,1429
912.498352,1427
912.614197,1484
912.730103,1467
912.846008,1457
792.44574,2154
792.56488,2150
792.68396,2135
792.80304,2067
792.92218,2036
793.041199,2006
793.160339,2018
793.279419,2075
793.398499,1945
793.517578,1996
793.636658,1942
793.755737,1911
793.874817,1972
793.993896,1863
794.112976,1854
794.232056,1892
794.351074,1890
794.470215,1846
794.589233,1882
794.708313,1778
794.827393,1795
794.946411,1850
795.065552,1831
795.18457,1813
795.303589,1796
795.422668,1791
795.541687,1799
795.660767,1750
795.779846,1805
795.898865,1729
796.017883,1783
796.136963,1768
796.255981,1757
796.375061,1750
796.49408,1728
796.613037,1706
796.732117,1757
796.851135,1756
796.970154,1734
797.089233,1753
797.208191,1698
797.327271,1699
797.446228,1651
797.565186,1677
797.684265,1710
797.803223,1704
797.922241,1679
798.04126,1685
798.160278,1649
798.279297,1650
798.398315,1668
798.517273,1633
798.636292,1683
798.75531,1672
798.874268,1643
798.993286,1625
799.112244,1651
799.231323,1671
799.350281,1651
799.469238,1661
799.588257,1636
799.707153,1591
799.826111,1652
799.945129,1650
800.064087,1631
800.183044,1666
800.302063,1597
800.421021,1578
800.539978,1663
800.658936,1603
800.777893,1660
800.896912,1586
801.015747,1603
801.134705,1646
801.253723,1576
801.37262,1633
801.491638,1602
801.610535,1604
801.729492,1638
801.84845,1608
801.967407,1584
802.086243,1627
802.205261,1579
802.324158,1616
802.443115,1575
802.562073,1630
802.680969,1595
802.799927,1668
802.918762,1600
803.037659,1579
803.156677,1609
803.275574,1607
803.39447,1574
803.513428,1606
803.632263,1599
803.751221,1602
803.870117,1581
803.989014,1604
804.107971,1550
804.226746,1578
804.345642,1615
804.4646,1589
804.583496,1620
804.702393,1604
804.821228,1568
804.940125,1576
805.059021,1600
805.177917,1600
805.296814,1594
805.415649,1630
805.534546,1588
805.653442,1574
805.772278,1615
805.891113,1587
806.01001,1583
806.128906,1564
806.247742,1573
806.366577,1587
806.485413,1574
806.604309,1592
806.723145,1587
806.84198,1520
806.960876,1568
807.079712,1593
807.198486,1579
807.317383,1593
807.436218,1575
807.554993,1568
807.673889,1559
807.792725,1618
807.91156,1538
808.030396,1616
808.14917,1538
808.268005,1551
808.386841,1600
808.505676,1593
808.624451,1561
808.743286,1554
808.862122,1587
808.980896,1547
809.099731,1567
809.218506,1579
809.337341,1564
809.456116,1565
809.57489,1547
809.693726,1565
809.8125,1598
809.931274,1613
810.050049,1588
810.168884,1562
810.287659,1570
810.406372,1554
810.525269,1575
810.643982,1594
810.762756,1556
810.881531,1547
811.000305,1593
811.11908,1572
811.237854,1591
811.356567,1543
811.475403,1563
811.594116,1552
811.71283,1586
811.831604,1566
811.950378,1564
812.069153,1553
812.187927,1560
812.30658,1590
812.425415,1565
812.544128,1564
812.662781,1593
812.781616,1563
812.900269,1598
813.019043,1573
813.137756,1530
813.256531,1573
813.375244,1524
813.493896,1551
813.612671,1507
813.731384,1535
813.850037,1549
813.96875,1536
814.087524,1555
814.206238,1524
814.324951,1574
814.443604,1529
814.562256,1487
814.68103,1497
814.799683,1541
814.918335,1508
815.037109,1536
815.155762,1545
815.274475,1544
815.393188,1543
815.511841,1526
815.630554,1550
815.749146,1514
815.867859,1520
815.986572,1534
816.105164,1471
816.223877,1516
816.342529,1505
816.461182,1520
816.579895,1567
816.698486,1522
816.817139,1479
816.935791,1540
817.054504,1544
817.173096,1511
817.291748,1509
817.4104,1479
817.529053,1528
817.647644,1531
817.766235,1490
817.884949,1512
818.00354,1505
818.122192,1487
818.240845,1475
818.359436,1441
818.478088,1461
818.59668,1489
818.715271,1466
818.833923,1472
818.952515,1417
819.071106,1425
819.189758,1439
819.30835,1472
819.426941,1487
819.545532,1435
819.664124,1459
819.782715,1439
819.901306,1427
820.019897,1415
820.138489,1419
820.25708,1412
820.375671,1462
820.494202,1399
820.612732,1469
820.731384,1402
820.849915,1422
820.968506,1381
821.087097,1423
821.205627,1462
821.324158,1409
821.442749,1458
821.561279,1435
821.679871,1426
821.798401,1420
821.916931,1413
822.035461,1406
822.154053,1417
822.272583,1389
822.391174,1388
822.509583,1432
822.628174,1413
822.746704,1416
822.865234,1373
822.983765,1356
823.102295,1384
823.220825,1380
823.339294,1414
823.457825,1350
823.576355,1360
823.694824,1399
823.813354,1425
823.931885,1439
824.050354,1364
824.168884,1406
824.287354,1372
824.405823,1354
824.524353,1384
824.642822,1409
824.761353,1357
824.879822,1373
824.998291,1385
825.116699,1371
825.235291,1407
825.353699,1371
825.472168,1379
825.590637,1383
825.709106,1367
825.827576,1360
825.946045,1368
826.064453,1386
826.182983,1317
826.301392,1392
826.4198,1372
826.53833,1369
826.656738,1354
826.775208,1306
826.893677,1370
827.012024,1346
827.130493,1378
827.248962,1363
827.36731,1377
827.485779,1363
827.604248,1363
827.722595,1381
827.841064,1334
827.959412,1385
828.077942,1337
828.196289,1338
828.314636,1346
828.433105,1369
828.551514,1354
828.669861,1375
828.78833,1342
828.906677,1365
829.025085,1341
829.143433,1356
829.261841,1328
829.38031,1381
829.498657,1331
829.617004,1368
829.735413,1380
829.85376,1363
829.972107,1330
830.090515,1359
830.208862,1359
830.327209,1369
830.445557,1370
830.563904,1360
830.682312,1349
830.800659,1353
830.919006,1380
831.037354,1309
831.155701,1392
831.274048,1344
831.392395,1370
831.51062,1326
831.629028,1348
831.747314,1370
831.865662,1371
831.984009,1349
832.102356,1353
832.220642,1383
832.338928,1367
832.457275,1361
832.575623,1362
832.693909,1320
832.812134,1342
832.930481,1335
833.048828,1336
833.167114,1317
833.2854,1332
833.403687,1351
833.521973,1376
833.640259,1378
833.758545,1342
833.876831,1357
833.995056,1396
834.113281,1368
834.231628,1362
834.349915,1338
834.468201,1357
834.586426,1384
834.704651,1408
834.822998,1356
834.941162,1358
835.059448,1353
835.177673,1353
835.295959,1372
835.414246,1337
835.53241,1318
835.650635,1323
835.768921,1332
835.887146,1320
836.005371,1328
836.123596,1357
836.241821,1350
836.360046,1346
836.478271,1373
836.596497,1345
836.714722,1350
836.832886,1335
836.95105,1351
837.069336,1322
837.1875,1402
837.305725,1395
837.423889,1338
837.542053,1349
837.660339,1359
837.778503,1315
837.896667,1381
838.014832,1353
838.132996,1329
838.25116,1354
838.369385,1338
838.487488,1353
838.605713,1367
838.723877,1328
838.84198,1324
838.960205,1358
839.078308,1378
839.196472,1397
839.314636,1340
839.4328,1366
839.550964,1326
839.669067,1358
839.787231,1366
839.905396,1363
840.023499,1370
840.141602,1377
840.259766,1415
840.377869,1361
840.495972,1393
840.614136,1360
840.732239,1317
840.850342,1307
840.968445,1364
841.086548,1368
841.204651,1376
841.322754,1355
841.440918,1356
841.55896,1380
841.677002,1399
841.795166,1369
841.913208,1332
842.031311,1373
842.149353,1381
842.267456,1375
842.385498,1358
842.503601,1386
842.621643,1353
842.739746,1390
842.857788,1349
842.97583,1386
843.093933,1394
843.211975,1371
843.330017,1371
843.44812,1361
843.566101,1355
843.684204,1304
843.802246,1368
843.920227,1365
844.038269,1382
844.156311,1378
844.274292,1346
844.392395,1327
844.510376,1361
844.628357,1393
844.74646,1402
844.864441,1352
844.982422,1350
845.100403,1405
845.218384,1342
845.336426,1331
845.454468,1349
845.572449,1358
845.69043,1348
845.808411,1352
845.926453,1356
846.044373,1377
846.162354,1375
846.280396,1369
846.398315,1392
846.516296,1361
846.634216,1328
846.752197,1329
846.870178,1355
846.988098,1366
847.106079,1378
847.22406,1342
847.34198,1329
847.4599,1364
847.577881,1350
847.695801,1372
847.813782,1344
847.931641,1392
848.049561,1380
848.167603,1309
848.285461,1355
848.403381,1400
848.521362,1356
848.639221,1388
848.75708,1375
848.875,1345
848.99292,1358
849.110901,1367
849.22876,1372
849.34668,1407
849.464539,1360
849.582458,1391
849.700317,1401
849.818176,1410
849.936096,1378
850.053955,1337
850.171875,1413
850.289673,1385
850.407593,1363
850.525452,1439
850.643311,1385
850.761169,1399
850.878967,1406
850.996887,1360
851.114746,1384
851.232544,1355
851.350403,1382
851.468262,1355
851.58606,1414
851.703979,1352
851.821777,1367
851.939636,1391
852.057434,1364
852.175232,1359
852.293091,1333
852.410889,1351
852.528687,1403
852.646545,1374
852.764343,1435
852.88208,1411
852.999939,1400
853.117676,1394
853.235535,1377
853.353271,1351
853.471069,1360
853.588928,1342
853.706604,1361
853.824402,1404
853.9422,1357
854.059998,1359
854.177734,1329
854.295532,1348
854.413269,1376
854.531006,1337
854.648804,1336
854.766541,1356
854.884277,1370
855.002014,1375
855.119751,1346
855.237549,1396
855.355225,1378
855.473022,1362
855.590698,1417
855.708435,1368
855.826172,1372
855.943848,1376
856.061646,1360
856.179321,1355
856.296997,1351
856.414795,1372
856.53241,1343
856.650085,1369
856.767822,1397
856.885559,1388
857.003174,1380
857.120911,1418
857.238586,1400
857.356201,1349
857.473938,1383
857.591614,1399
857.709351,1334
857.826965,1412
857.944641,1354
858.062317,1387
858.179993,1401
858.297668,1376
858.415283,1392
858.532959,1424
858.650574,1369
858.768188,1392
858.885803,1366
859.003479,1388
859.121094,1372
859.23877,1380
859.356384,1368
859.473999,1355
859.591675,1354
859.709229,1367
859.826843,1319
859.944458,1370
860.062012,1354
860.179626,1374
860.297302,1348
860.414856,1360
860.532471,1324
860.650024,1347
860.767639,1364
860.885193,1371
861.002808,1394
861.120361,1382
861.237976,1334
861.35553,1332
861.473022,1375
861.590698,1366
861.708191,1350
861.825745,1382
861.943298,1373
862.060852,1368
862.178406,1390
862.295959,1330
862.413513,1384
862.531006,1355
862.64856,1361
862.766113,1327
862.883667,1366
863.00116,1353
863.118713,1324
863.236206,1393
863.353699,1369
863.471252,1369
863.588745,1385
863.706177,1365
863.82373,1355
863.941162,1347
864.058716,1346
864.176208,1368
864.29364,1351
864.411194,1370
864.528687,1360
864.646118,1342
864.763611,1346
864.881042,1323
864.998535,1383
865.116028,1319
865.233459,1368
865.350891,1349
865.468384,1376
865.585754,1395
865.703308,1337
865.820679,1361
865.938171,1353
866.055542,1384
866.173035,1377
866.290466,1372
866.407837,1407
866.52533,1359
866.6427,1349
866.760071,1362
866.877563,1338
866.994934,1347
867.112305,1382
867.229736,1391
867.347107,1358
867.464539,1372
867.58197,1374
867.699341,1369
867.81665,1381
867.934082,1379
868.051453,1384
868.168823,1371
868.286194,1378
868.403564,1395
868.520935,1341
868.638306,1374
868.755676,1332
868.872986,1352
868.990295,1370
869.107727,1369
869.225037,1387
869.342346,1419
869.459717,1406
869.577026,1398
869.694336,1361
869.811707,1410
869.929016,1344
870.046326,1424
870.163635,1378
870.280945,1400
870.398254,1368
870.515564,1397
870.632812,1369
870.750183,1402
870.867432,1388
870.984741,1358
871.102051,1367
871.219299,1406
871.336609,1426
871.453918,1397
871.571106,1416
871.688416,1442
871.805664,1398
871.922852,1398
872.040222,1406
872.157471,1414
872.274719,1375
872.391968,1394
872.509155,1406
872.626465,1385
872.743652,1404
872.860962,1420
872.978149,1360
873.095337,1410
873.212646,1399
873.329834,1381
873.44696,1441
873.564209,1426
873.681396,1414
873.798645,1412
873.915894,1406
874.03302,1389
874.150208,1406
874.267456,1402
874.384583,1391
874.501831,1389
874.618958,1410
874.736145,1406
874.853333,1421
874.970459,1387
875.087646,1420
875.204834,1376
875.32196,1427
875.439148,1400
875.556274,1405
875.673401,1424
875.790527,1442
875.907715,1360
876.024841,1393
876.141968,1403
876.259094,1386
876.376282,1406
876.493347,1377
876.610474,1389
876.7276,1375
876.844727,1373
876.961853,1388
877.078918,1353
877.195984,1422
877.313171,1398
877.430237,1420
877.547302,1392
877.664368,1379
877.781433,1391
877.898499,1375
878.015625,1380
878.13269,1391
878.249695,1413
878.366821,1359
878.483887,1396
878.600952,1411
878.717957,1433
878.834961,1378
878.952087,1384
879.069092,1376
879.186157,1399
879.303162,1409
879.420227,1364
879.537231,1367
879.654236,1409
879.77124,1385
879.888306,1358
880.005249,1375
880.122314,1352
880.239319,1385
880.356323,1368
880.473328,1379
880.590271,1359
880.707275,1379
880.824341,1398
880.941284,1422
881.058228,1356
881.175232,1390
881.292236,1399
881.40918,1388
881.526123,1380
881.643066,1362
881.760071,1377
881.877014,1360
881.993958,1396
882.11084,1379
882.227783,1363
882.344727,1338
882.46167,1420
882.578613,1377
882.695618,1407
882.812439,1406
882.929382,1391
883.046326,1386
883.163208,1390
883.280151,1413
883.397034,1376
883.513916,1404
883.630798,1377
883.747742,1400
883.864563,1389
883.981506,1418
884.098389,1400
884.21521,1424
884.332153,1429
884.448975,1416
884.565796,1438
884.682678,1423
884.7995,1420
884.916443,1476
885.033264,1455
885.150085,1452
885.266968,1475
885.383789,1466
885.500671,1465
885.617493,1407
885.734314,1517
885.851196,1513
885.967896,1450
886.084717,1479
886.201599,1505
886.318359,1480
886.435181,1457
886.552002,1500
886.668762,1440
886.785645,1455
886.902344,1435
887.019165,1464
887.135925,1456
887.252747,1404
887.369446,1453
887.486267,1437
887.603027,1457
887.719788,1409
887.836548,1428
887.953247,1450
888.070068,1407
888.186829,1424
888.303528,1422
888.420288,1406
888.536987,1440
888.653687,1368
888.770447,1422
888.887146,1401
889.003967,1429
889.120667,1402
889.237305,1416
889.354065,1420
889.470703,1374
889.587463,1388
889.704163,1400
889.820862,1425
889.937561,1407
890.054199,1469
890.170837,1407
890.287598,1328
890.404236,1394
890.520874,1398
890.637634,1394
890.754211,1448
890.87085,1398
890.987549,1362
891.104187,1419
891.220886,1390
891.337463,1375
891.454102,1400
891.57074,1433
891.687378,1400
891.804077,1404
891.920654,1418
892.037231,1446
892.15387,1364
892.270447,1403
892.387085,1457
892.503723,1428
892.6203,1375
892.736877,1398
892.853516,1433
892.970032,1415
893.08667,1459
893.203186,1428
893.319763,1409
893.43634,1393
893.552917,1436
893.669556,1413
893.786011,1420
893.902588,1463
894.019165,1426
894.135681,1464
894.252197,1406
894.368835,1421
894.485291,1397
894.601868,1463
894.718384,1421
894.8349,1422
894.951355,1431
895.067932,1391
895.184448,1436
895.300964,1434
895.417419,1415
895.533936,1409
895.650452,1397
895.766907,1405
895.883423,1398
895.999878,1445
896.116333,1441
896.232849,1421
896.349304,1430
896.465759,1405
896.582214,1426
896.698669,1389
896.815125,1448
896.931641,1426
897.048035,1450
897.164551,1434
897.280884,1415
897.397339,1405
897.513794,1410
897.630249,1406
897.746582,1404
897.863098,1417
897.979431,1402
898.095886,1431
898.212341,1429
898.328674,1384
898.445129,1424
898.561462,1410
898.677795,1480
898.794312,1411
898.910645,1412
899.026978,1426
899.143433,1457
899.259766,1458
899.37616,1462
899.492493,1413
899.608765,1459
899.725159,1449
899.841553,1441
899.957947,1412
900.07428,1438
900.190552,1454
900.306946,1407
900.423157,1418
900.53949,1454
900.655884,1403
900.772156,1451
900.888489,1481
901.004822,1457
901.121033,1405
901.237366,1469
901.353699,1430
901.46991,1464
901.586304,1452
901.702515,1469
901.818787,1437
901.93512,1460
902.051331,1445
902.167603,1449
902.283875,1484
902.400085,1461
902.516418,1464
902.632629,1442
902.74884,1487
902.865112,1478
902.981384,1513
903.097595,1450
903.213867,1516
903.330017,1466
903.446289,1518
903.5625,1465
903.67865,1492
903.794922,1472
903.911072,1457
904.027344,1477
904.143494,1450
904.259705,1473
904.375916,1508
904.492065,1451
904.608215,1461
904.724426,1461
904.840576,1488
904.956726,1486
905.072876,1435
905.189087,1447
905.305176,1459
905.421387,1451
905.537537,1465
905.653687,1402
905.769775,1453
905.885925,1442
906.002014,1481
906.118164,1449
906.234314,1426
906.350403,1436
906.466492,1485
906.582642,1458
906.69873,1458
906.814758,1504
906.930908,1514
907.046936,1476
907.163086,1457
907.279175,1465
907.395264,1508
907.511353,1478
907.62738,1437
907.743408,1453
907.859497,1409
907.975525,1450
908.091553,1486
908.207703,1479
908.32373,1433
908.439758,1479
908.555786,1477
908.671814,1461
908.787842,1482
908.90387,1452
909.019775,1412
909.135864,1471
909.251892,1450
909.367859,1447
909.483826,1463
909.599854,1438
909.715881,1454
909.831848,1418
909.947815,1457
910.063782,1490
910.179749,1451
910.295776,1501
910.411743,1482
910.527649,1497
910.643616,1496
910.759583,1430
910.875488,1436
910.991455,1452
911.107361,1494
911.223267,1474
911.339294,1465
911.4552,1454
911.571106,1495
911.687073,1464
911.802979,1429
911.918823,1477
912.034729,1460
912.150635,1478
912.266602,1424
912.382446,1451
912.498352,1438
912.614197,1452
912.730103,1440
912.846008,1458
