792.44574,2609
792.56488,2554
792.68396,2543
792.80304,2491
792.92218,2481
793.041199,2344
793.160339,2377
793.279419,2307
793.398499,2293
793.517578,2258
793.636658,2193
793.755737,2225
793.874817,2196
793.993896,2118
794.112976,2154
794.232056,2138
794.351074,2084
794.470215,2111
794.589233,2036
794.708313,2005
794.827393,2092
794.946411,2036
795.065552,1996
795.18457,1979
795.303589,1991
795.422668,1908
795.541687,1969
795.660767,1972
795.779846,1943
795.898865,1892
796.017883,1928
796.136963,1866
796.255981,1908
796.375061,1868
796.49408,1869
796.613037,1885
796.732117,1851
796.851135,1848
796.970154,1809
797.089233,1791
797.208191,1761
797.327271,1782
797.446228,1806
797.565186,1781
797.684265,1784
797.803223,1784
797.922241,1777
798.04126,1736
798.160278,1775
798.279297,1678
798.398315,1752
798.517273,1752
798.636292,1749
798.75531,1757
798.874268,1742
798.993286,1681
799.112244,1753
799.231323,1689
799.350281,1765
799.469238,1710
799.588257,1733
799.707153,1723
799.826111,1741
799.945129,1724
800.064087,1670
800.183044,1691
800.302063,1700
800.421021,1714
800.539978,1602
800.658936,1678
800.777893,1688
800.896912,1678
801.015747,1669
801.134705,1671
801.253723,1692
801.37262,1592
801.491638,1712
801.610535,1639
801.729492,1695
801.84845,1622
801.967407,1704
802.086243,1608
802.205261,1645
802.324158,1641
802.443115,1619
802.562073,1632
802.680969,1609
802.799927,1623
802.918762,1647
803.037659,1669
803.156677,1655
803.275574,1618
803.39447,1664
803.513428,1665
803.632263,1634
803.751221,1645
803.870117,1625
803.989014,1645
804.107971,1588
804.226746,1537
804.345642,1642
804.4646,1593
804.583496,1600
804.702393,1585
804.821228,1621
804.940125,1648
805.059021,1647
805.177917,1643
805.296814,1599
805.415649,1612
805.534546,1620
805.653442,1621
805.772278,1608
805.891113,1598
806.01001,1635
806.128906,1624
806.247742,1615
806.366577,1617
806.485413,1625
806.604309,1616
806.723145,1619
806.84198,1633
806.960876,1585
807.079712,1584
807.198486,1613
807.317383,1585
807.436218,1650
807.554993,1591
807.673889,1613
807.792725,1584
807.91156,1586
808.030396,1634
808.14917,1575
808.268005,1617
808.386841,1611
808.505676,1598
808.624451,1607
808.743286,1534
808.862122,1602
808.980896,1594
809.099731,1592
809.218506,1614
809.337341,1618
809.456116,1584
809.57489,1625
809.693726,1603
809.8125,1617
809.931274,1598
810.050049,1623
810.168884,1593
810.287659,1595
810.406372,1564
810.525269,1572
810.643982,1578
810.762756,1609
810.881531,1605
811.000305,1645
811.11908,1613
811.237854,1615
811.356567,1567
811.475403,1605
811.594116,1546
811.71283,1620
811.831604,1621
811.950378,1619
812.069153,1590
812.187927,1571
812.30658,1623
812.425415,1606
812.544128,1579
812.662781,1587
812.781616,1615
812.900269,1590
813.019043,1610
813.137756,1604
813.256531,1615
813.375244,1613
813.493896,1567
813.612671,1595
813.731384,1589
813.850037,1563
813.96875,1558
814.087524,1557
814.206238,1562
814.324951,1584
814.443604,1552
814.562256,1579
814.68103,1568
814.799683,1625
814.918335,1511
815.037109,1548
815.155762,1557
815.274475,1612
815.393188,1562
815.511841,1522
815.630554,1551
815.749146,1539
815.867859,1532
815.986572,1547
816.105164,1561
816.223877,1499
816.342529,1530
816.461182,1527
816.579895,1549
816.698486,1554
816.817139,1531
816.935791,1564
817.054504,1501
817.173096,1572
817.291748,1501
817.4104,1516
817.529053,1495
817.647644,1545
817.766235,1503
817.884949,1535
818.00354,1520
818.122192,1518
818.240845,1506
818.359436,1468
818.478088,1502
818.59668,1496
818.715271,1460
818.833923,1476
818.952515,1426
819.071106,1444
819.189758,1431
819.30835,1452
819.426941,1393
819.545532,1401
819.664124,1456
819.782715,1411
819.901306,1412
820.019897,1422
820.138489,1417
820.25708,1411
820.375671,1410
820.494202,1452
820.612732,1443
820.731384,1406
820.849915,1417
820.968506,1423
821.087097,1416
821.205627,1427
821.324158,1366
821.442749,1400
821.561279,1385
821.679871,1402
821.798401,1356
821.916931,1437
822.035461,1386
822.154053,1404
822.272583,1360
822.391174,1426
822.509583,1379
822.628174,1418
822.746704,1364
822.865234,1379
822.983765,1365
823.102295,1381
823.220825,1360
823.339294,1348
823.457825,1354
823.576355,1406
823.694824,1367
823.813354,1407
823.931885,1357
824.050354,1385
824.168884,1390
824.287354,1386
824.405823,1380
824.524353,1401
824.642822,1401
824.761353,1355
824.879822,1409
824.998291,1348
825.116699,1345
825.235291,1386
825.353699,1369
825.472168,1371
825.590637,1351
825.709106,1377
825.827576,1311
825.946045,1386
826.064453,1355
826.182983,1333
826.301392,1335
826.4198,1355
826.53833,1300
826.656738,1338
826.775208,1345
826.893677,1376
827.012024,1293
827.130493,1388
827.248962,1372
827.36731,1349
827.485779,1378
827.604248,1357
827.722595,1331
827.841064,1332
827.959412,1337
828.077942,1366
828.196289,1349
828.314636,1317
828.433105,1359
828.551514,1348
828.669861,1354
828.78833,1337
828.906677,1317
829.025085,1349
829.143433,1321
829.261841,1317
829.38031,1304
829.498657,1265
829.617004,1320
829.735413,1343
829.85376,1305
829.972107,1315
830.090515,1293
830.208862,1282
830.327209,1317
830.445557,1318
830.563904,1325
830.682312,1344
830.800659,1333
830.919006,1396
831.037354,1329
831.155701,1355
831.274048,1373
831.392395,1345
831.51062,1340
831.629028,1348
831.747314,1359
831.865662,1318
831.984009,1346
832.102356,1338
832.220642,1354
832.338928,1353
832.457275,1327
832.575623,1355
832.693909,1347
832.812134,1359
832.930481,1360
833.048828,1314
833.167114,1314
833.2854,1351
833.403687,1328
833.521973,1347
833.640259,1283
833.758545,1340
833.876831,1318
833.995056,1338
834.113281,1328
834.231628,1370
834.349915,1330
834.468201,1365
834.586426,1297
834.704651,1337
834.822998,1327
834.941162,1326
835.059448,1370
835.177673,1337
835.295959,1329
835.414246,1378
835.53241,1316
835.650635,1344
835.768921,1295
835.887146,1356
836.005371,1297
836.123596,1357
836.241821,1355
836.360046,1366
836.478271,1348
836.596497,1319
836.714722,1330
836.832886,1325
836.95105,1341
837.069336,1340
837.1875,1354
837.305725,1342
837.423889,1333
837.542053,1329
837.660339,1312
837.778503,1314
837.896667,1336
838.014832,1370
838.132996,1364
838.25116,1337
838.369385,1366
838.487488,1326
838.605713,1367
838.723877,1331
838.84198,1348
838.960205,1371
839.078308,1348
839.196472,1336
839.314636,1348
839.4328,1368
839.550964,1345
839.669067,1349
839.787231,1375
839.905396,1361
840.023499,1330
840.141602,1361
840.259766,1350
840.377869,1395
840.495972,1362
840.614136,1363
840.732239,1381
840.850342,1350
840.968445,1348
841.086548,1389
841.204651,1400
841.322754,1383
841.440918,1413
841.55896,1412
841.677002,1371
841.795166,1431
841.913208,1352
842.031311,1332
842.149353,1372
842.267456,1377
842.385498,1374
842.503601,1388
842.621643,1350
842.739746,1389
842.857788,1343
842.97583,1386
843.093933,1357
843.211975,1396
843.330017,1387
843.44812,1403
843.566101,1375
843.684204,1352
843.802246,1404
843.920227,1349
844.038269,1338
844.156311,1342
844.274292,1398
844.392395,1372
844.510376,1401
844.628357,1358
844.74646,1372
844.864441,1395
844.982422,1365
845.100403,1394
845.218384,1359
845.336426,1379
845.454468,1353
845.572449,1348
845.69043,1363
845.808411,1337
845.926453,1371
846.044373,1353
846.162354,1333
846.280396,1384
846.398315,1343
846.516296,1401
846.634216,1358
846.752197,1307
846.870178,1365
846.988098,1385
847.106079,1387
847.22406,1334
847.34198,1387
847.4599,1342
847.577881,1383
847.695801,1336
847.813782,1359
847.931641,1385
848.049561,1338
848.167603,1367
848.285461,1335
848.403381,1352
848.521362,1350
848.639221,1345
848.75708,1346
848.875,1360
848.99292,1352
849.110901,1410
849.22876,1367
849.34668,1411
849.464539,1349
849.582458,1382
849.700317,1383
849.818176,1356
849.936096,1345
850.053955,1385
850.171875,1339
850.289673,1333
850.407593,1377
850.525452,1362
850.643311,1353
850.761169,1332
850.878967,1344
850.996887,1358
851.114746,1336
851.232544,1359
851.350403,1382
851.468262,1392
851.58606,1373
851.703979,1360
851.821777,1371
851.939636,1354
852.057434,1368
852.175232,1351
852.293091,1323
852.410889,1373
852.528687,1408
852.646545,1389
852.764343,1411
852.88208,1400
852.999939,1372
853.117676,1398
853.235535,1423
853.353271,1382
853.471069,1378
853.588928,1397
853.706604,1373
853.824402,1337
853.9422,1400
854.059998,1364
854.177734,1366
854.295532,1365
854.413269,1358
854.531006,1375
854.648804,1374
854.766541,1391
854.884277,1356
855.002014,1399
855.119751,1363
855.237549,1352
855.355225,1399
855.473022,1383
855.590698,1362
855.708435,1394
855.826172,1371
855.943848,1411
856.061646,1368
856.179321,1435
856.296997,1341
856.414795,1372
856.53241,1401
856.650085,1388
856.767822,1369
856.885559,1408
857.003174,1381
857.120911,1427
857.238586,1411
857.356201,1424
857.473938,1415
857.591614,1362
857.709351,1368
857.826965,1397
857.944641,1397
858.062317,1410
858.179993,1388
858.297668,1361
858.415283,1411
858.532959,1429
858.650574,1398
858.768188,1418
858.885803,1406
859.003479,1390
859.121094,1399
859.23877,1395
859.356384,1392
859.473999,1374
859.591675,1375
859.709229,1410
859.826843,1394
859.944458,1384
860.062012,1425
860.179626,1377
860.297302,1332
860.414856,1371
860.532471,1365
860.650024,1317
860.767639,1403
860.885193,1371
861.002808,1391
861.120361,1397
861.237976,1390
861.35553,1372
861.473022,1357
861.590698,1348
861.708191,1382
861.825745,1412
861.943298,1368
862.060852,1363
862.178406,1355
862.295959,1386
862.413513,1361
862.531006,1339
862.64856,1344
862.766113,1345
862.883667,1327
863.00116,1362
863.118713,1325
863.236206,1354
863.353699,1375
863.471252,1362
863.588745,1380
863.706177,1339
863.82373,1370
863.941162,1363
864.058716,1374
864.176208,1364
864.29364,1330
864.411194,1392
864.528687,1326
864.646118,1350
864.763611,1338
864.881042,1317
864.998535,1347
865.116028,1354
865.233459,1358
865.350891,1348
865.468384,1341
865.585754,1368
865.703308,1361
865.820679,1356
865.938171,1349
866.055542,1389
866.173035,1396
866.290466,1346
866.407837,1363
866.52533,1330
866.6427,1381
866.760071,1363
866.877563,1340
866.994934,1389
867.112305,1338
867.229736,1402
867.347107,1327
867.464539,1407
867.58197,1361
867.699341,1390
867.81665,1347
867.934082,1392
868.051453,1359
868.168823,1372
868.286194,1364
868.403564,1377
868.520935,1381
868.638306,1353
868.755676,1390
868.872986,1397
868.990295,1361
869.107727,1351
869.225037,1370
869.342346,1449
869.459717,1379
869.577026,1399
869.694336,1416
869.811707,1378
869.929016,1392
870.046326,1399
870.163635,1403
870.280945,1397
870.398254,1460
870.515564,1380
870.632812,1371
870.750183,1403
870.867432,1405
870.984741,1402
871.102051,1425
871.219299,1410
871.336609,1442
871.453918,1432
871.571106,1428
871.688416,1420
871.805664,1459
871.922852,1417
872.040222,1432
872.157471,1469
872.274719,1448
872.391968,1448
872.509155,1451
872.626465,1433
872.743652,1470
872.860962,1375
872.978149,1454
873.095337,1440
873.212646,1434
873.329834,1432
873.44696,1418
873.564209,1404
873.681396,1395
873.798645,1425
873.915894,1407
874.03302,1395
874.150208,1418
874.267456,1455
874.384583,1413
874.501831,1432
874.618958,1394
874.736145,1442
874.853333,1430
874.970459,1436
875.087646,1431
875.204834,1454
875.32196,1399
875.439148,1452
875.556274,1456
875.673401,1452
875.790527,1377
875.907715,1424
876.024841,1422
876.141968,1398
876.259094,1379
876.376282,1422
876.493347,1433
876.610474,1372
876.7276,1425
876.844727,1406
876.961853,1347
877.078918,1417
877.195984,1432
877.313171,1394
877.430237,1403
877.547302,1427
877.664368,1357
877.781433,1399
877.898499,1413
878.015625,1393
878.13269,1428
878.249695,1429
878.366821,1371
878.483887,1382
878.600952,1391
878.717957,1368
878.834961,1411
878.952087,1421
879.069092,1337
879.186157,1394
879.303162,1381
879.420227,1356
879.537231,1373
879.654236,1355
879.77124,1367
879.888306,1355
880.005249,1359
880.122314,1383
880.239319,1376
880.356323,1411
880.473328,1375
880.590271,1383
880.707275,1340
880.824341,1360
880.941284,1316
881.058228,1361
881.175232,1379
881.292236,1365
881.40918,1371
881.526123,1368
881.643066,1344
881.760071,1394
881.877014,1348
881.993958,1321
882.11084,1389
882.227783,1371
882.344727,1341
882.46167,1380
882.578613,1380
882.695618,1356
882.812439,1357
882.929382,1326
883.046326,1370
883.163208,1361
883.280151,1333
883.397034,1346
883.513916,1351
883.630798,1404
883.747742,1395
883.864563,1364
883.981506,1370
884.098389,1395
884.21521,1449
884.332153,1384
884.448975,1401
884.565796,1450
884.682678,1424
884.7995,1416
884.916443,1480
885.033264,1538
885.150085,1507
885.266968,1517
885.383789,1533
885.500671,1584
885.617493,1545
885.734314,1616
885.851196,1585
885.967896,1543
886.084717,1522
886.201599,1563
886.318359,1532
886.435181,1553
886.552002,1538
886.668762,1507
886.785645,1533
886.902344,1491
887.019165,1474
887.135925,1435
887.252747,1539
887.369446,1489
887.486267,1459
887.603027,1419
887.719788,1406
887.836548,1385
887.953247,1447
888.070068,1394
888.186829,1458
888.303528,1365
888.420288,1426
888.536987,1398
888.653687,1387
888.770447,1363
888.887146,1377
889.003967,1371
889.120667,1369
889.237305,1352
889.354065,1388
889.470703,1353
889.587463,1397
889.704163,1354
889.820862,1346
889.937561,1357
890.054199,1370
890.170837,1391
890.287598,1334
890.404236,1350
890.520874,1342
890.637634,1406
890.754211,1355
890.87085,1397
890.987549,1384
891.104187,1384
891.220886,1404
891.337463,1367
891.454102,1380
891.57074,1345
891.687378,1365
891.804077,1422
891.920654,1371
892.037231,1372
892.15387,1335
892.270447,1337
892.387085,1376
892.503723,1385
892.6203,1377
892.736877,1393
892.853516,1388
892.970032,1337
893.08667,1349
893.203186,1371
893.319763,1372
893.43634,1341
893.552917,1390
893.669556,1366
893.786011,1370
893.902588,1367
894.019165,1383
894.135681,1353
894.252197,1363
894.368835,1398
894.485291,1400
894.601868,1357
894.718384,1368
894.8349,1379
894.951355,1417
895.067932,1384
895.184448,1355
895.300964,1402
895.417419,1363
895.533936,1373
895.650452,1361
895.766907,1389
895.883423,1376
895.999878,1397
896.116333,1359
896.232849,1372
896.349304,1354
896.465759,1382
896.582214,1398
896.698669,1367
896.815125,1394
896.931641,1373
897.048035,1418
897.164551,1381
897.280884,1384
897.397339,1389
897.513794,1409
897.630249,1421
897.746582,1425
897.863098,1406
897.979431,1326
898.095886,1371
898.212341,1415
898.328674,1394
898.445129,1381
898.561462,1364
898.677795,1421
898.794312,1347
898.910645,1368
899.026978,1431
899.143433,1346
899.259766,1383
899.37616,1400
899.492493,1387
899.608765,1403
899.725159,1422
899.841553,1355
899.957947,1426
900.07428,1371
900.190552,1407
900.306946,1365
900.423157,1423
900.53949,1386
900.655884,1370
900.772156,1393
900.888489,1359
901.004822,1434
901.121033,1419
901.237366,1430
901.353699,1403
901.46991,1471
901.586304,1389
901.702515,1427
901.818787,1417
901.93512,1436
902.051331,1410
902.167603,1451
902.283875,1501
902.400085,1454
902.516418,1453
902.632629,1487
902.74884,1511
902.865112,1524
902.981384,1501
903.097595,1524
903.213867,1493
903.330017,1468
903.446289,1446
903.5625,1472
903.67865,1440
903.794922,1439
903.911072,1455
904.027344,1465
904.143494,1461
904.259705,1434
904.375916,1487
904.492065,1433
904.608215,1470
904.724426,1400
904.840576,1414
904.956726,1417
905.072876,1413
905.189087,1436
905.305176,1394
905.421387,1445
905.537537,1433
905.653687,1397
905.769775,1408
905.885925,1408
906.002014,1387
906.118164,1396
906.234314,1372
906.350403,1412
906.466492,1366
906.582642,1405
906.69873,1422
906.814758,1425
906.930908,1423
907.046936,1379
907.163086,1410
907.279175,1441
907.395264,1404
907.511353,1381
907.62738,1366
907.743408,1388
907.859497,1411
907.975525,1410
908.091553,1372
908.207703,1429
908.32373,1371
908.439758,1425
908.555786,1363
908.671814,1417
908.787842,1380
908.90387,1449
909.019775,1416
909.135864,1378
909.251892,1438
909.367859,1411
909.483826,1426
909.599854,1383
909.715881,1415
909.831848,1416
909.947815,1392
910.063782,1410
910.179749,1409
910.295776,1429
910.411743,1389
910.527649,1411
910.643616,1431
910.759583,1395
910.875488,1394
910.991455,1414
911.107361,1406
911.223267,1408
911.339294,1399
911.4552,1401
911.571106,1370
911.687073,1415
911.802979,1424
911.918823,1402
912.034729,1394
912.150635,1464
912.266602,1385
912.382446,1431
912.498352,1383
912.614197,1401
912.730103,1382
912.846008,1368
792.44574,2748
792.56488,2591
792.68396,2550
792.80304,2556
792.92218,2455
793.041199,2428
793.160339,2415
793.279419,2349
793.398499,2352
793.517578,2274
793.636658,2301
793.755737,2310
793.874817,2227
793.993896,2178
794.112976,2187
794.232056,2178
794.351074,2117
794.470215,2140
794.589233,2110
794.708313,2080
794.827393,2133
794.946411,2036
795.065552,2067
795.18457,1978
795.303589,2014
795.422668,1969
795.541687,1927
795.660767,1996
795.779846,1980
795.898865,1921
796.017883,1905
796.136963,1909
796.255981,1857
796.375061,1921
796.49408,1908
796.613037,1913
796.732117,1873
796.851135,1851
796.970154,1889
797.089233,1781
797.208191,1808
797.327271,1852
797.446228,1839
797.565186,1779
797.684265,1854
797.803223,1783
797.922241,1783
798.04126,1811
798.160278,1740
798.279297,1786
798.398315,1791
798.517273,1764
798.636292,1699
798.75531,1775
798.874268,1725
798.993286,1774
799.112244,1783
799.231323,1751
799.350281,1748
799.469238,1780
799.588257,1729
799.707153,1728
799.826111,1763
799.945129,1731
800.064087,1733
800.183044,1697
800.302063,1764
800.421021,1715
800.539978,1736
800.658936,1736
800.777893,1715
800.896912,1703
801.015747,1713
801.134705,1731
801.253723,1700
801.37262,1654
801.491638,1647
801.610535,1703
801.729492,1703
801.84845,1678
801.967407,1709
802.086243,1701
802.205261,1745
802.324158,1682
802.443115,1718
802.562073,1639
802.680969,1650
802.799927,1650
802.918762,1685
803.037659,1663
803.156677,1639
803.275574,1644
803.39447,1671
803.513428,1663
803.632263,1668
803.751221,1616
803.870117,1642
803.989014,1646
804.107971,1642
804.226746,1650
804.345642,1656
804.4646,1696
804.583496,1639
804.702393,1630
804.821228,1651
804.940125,1621
805.059021,1682
805.177917,1644
805.296814,1649
805.415649,1653
805.534546,1661
805.653442,1617
805.772278,1655
805.891113,1686
806.01001,1655
806.128906,1675
806.247742,1627
806.366577,1648
806.485413,1640
806.604309,1614
806.723145,1633
806.84198,1633
806.960876,1588
807.079712,1644
807.198486,1655
807.317383,1633
807.436218,1623
807.554993,1605
807.673889,1650
807.792725,1623
807.91156,1632
808.030396,1660
808.14917,1631
808.268005,1600
808.386841,1646
808.505676,1680
808.624451,1618
808.743286,1563
808.862122,1635
808.980896,1631
809.099731,1657
809.218506,1578
809.337341,1677
809.456116,1648
809.57489,1627
809.693726,1606
809.8125,1635
809.931274,1626
810.050049,1649
810.168884,1604
810.287659,1637
810.406372,1624
810.525269,1625
810.643982,1623
810.762756,1646
810.881531,1571
811.000305,1621
811.11908,1612
811.237854,1614
811.356567,1582
811.475403,1664
811.594116,1605
811.71283,1607
811.831604,1647
811.950378,1607
812.069153,1634
812.187927,1622
812.30658,1635
812.425415,1608
812.544128,1626
812.662781,1603
812.781616,1628
812.900269,1651
813.019043,1620
813.137756,1634
813.256531,1663
813.375244,1611
813.493896,1625
813.612671,1600
813.731384,1605
813.850037,1600
813.96875,1590
814.087524,1605
814.206238,1618
814.324951,1639
814.443604,1592
814.562256,1592
814.68103,1603
814.799683,1621
814.918335,1569
815.037109,1623
815.155762,1610
815.274475,1602
815.393188,1605
815.511841,1632
815.630554,1587
815.749146,1543
815.867859,1552
815.986572,1559
816.105164,1572
816.223877,1549
816.342529,1584
816.461182,1610
816.579895,1531
816.698486,1548
816.817139,1600
816.935791,1565
817.054504,1593
817.173096,1574
817.291748,1583
817.4104,1620
817.529053,1541
817.647644,1566
817.766235,1525
817.884949,1562
818.00354,1516
818.122192,1543
818.240845,1502
818.359436,1575
818.478088,1498
818.59668,1531
818.715271,1484
818.833923,1467
818.952515,1479
819.071106,1443
819.189758,1463
819.30835,1452
819.426941,1455
819.545532,1485
819.664124,1418
819.782715,1475
819.901306,1419
820.019897,1459
820.138489,1469
820.25708,1421
820.375671,1373
820.494202,1467
820.612732,1435
820.731384,1456
820.849915,1390
820.968506,1434
821.087097,1433
821.205627,1427
821.324158,1430
821.442749,1418
821.561279,1427
821.679871,1395
821.798401,1403
821.916931,1404
822.035461,1441
822.154053,1442
822.272583,1411
822.391174,1436
822.509583,1414
822.628174,1421
822.746704,1439
822.865234,1407
822.983765,1404
823.102295,1367
823.220825,1378
823.339294,1396
823.457825,1406
823.576355,1423
823.694824,1393
823.813354,1411
823.931885,1392
824.050354,1411
824.168884,1399
824.287354,1420
824.405823,1418
824.524353,1406
824.642822,1438
824.761353,1366
824.879822,1410
824.998291,1394
825.116699,1411
825.235291,1397
825.353699,1441
825.472168,1388
825.590637,1374
825.709106,1388
825.827576,1382
825.946045,1415
826.064453,1382
826.182983,1397
826.301392,1397
826.4198,1357
826.53833,1383
826.656738,1362
826.775208,1402
826.893677,1376
827.012024,1327
827.130493,1396
827.248962,1374
827.36731,1350
827.485779,1394
827.604248,1343
827.722595,1343
827.841064,1359
827.959412,1350
828.077942,1311
828.196289,1348
828.314636,1358
828.433105,1383
828.551514,1326
828.669861,1370
828.78833,1372
828.906677,1368
829.025085,1335
829.143433,1344
829.261841,1377
829.38031,1356
829.498657,1343
829.617004,1370
829.735413,1385
829.85376,1365
829.972107,1309
830.090515,1388
830.208862,1327
830.327209,1312
830.445557,1327
830.563904,1336
830.682312,1370
830.800659,1335
830.919006,1380
831.037354,1363
831.155701,1360
831.274048,1382
831.392395,1363
831.51062,1379
831.629028,1361
831.747314,1385
831.865662,1401
831.984009,1363
832.102356,1367
832.220642,1388
832.338928,1385
832.457275,1370
832.575623,1402
832.693909,1363
832.812134,1411
832.930481,1356
833.048828,1355
833.167114,1373
833.2854,1345
833.403687,1354
833.521973,1403
833.640259,1320
833.758545,1374
833.876831,1314
833.995056,1392
834.113281,1367
834.231628,1391
834.349915,1385
834.468201,1401
834.586426,1360
834.704651,1357
834.822998,1374
834.941162,1358
835.059448,1359
835.177673,1330
835.295959,1311
835.414246,1400
835.53241,1351
835.650635,1347
835.768921,1364
835.887146,1391
836.005371,1351
836.123596,1341
836.241821,1362
836.360046,1343
836.478271,1390
836.596497,1352
836.714722,1383
836.832886,1345
836.95105,1375
837.069336,1373
837.1875,1350
837.305725,1371
837.423889,1334
837.542053,1374
837.660339,1356
837.778503,1396
837.896667,1345
838.014832,1371
838.132996,1353
838.25116,1357
838.369385,1358
838.487488,1406
838.605713,1393
838.723877,1384
838.84198,1394
838.960205,1373
839.078308,1414
839.196472,1363
839.314636,1374
839.4328,1371
839.550964,1383
839.669067,1394
839.787231,1343
839.905396,1369
840.023499,1416
840.141602,1392
840.259766,1410
840.377869,1385
840.495972,1392
840.614136,1408
840.732239,1373
840.850342,1369
840.968445,1374
841.086548,1400
841.204651,1375
841.322754,1404
841.440918,1420
841.55896,1378
841.677002,1406
841.795166,1391
841.913208,1451
842.031311,1405
842.149353,1417
842.267456,1354
842.385498,1402
842.503601,1387
842.621643,1414
842.739746,1371
842.857788,1370
842.97583,1353
843.093933,1378
843.211975,1431
843.330017,1355
843.44812,1403
843.566101,1377
843.684204,1375
843.802246,1407
843.920227,1396
844.038269,1434
844.156311,1434
844.274292,1439
844.392395,1423
844.510376,1396
844.628357,1395
844.74646,1397
844.864441,1371
844.982422,1332
845.100403,1407
845.218384,1377
845.336426,1330
845.454468,1409
845.572449,1377
845.69043,1397
845.808411,1377
845.926453,1352
846.044373,1371
846.162354,1392
846.280396,1373
846.398315,1338
846.516296,1348
846.634216,1385
846.752197,1359
846.870178,1350
846.988098,1374
847.106079,1402
847.22406,1370
847.34198,1383
847.4599,1360
847.577881,1343
847.695801,1375
847.813782,1359
847.931641,1391
848.049561,1339
848.167603,1358
848.285461,1406
848.403381,1345
848.521362,1416
848.639221,1380
848.75708,1378
848.875,1380
848.99292,1404
849.110901,1389
849.22876,1403
849.34668,1408
849.464539,1398
849.582458,1396
849.700317,1379
849.818176,1386
849.936096,1385
850.053955,1353
850.171875,1370
850.289673,1363
850.407593,1387
850.525452,1369
850.643311,1401
850.761169,1395
850.878967,1359
850.996887,1401
851.114746,1391
851.232544,1405
851.350403,1432
851.468262,1346
851.58606,1377
851.703979,1406
851.821777,1393
851.939636,1391
852.057434,1387
852.175232,1357
852.293091,1412
852.410889,1418
852.528687,1433
852.646545,1433
852.764343,1399
852.88208,1455
852.999939,1431
853.117676,1458
853.235535,1426
853.353271,1405
853.471069,1360
853.588928,1418
853.706604,1418
853.824402,1383
853.9422,1414
854.059998,1357
854.177734,1410
854.295532,1419
854.413269,1374
854.531006,1380
854.648804,1393
854.766541,1392
854.884277,1379
855.002014,1419
855.119751,1411
855.237549,1344
855.355225,1418
855.473022,1408
855.590698,1352
855.708435,1421
855.826172,1349
855.943848,1415
856.061646,1391
856.179321,1370
856.296997,1406
856.414795,1366
856.53241,1417
856.650085,1429
856.767822,1396
856.885559,1449
857.003174,1454
857.120911,1379
857.238586,1441
857.356201,1453
857.473938,1417
857.591614,1375
857.709351,1424
857.826965,1400
857.944641,1429
858.062317,1418
858.179993,1432
858.297668,1391
858.415283,1433
858.532959,1484
858.650574,1408
858.768188,1379
858.885803,1418
859.003479,1438
859.121094,1427
859.23877,1414
859.356384,1389
859.473999,1425
859.591675,1405
859.709229,1388
859.826843,1416
859.944458,1373
860.062012,1351
860.179626,1413
860.297302,1409
860.414856,1376
860.532471,1398
860.650024,1391
860.767639,1381
860.885193,1391
861.002808,1362
861.120361,1388
861.237976,1352
861.35553,1410
861.473022,1331
861.590698,1417
861.708191,1389
861.825745,1399
861.943298,1392
862.060852,1390
862.178406,1368
862.295959,1423
862.413513,1333
862.531006,1383
862.64856,1363
862.766113,1310
862.883667,1326
863.00116,1369
863.118713,1368
863.236206,1372
863.353699,1328
863.471252,1334
863.588745,1389
863.706177,1388
863.82373,1388
863.941162,1355
864.058716,1360
864.176208,1379
864.29364,1424
864.411194,1382
864.528687,1368
864.646118,1347
864.763611,1393
864.881042,1388
864.998535,1377
865.116028,1366
865.233459,1389
865.350891,1410
865.468384,1390
865.585754,1343
865.703308,1357
865.820679,1405
865.938171,1358
866.055542,1395
866.173035,1364
866.290466,1353
866.407837,1369
866.52533,1400
866.6427,1362
866.760071,1392
866.877563,1383
866.994934,1409
867.112305,1398
867.229736,1379
867.347107,1356
867.464539,1420
867.58197,1348
867.699341,1415
867.81665,1392
867.934082,1351
868.051453,1365
868.168823,1369
868.286194,1381
868.403564,1390
868.520935,1396
868.638306,1343
868.755676,1429
868.872986,1402
868.990295,1384
869.107727,1394
869.225037,1396
869.342346,1421
869.459717,1416
869.577026,1445
869.694336,1427
869.811707,1397
869.929016,1464
870.046326,1437
870.163635,1400
870.280945,1419
870.398254,1424
870.515564,1435
870.632812,1422
870.750183,1448
870.867432,1439
870.984741,1437
871.102051,1459
871.219299,1489
871.336609,1453
871.453918,1487
871.571106,1458
871.688416,1470
871.805664,1460
871.922852,1469
872.040222,1452
872.157471,1447
872.274719,1486
872.391968,1454
872.509155,1410
872.626465,1513
872.743652,1433
872.860962,1445
872.978149,1442
873.095337,1484
873.212646,1429
873.329834,1463
873.44696,1399
873.564209,1425
873.681396,1452
873.798645,1414
873.915894,1462
874.03302,1433
874.150208,1487
874.267456,1467
874.384583,1425
874.501831,1434
874.618958,1460
874.736145,1451
874.853333,1431
874.970459,1502
875.087646,1457
875.204834,1430
875.32196,1443
875.439148,1456
875.556274,1435
875.673401,1455
875.790527,1446
875.907715,1452
876.024841,1415
876.141968,1438
876.259094,1421
876.376282,1470
876.493347,1400
876.610474,1418
876.7276,1446
876.844727,1481
876.961853,1395
877.078918,1447
877.195984,1419
877.313171,1422
877.430237,1408
877.547302,1411
877.664368,1447
877.781433,1443
877.898499,1405
878.015625,1422
878.13269,1413
878.249695,1443
878.366821,1411
878.483887,1387
878.600952,1405
878.717957,1470
878.834961,1410
878.952087,1435
879.069092,1404
879.186157,1365
879.303162,1421
879.420227,1422
879.537231,1428
879.654236,1403
879.77124,1397
879.888306,1363
880.005249,1419
880.122314,1405
880.239319,1373
880.356323,1422
880.473328,1390
880.590271,1432
880.707275,1370
880.824341,1430
880.941284,1367
881.058228,1435
881.175232,1445
881.292236,1369
881.40918,1433
881.526123,1409
881.643066,1369
881.760071,1394
881.877014,1426
881.993958,1371
882.11084,1422
882.227783,1392
882.344727,1416
882.46167,1383
882.578613,1384
882.695618,1416
882.812439,1378
882.929382,1409
883.046326,1421
883.163208,1394
883.280151,1373
883.397034,1404
883.513916,1400
883.630798,1395
883.747742,1372
883.864563,1403
883.981506,1408
884.098389,1357
884.21521,1453
884.332153,1441
884.448975,1387
884.565796,1484
884.682678,1422
884.7995,1492
884.916443,1515
885.033264,1497
885.150085,1557
885.266968,1563
885.383789,1531
885.500671,1563
885.617493,1552
885.734314,1577
885.851196,1592
885.967896,1602
886.084717,1557
886.201599,1588
886.318359,1523
886.435181,1527
886.552002,1558
886.668762,1548
886.785645,1496
886.902344,1569
887.019165,1503
887.135925,1512
887.252747,1466
887.369446,1473
887.486267,1464
887.603027,1467
887.719788,1439
887.836548,1490
887.953247,1430
888.070068,1453
888.186829,1408
888.303528,1434
888.420288,1414
888.536987,1433
888.653687,1398
888.770447,1415
888.887146,1423
889.003967,1409
889.120667,1347
889.237305,1402
889.354065,1401
889.470703,1431
889.587463,1366
889.704163,1440
889.820862,1380
889.937561,1405
890.054199,1384
890.170837,1421
890.287598,1383
890.404236,1387
890.520874,1405
890.637634,1452
890.754211,1378
890.87085,1410
890.987549,1393
891.104187,1424
891.220886,1419
891.337463,1404
891.454102,1412
891.57074,1407
891.687378,1426
891.804077,1424
891.920654,1395
892.037231,1396
892.15387,1407
892.270447,1399
892.387085,1393
892.503723,1421
892.6203,1412
892.736877,1390
892.853516,1429
892.970032,1368
893.08667,1387
893.203186,1395
893.319763,1396
893.43634,1405
893.552917,1414
893.669556,1387
893.786011,1395
893.902588,1462
894.019165,1365
894.135681,1430
894.252197,1431
894.368835,1425
894.485291,1423
894.601868,1449
894.718384,1441
894.8349,1375
894.951355,1379
895.067932,1372
895.184448,1406
895.300964,1412
895.417419,1421
895.533936,1403
895.650452,1435
895.766907,1400
895.883423,1397
895.999878,1412
896.116333,1379
896.232849,1402
896.349304,1380
896.465759,1413
896.582214,1369
896.698669,1449
896.815125,1400
896.931641,1407
897.048035,1429
897.164551,1429
897.280884,1402
897.397339,1409
897.513794,1422
897.630249,1407
897.746582,1423
897.863098,1438
897.979431,1394
898.095886,1449
898.212341,1393
898.328674,1438
898.445129,1377
898.561462,1401
898.677795,1422
898.794312,1453
898.910645,1420
899.026978,1397
899.143433,1466
899.259766,1416
899.37616,1432
899.492493,1434
899.608765,1444
899.725159,1392
899.841553,1405
899.957947,1423
900.07428,1483
900.190552,1403
900.306946,1455
900.423157,1421
900.53949,1419
900.655884,1444
900.772156,1421
900.888489,1423
901.004822,1423
901.121033,1407
901.237366,1434
901.353699,1408
901.46991,1438
901.586304,1413
901.702515,1415
901.818787,1469
901.93512,1444
902.051331,1471
902.167603,1479
902.283875,1488
902.400085,1511
902.516418,1508
902.632629,1493
902.74884,1528
902.865112,1498
902.981384,1558
903.097595,1553
903.213867,1521
903.330017,1523
903.446289,1527
903.5625,1519
903.67865,1502
903.794922,1544
903.911072,1464
904.027344,1478
904.143494,1528
904.259705,1478
904.375916,1484
904.492065,1477
904.608215,1410
904.724426,1441
904.840576,1486
904.956726,1451
905.072876,1487
905.189087,1439
905.305176,1436
905.421387,1482
905.537537,1440
905.653687,1467
905.769775,1491
905.885925,1441
906.002014,1423
906.118164,1452
906.234314,1453
906.350403,1459
906.466492,1422
906.582642,1435
906.69873,1422
906.814758,1422
906.930908,1407
907.046936,1442
907.163086,1431
907.279175,1458
907.395264,1454
907.511353,1407
907.62738,1433
907.743408,1411
907.859497,1455
907.975525,1430
908.091553,1472
908.207703,1449
908.32373,1430
908.439758,1483
908.555786,1406
908.671814,1433
908.787842,1432
908.90387,1476
909.019775,1412
909.135864,1452
909.251892,1437
909.367859,1419
909.483826,1468
909.599854,1432
909.715881,1450
909.831848,1413
909.947815,1477
910.063782,1458
910.179749,1401
910.295776,1482
910.411743,1453
910.527649,1423
910.643616,1456
910.759583,1435
910.875488,1463
910.991455,1409
911.107361,1443
911.223267,1428
911.339294,1435
911.4552,1455
911.571106,1442
911.687073,1480
911.802979,1457
911.918823,1452
912.034729,1466
912.150635,1470
912.266602,1420
912.382446,1463
912.498352,1487
912.614197,1464
912.730103,1446
912.846008,1439
792.44574,2615
792.56488,2613
792.68396,2513
792.80304,2512
792.92218,2469
793.041199,2436
793.160339,2359
793.279419,2372
793.398499,2347
793.517578,2314
793.636658,2260
793.755737,2266
793.874817,2241
793.993896,2211
794.112976,2157
794.232056,2182
794.351074,2149
794.470215,2120
794.589233,2095
794.708313,2085
794.827393,2090
794.946411,2020
795.065552,2007
795.18457,2022
795.303589,2061
795.422668,2027
795.541687,1990
795.660767,1975
795.779846,1997
795.898865,1927
796.017883,1951
796.136963,1929
796.255981,1914
796.375061,1917
796.49408,1940
796.613037,1896
796.732117,1897
796.851135,1887
796.970154,1835
797.089233,1828
797.208191,1860
797.327271,1823
797.446228,1804
797.565186,1829
797.684265,1802
797.803223,1834
797.922241,1750
798.04126,1751
798.160278,1778
798.279297,1780
798.398315,1757
798.517273,1782
798.636292,1755
798.75531,1769
798.874268,1756
798.993286,1738
799.112244,1748
799.231323,1735
799.350281,1776
799.469238,1792
799.588257,1776
799.707153,1801
799.826111,1765
799.945129,1747
800.064087,1735
800.183044,1773
800.302063,1700
800.421021,1730
800.539978,1734
800.658936,1778
800.777893,1691
800.896912,1742
801.015747,1738
801.134705,1693
801.253723,1716
801.37262,1732
801.491638,1698
801.610535,1739
801.729492,1702
801.84845,1689
801.967407,1679
802.086243,1720
802.205261,1669
802.324158,1670
802.443115,1713
802.562073,1669
802.680969,1736
802.799927,1678
802.918762,1671
803.037659,1693
803.156677,1662
803.275574,1694
803.39447,1678
803.513428,1668
803.632263,1701
803.751221,1674
803.870117,1683
803.989014,1675
804.107971,1650
804.226746,1629
804.345642,1655
804.4646,1704
804.583496,1686
804.702393,1667
804.821228,1646
804.940125,1673
805.059021,1671
805.177917,1688
805.296814,1626
805.415649,1683
805.534546,1637
805.653442,1640
805.772278,1684
805.891113,1642
806.01001,1679
806.128906,1654
806.247742,1663
806.366577,1641
806.485413,1713
806.604309,1666
806.723145,1623
806.84198,1663
806.960876,1668
807.079712,1639
807.198486,1661
807.317383,1652
807.436218,1604
807.554993,1654
807.673889,1681
807.792725,1617
807.91156,1648
808.030396,1637
808.14917,1644
808.268005,1592
808.386841,1688
808.505676,1665
808.624451,1622
808.743286,1626
808.862122,1643
808.980896,1603
809.099731,1648
809.218506,1618
809.337341,1645
809.456116,1627
809.57489,1653
809.693726,1650
809.8125,1661
809.931274,1661
810.050049,1647
810.168884,1670
810.287659,1657
810.406372,1620
810.525269,1652
810.643982,1634
810.762756,1605
810.881531,1693
811.000305,1627
811.11908,1622
811.237854,1605
811.356567,1594
811.475403,1655
811.594116,1624
811.71283,1616
811.831604,1643
811.950378,1650
812.069153,1689
812.187927,1634
812.30658,1614
812.425415,1616
812.544128,1638
812.662781,1626
812.781616,1631
812.900269,1650
813.019043,1634
813.137756,1674
813.256531,1657
813.375244,1626
813.493896,1639
813.612671,1622
813.731384,1599
813.850037,1605
813.96875,1600
814.087524,1617
814.206238,1582
814.324951,1632
814.443604,1626
814.562256,1573
814.68103,1524
814.799683,1609
814.918335,1651
815.037109,1609
815.155762,1591
815.274475,1626
815.393188,1583
815.511841,1580
815.630554,1620
815.749146,1596
815.867859,1605
815.986572,1607
816.105164,1584
816.223877,1612
816.342529,1587
816.461182,1574
816.579895,1585
816.698486,1586
816.817139,1583
816.935791,1610
817.054504,1595
817.173096,1575
817.291748,1614
817.4104,1598
817.529053,1560
817.647644,1514
817.766235,1582
817.884949,1470
818.00354,1585
818.122192,1527
818.240845,1549
818.359436,1528
818.478088,1500
818.59668,1511
818.715271,1519
818.833923,1478
818.952515,1511
819.071106,1465
819.189758,1478
819.30835,1457
819.426941,1504
819.545532,1470
819.664124,1501
819.782715,1450
819.901306,1478
820.019897,1450
820.138489,1420
820.25708,1464
820.375671,1405
820.494202,1451
820.612732,1456
820.731384,1452
820.849915,1474
820.968506,1418
821.087097,1422
821.205627,1429
821.324158,1442
821.442749,1418
821.561279,1433
821.679871,1418
821.798401,1434
821.916931,1437
822.035461,1426
822.154053,1404
822.272583,1410
822.391174,1427
822.509583,1427
822.628174,1458
822.746704,1438
822.865234,1374
822.983765,1408
823.102295,1452
823.220825,1384
823.339294,1417
823.457825,1406
823.576355,1461
823.694824,1384
823.813354,1448
823.931885,1433
824.050354,1410
824.168884,1427
824.287354,1438
824.405823,1413
824.524353,1436
824.642822,1380
824.761353,1445
824.879822,1457
824.998291,1403
825.116699,1432
825.235291,1416
825.353699,1422
825.472168,1389
825.590637,1411
825.709106,1384
825.827576,1439
825.946045,1386
826.064453,1377
826.182983,1374
826.301392,1374
826.4198,1392
826.53833,1391
826.656738,1411
826.775208,1393
826.893677,1401
827.012024,1372
827.130493,1410
827.248962,1334
827.36731,1364
827.485779,1425
827.604248,1430
827.722595,1421
827.841064,1388
827.959412,1360
828.077942,1345
828.196289,1394
828.314636,1405
828.433105,1387
828.551514,1394
828.669861,1376
828.78833,1373
828.906677,1391
829.025085,1353
829.143433,1373
829.261841,1358
829.38031,1373
829.498657,1372
829.617004,1317
829.735413,1359
829.85376,1358
829.972107,1380
830.090515,1344
830.208862,1334
830.327209,1343
830.445557,1377
830.563904,1320
830.682312,1386
830.800659,1348
830.919006,1370
831.037354,1366
831.155701,1389
831.274048,1396
831.392395,1369
831.51062,1351
831.629028,1320
831.747314,1397
831.865662,1332
831.984009,1351
832.102356,1398
832.220642,1417
832.338928,1411
832.457275,1399
832.575623,1360
832.693909,1364
832.812134,1353
832.930481,1375
833.048828,1386
833.167114,1387
833.2854,1376
833.403687,1374
833.521973,1387
833.640259,1343
833.758545,1351
833.876831,1385
833.995056,1383
834.113281,1360
834.231628,1425
834.349915,1364
834.468201,1375
834.586426,1398
834.704651,1359
834.822998,1335
834.941162,1412
835.059448,1405
835.177673,1396
835.295959,1351
835.414246,1375
835.53241,1403
835.650635,1345
835.768921,1377
835.887146,1379
836.005371,1354
836.123596,1389
836.241821,1347
836.360046,1356
836.478271,1397
836.596497,1423
836.714722,1382
836.832886,1383
836.95105,1322
837.069336,1347
837.1875,1366
837.305725,1315
837.423889,1359
837.542053,1410
837.660339,1388
837.778503,1412
837.896667,1355
838.014832,1340
838.132996,1394
838.25116,1362
838.369385,1382
838.487488,1391
838.605713,1342
838.723877,1384
838.84198,1371
838.960205,1395
839.078308,1399
839.196472,1352
839.314636,1363
839.4328,1365
839.550964,1384
839.669067,1396
839.787231,1407
839.905396,1403
840.023499,1395
840.141602,1425
840.259766,1417
840.377869,1410
840.495972,1441
840.614136,1414
840.732239,1396
840.850342,1398
840.968445,1370
841.086548,1423
841.204651,1394
841.322754,1454
841.440918,1444
841.55896,1460
841.677002,1402
841.795166,1402
841.913208,1392
842.031311,1429
842.149353,1381
842.267456,1429
842.385498,1403
842.503601,1370
842.621643,1377
842.739746,1387
842.857788,1416
842.97583,1418
843.093933,1411
843.211975,1414
843.330017,1411
843.44812,1428
843.566101,1421
843.684204,1442
843.802246,1423
843.920227,1406
844.038269,1441
844.156311,1403
844.274292,1379
844.392395,1432
844.510376,1356
844.628357,1379
844.74646,1392
844.864441,1422
844.982422,1394
845.100403,1358
845.218384,1423
845.336426,1418
845.454468,1418
845.572449,1416
845.69043,1377
845.808411,1399
845.926453,1402
846.044373,1354
846.162354,1366
846.280396,1402
846.398315,1395
846.516296,1428
846.634216,1385
846.752197,1376
846.870178,1429
846.988098,1394
847.106079,1375
847.22406,1428
847.34198,1427
847.4599,1367
847.577881,1424
847.695801,1353
847.813782,1382
847.931641,1353
848.049561,1359
848.167603,1392
848.285461,1368
848.403381,1392
848.521362,1373
848.639221,1433
848.75708,1402
848.875,1415
848.99292,1403
849.110901,1411
849.22876,1370
849.34668,1409
849.464539,1401
849.582458,1405
849.700317,1391
849.818176,1415
849.936096,1387
850.053955,1376
850.171875,1407
850.289673,1421
850.407593,1387
850.525452,1375
850.643311,1434
850.761169,1397
850.878967,1379
850.996887,1374
851.114746,1387
851.232544,1432
851.350403,1413
851.468262,1414
851.58606,1373
851.703979,1378
851.821777,1422
851.939636,1388
852.057434,1425
852.175232,1408
852.293091,1390
852.410889,1449
852.528687,1384
852.646545,1498
852.764343,1455
852.88208,1443
852.999939,1414
853.117676,1413
853.235535,1416
853.353271,1452
853.471069,1419
853.588928,1395
853.706604,1417
853.824402,1415
853.9422,1409
854.059998,1419
854.177734,1406
854.295532,1391
854.413269,1409
854.531006,1417
854.648804,1408
854.766541,1380
854.884277,1401
855.002014,1414
855.119751,1430
855.237549,1418
855.355225,1389
855.473022,1409
855.590698,1397
855.708435,1385
855.826172,1355
855.943848,1399
856.061646,1420
856.179321,1410
856.296997,1409
856.414795,1413
856.53241,1431
856.650085,1406
856.767822,1469
856.885559,1394
857.003174,1424
857.120911,1417
857.238586,1447
857.356201,1454
857.473938,1409
857.591614,1440
857.709351,1384
857.826965,1437
857.944641,1384
858.062317,1403
858.179993,1427
858.297668,1410
858.415283,1414
858.532959,1407
858.650574,1458
858.768188,1450
858.885803,1435
859.003479,1466
859.121094,1408
859.23877,1444
859.356384,1378
859.473999,1402
859.591675,1383
859.709229,1445
859.826843,1413
859.944458,1453
860.062012,1403
860.179626,1410
860.297302,1358
860.414856,1389
860.532471,1383
860.650024,1410
860.767639,1379
860.885193,1388
861.002808,1373
861.120361,1420
861.237976,1405
861.35553,1447
861.473022,1435
861.590698,1382
861.708191,1407
861.825745,1418
861.943298,1406
862.060852,1399
862.178406,1399
862.295959,1368
862.413513,1369
862.531006,1365
862.64856,1401
862.766113,1397
862.883667,1364
863.00116,1413
863.118713,1421
863.236206,1365
863.353699,1393
863.471252,1360
863.588745,1402
863.706177,1405
863.82373,1375
863.941162,1419
864.058716,1433
864.176208,1394
864.29364,1361
864.411194,1417
864.528687,1376
864.646118,1427
864.763611,1378
864.881042,1395
864.998535,1365
865.116028,1408
865.233459,1372
865.350891,1386
865.468384,1418
865.585754,1404
865.703308,1425
865.820679,1355
865.938171,1367
866.055542,1394
866.173035,1367
866.290466,1361
866.407837,1374
866.52533,1409
866.6427,1425
866.760071,1399
866.877563,1380
866.994934,1456
867.112305,1382
867.229736,1422
867.347107,1382
867.464539,1382
867.58197,1337
867.699341,1367
867.81665,1382
867.934082,1423
868.051453,1440
868.168823,1375
868.286194,1416
868.403564,1422
868.520935,1387
868.638306,1351
868.755676,1396
868.872986,1425
868.990295,1406
869.107727,1439
869.225037,1360
869.342346,1410
869.459717,1439
869.577026,1409
869.694336,1427
869.811707,1436
869.929016,1450
870.046326,1410
870.163635,1457
870.280945,1423
870.398254,1404
870.515564,1445
870.632812,1376
870.750183,1441
870.867432,1451
870.984741,1450
871.102051,1434
871.219299,1444
871.336609,1466
871.453918,1479
871.571106,1481
871.688416,1476
871.805664,1475
871.922852,1472
872.040222,1453
872.157471,1455
872.274719,1473
872.391968,1459
872.509155,1502
872.626465,1449
872.743652,1494
872.860962,1459
872.978149,1480
873.095337,1423
873.212646,1475
873.329834,1439
873.44696,1477
873.564209,1442
873.681396,1451
873.798645,1424
873.915894,1461
874.03302,1442
874.150208,1499
874.267456,1474
874.384583,1494
874.501831,1488
874.618958,1485
874.736145,1497
874.853333,1495
874.970459,1482
875.087646,1491
875.204834,1500
875.32196,1442
875.439148,1494
875.556274,1424
875.673401,1457
875.790527,1425
875.907715,1464
876.024841,1443
876.141968,1458
876.259094,1465
876.376282,1425
876.493347,1403
876.610474,1422
876.7276,1372
876.844727,1461
876.961853,1434
877.078918,1396
877.195984,1433
877.313171,1443
877.430237,1428
877.547302,1473
877.664368,1447
877.781433,1460
877.898499,1443
878.015625,1402
878.13269,1413
878.249695,1443
878.366821,1408
878.483887,1413
878.600952,1453
878.717957,1402
878.834961,1411
878.952087,1424
879.069092,1405
879.186157,1384
879.303162,1406
879.420227,1462
879.537231,1370
879.654236,1442
879.77124,1375
879.888306,1430
880.005249,1381
880.122314,1398
880.239319,1370
880.356323,1404
880.473328,1414
880.590271,1370
880.707275,1408
880.824341,1414
880.941284,1379
881.058228,1423
881.175232,1372
881.292236,1432
881.40918,1390
881.526123,1420
881.643066,1412
881.760071,1430
881.877014,1433
881.993958,1379
882.11084,1380
882.227783,1432
882.344727,1406
882.46167,1389
882.578613,1387
882.695618,1423
882.812439,1411
882.929382,1379
883.046326,1418
883.163208,1398
883.280151,1407
883.397034,1384
883.513916,1450
883.630798,1406
883.747742,1445
883.864563,1465
883.981506,1400
884.098389,1415
884.21521,1434
884.332153,1439
884.448975,1445
884.565796,1474
884.682678,1453
884.7995,1538
884.916443,1525
885.033264,1520
885.150085,1545
885.266968,1622
885.383789,1576
885.500671,1611
885.617493,1643
885.734314,1568
885.851196,1573
885.967896,1635
886.084717,1589
886.201599,1585
886.318359,1581
886.435181,1599
886.552002,1573
886.668762,1588
886.785645,1561
886.902344,1573
887.019165,1515
887.135925,1525
887.252747,1498
887.369446,1514
887.486267,1478
887.603027,1497
887.719788,1464
887.836548,1486
887.953247,1469
888.070068,1461
888.186829,1448
888.303528,1480
888.420288,1412
888.536987,1393
888.653687,1413
888.770447,1422
888.887146,1460
889.003967,1402
889.120667,1433
889.237305,1372
889.354065,1410
889.470703,1458
889.587463,1401
889.704163,1421
889.820862,1348
889.937561,1410
890.054199,1357
890.170837,1451
890.287598,1400
890.404236,1420
890.520874,1419
890.637634,1420
890.754211,1377
890.87085,1407
890.987549,1402
891.104187,1405
891.220886,1418
891.337463,1406
891.454102,1446
891.57074,1406
891.687378,1451
891.804077,1434
891.920654,1401
892.037231,1433
892.15387,1390
892.270447,1423
892.387085,1403
892.503723,1412
892.6203,1455
892.736877,1384
892.853516,1441
892.970032,1426
893.08667,1419
893.203186,1437
893.319763,1383
893.43634,1399
893.552917,1401
893.669556,1458
893.786011,1384
893.902588,1421
894.019165,1414
894.135681,1408
894.252197,1439
894.368835,1419
894.485291,1460
894.601868,1429
894.718384,1425
894.8349,1427
894.951355,1417
895.067932,1430
895.184448,1450
895.300964,1418
895.417419,1458
895.533936,1413
895.650452,1442
895.766907,1452
895.883423,1426
895.999878,1399
896.116333,1415
896.232849,1445
896.349304,1387
896.465759,1431
896.582214,1438
896.698669,1379
896.815125,1424
896.931641,1425
897.048035,1452
897.164551,1434
897.280884,1430
897.397339,1427
897.513794,1423
897.630249,1395
897.746582,1416
897.863098,1446
897.979431,1447
898.095886,1438
898.212341,1424
898.328674,1440
898.445129,1474
898.561462,1417
898.677795,1452
898.794312,1424
898.910645,1428
899.026978,1403
899.143433,1441
899.259766,1437
899.37616,1440
899.492493,1454
899.608765,1439
899.725159,1438
899.841553,1458
899.957947,1447
900.07428,1459
900.190552,1422
900.306946,1451
900.423157,1431
900.53949,1436
900.655884,1468
900.772156,1434
900.888489,1411
901.004822,1426
901.121033,1441
901.237366,1453
901.353699,1445
901.46991,1500
901.586304,1435
901.702515,1490
901.818787,1462
901.93512,1475
902.051331,1510
902.167603,1486
902.283875,1511
902.400085,1523
902.516418,1509
902.632629,1520
902.74884,1511
902.865112,1512
902.981384,1534
903.097595,1548
903.213867,1494
903.330017,1510
903.446289,1562
903.5625,1548
903.67865,1521
903.794922,1559
903.911072,1498
904.027344,1509
904.143494,1524
904.259705,1473
904.375916,1487
904.492065,1467
904.608215,1475
904.724426,1490
904.840576,1483
904.956726,1469
905.072876,1479
905.189087,1463
905.305176,1480
905.421387,1455
905.537537,1481
905.653687,1451
905.769775,1480
905.885925,1509
906.002014,1445
906.118164,1429
906.234314,1463
906.350403,1469
906.466492,1467
906.582642,1450
906.69873,1432
906.814758,1449
906.930908,1462
907.046936,1468
907.163086,1430
907.279175,1448
907.395264,1498
907.511353,1472
907.62738,1442
907.743408,1397
907.859497,1437
907.975525,1446
908.091553,1469
908.207703,1443
908.32373,1466
908.439758,1490
908.555786,1457
908.671814,1510
908.787842,1439
908.90387,1435
909.019775,1461
909.135864,1433
909.251892,1497
909.367859,1479
909.483826,1421
909.599854,1490
909.715881,1487
909.831848,1498
909.947815,1450
910.063782,1446
910.179749,1441
910.295776,1445
910.411743,1486
910.527649,1468
910.643616,1434
910.759583,1467
910.875488,1430
910.991455,1480
911.107361,1433
911.223267,1434
911.339294,1449
911.4552,1428
911.571106,1463
911.687073,1507
911.802979,1460
911.918823,1442
912.034729,1481
912.150635,1472
912.266602,1427
912.382446,1471
912.498352,1447
912.614197,1480
912.730103,1419
912.846008,1451
