792.44574,1664
792.56488,1684
792.68396,1708
792.80304,1639
792.92218,1582
793.041199,1591
793.160339,1610
793.279419,1573
793.398499,1535
793.517578,1578
793.636658,1516
793.755737,1600
793.874817,1586
793.993896,1552
794.112976,1570
794.232056,1539
794.351074,1559
794.470215,1553
794.589233,1512
794.708313,1508
794.827393,1513
794.946411,1526
795.065552,1488
795.18457,1549
795.303589,1518
795.422668,1570
795.541687,1506
795.660767,1558
795.779846,1494
795.898865,1472
796.017883,1503
796.136963,1479
796.255981,1468
796.375061,1477
796.49408,1509
796.613037,1510
796.732117,1463
796.851135,1493
796.970154,1500
797.089233,1462
797.208191,1469
797.327271,1488
797.446228,1465
797.565186,1481
797.684265,1513
797.803223,1450
797.922241,1454
798.04126,1479
798.160278,1450
798.279297,1485
798.398315,1443
798.517273,1457
798.636292,1500
798.75531,1423
798.874268,1467
798.993286,1473
799.112244,1495
799.231323,1485
799.350281,1488
799.469238,1445
799.588257,1506
799.707153,1485
799.826111,1450
799.945129,1456
800.064087,1481
800.183044,1441
800.302063,1469
800.421021,1498
800.539978,1453
800.658936,1460
800.777893,1418
800.896912,1482
801.015747,1484
801.134705,1419
801.253723,1475
801.37262,1413
801.491638,1458
801.610535,1460
801.729492,1448
801.84845,1447
801.967407,1455
802.086243,1414
802.205261,1400
802.324158,1445
802.443115,1483
802.562073,1451
802.680969,1431
802.799927,1454
802.918762,1438
803.037659,1467
803.156677,1487
803.275574,1440
803.39447,1448
803.513428,1438
803.632263,1447
803.751221,1423
803.870117,1466
803.989014,1440
804.107971,1462
804.226746,1443
804.345642,1450
804.4646,1401
804.583496,1443
804.702393,1417
804.821228,1430
804.940125,1483
805.059021,1429
805.177917,1434
805.296814,1464
805.415649,1449
805.534546,1451
805.653442,1426
805.772278,1441
805.891113,1429
806.01001,1439
806.128906,1439
806.247742,1412
806.366577,1421
806.485413,1487
806.604309,1438
806.723145,1415
806.84198,1500
806.960876,1477
807.079712,1442
807.198486,1419
807.317383,1446
807.436218,1414
807.554993,1470
807.673889,1467
807.792725,1454
807.91156,1443
808.030396,1466
808.14917,1384
808.268005,1408
808.386841,1441
808.505676,1454
808.624451,1438
808.743286,1415
808.862122,1444
808.980896,1443
809.099731,1429
809.218506,1423
809.337341,1388
809.456116,1479
809.57489,1472
809.693726,1440
809.8125,1396
809.931274,1447
810.050049,1461
810.168884,1426
810.287659,1454
810.406372,1423
810.525269,1452
810.643982,1444
810.762756,1406
810.881531,1402
811.000305,1423
811.11908,1392
811.237854,1407
811.356567,1411
811.475403,1449
811.594116,1420
811.71283,1405
811.831604,1443
811.950378,1408
812.069153,1505
812.187927,1407
812.30658,1415
812.425415,1451
812.544128,1397
812.662781,1404
812.781616,1412
812.900269,1398
813.019043,1428
813.137756,1437
813.256531,1429
813.375244,1393
813.493896,1389
813.612671,1439
813.731384,1415
813.850037,1404
813.96875,1388
814.087524,1422
814.206238,1386
814.324951,1394
814.443604,1408
814.562256,1399
814.68103,1444
814.799683,1397
814.918335,1442
815.037109,1407
815.155762,1393
815.274475,1445
815.393188,1392
815.511841,1417
815.630554,1381
815.749146,1381
815.867859,1435
815.986572,1383
816.105164,1428
816.223877,1339
816.342529,1451
816.461182,1373
816.579895,1385
816.698486,1428
816.817139,1374
816.935791,1385
817.054504,1398
817.173096,1392
817.291748,1376
817.4104,1399
817.529053,1367
817.647644,1407
817.766235,1323
817.884949,1348
818.00354,1385
818.122192,1373
818.240845,1377
818.359436,1336
818.478088,1368
818.59668,1342
818.715271,1389
818.833923,1368
818.952515,1341
819.071106,1405
819.189758,1369
819.30835,1330
819.426941,1358
819.545532,1378
819.664124,1349
819.782715,1343
819.901306,1353
820.019897,1378
820.138489,1332
820.25708,1352
820.375671,1328
820.494202,1331
820.612732,1352
820.731384,1324
820.849915,1357
820.968506,1328
821.087097,1361
821.205627,1299
821.324158,1336
821.442749,1331
821.561279,1311
821.679871,1331
821.798401,1287
821.916931,1357
822.035461,1317
822.154053,1317
822.272583,1304
822.391174,1319
822.509583,1330
822.628174,1354
822.746704,1339
822.865234,1308
822.983765,1308
823.102295,1321
823.220825,1354
823.339294,1298
823.457825,1298
823.576355,1304
823.694824,1326
823.813354,1307
823.931885,1308
824.050354,1299
824.168884,1356
824.287354,1320
824.405823,1274
824.524353,1257
824.642822,1284
824.761353,1343
824.879822,1274
824.998291,1308
825.116699,1282
825.235291,1273
825.353699,1276
825.472168,1316
825.590637,1343
825.709106,1273
825.827576,1288
825.946045,1297
826.064453,1338
826.182983,1291
826.301392,1288
826.4198,1309
826.53833,1302
826.656738,1257
826.775208,1277
826.893677,1316
827.012024,1274
827.130493,1292
827.248962,1303
827.36731,1287
827.485779,1266
827.604248,1273
827.722595,1288
827.841064,1292
827.959412,1278
828.077942,1261
828.196289,1272
828.314636,1295
828.433105,1295
828.551514,1281
828.669861,1299
828.78833,1250
828.906677,1300
829.025085,1281
829.143433,1273
829.261841,1274
829.38031,1246
829.498657,1263
829.617004,1282
829.735413,1287
829.85376,1287
829.972107,1271
830.090515,1243
830.208862,1252
830.327209,1270
830.445557,1262
830.563904,1311
830.682312,1296
830.800659,1263
830.919006,1284
831.037354,1283
831.155701,1309
831.274048,1270
831.392395,1248
831.51062,1256
831.629028,1281
831.747314,1270
831.865662,1270
831.984009,1302
832.102356,1282
832.220642,1269
832.338928,1281
832.457275,1269
832.575623,1275
832.693909,1251
832.812134,1270
832.930481,1311
833.048828,1300
833.167114,1281
833.2854,1276
833.403687,1273
833.521973,1269
833.640259,1300
833.758545,1277
833.876831,1302
833.995056,1302
834.113281,1287
834.231628,1323
834.349915,1309
834.468201,1271
834.586426,1258
834.704651,1286
834.822998,1296
834.941162,1260
835.059448,1299
835.177673,1299
835.295959,1253
835.414246,1302
835.53241,1282
835.650635,1242
835.768921,1270
835.887146,1289
836.005371,1276
836.123596,1250
836.241821,1304
836.360046,1258
836.478271,1298
836.596497,1281
836.714722,1267
836.832886,1301
836.95105,1288
837.069336,1265
837.1875,1269
837.305725,1291
837.423889,1292
837.542053,1270
837.660339,1307
837.778503,1279
837.896667,1314
838.014832,1326
838.132996,1299
838.25116,1318
838.369385,1274
838.487488,1329
838.605713,1317
838.723877,1296
838.84198,1295
838.960205,1271
839.078308,1310
839.196472,1252
839.314636,1262
839.4328,1298
839.550964,1293
839.669067,1242
839.787231,1256
839.905396,1322
840.023499,1273
840.141602,1279
840.259766,1269
840.377869,1266
840.495972,1304
840.614136,1254
840.732239,1301
840.850342,1251
840.968445,1283
841.086548,1280
841.204651,1269
841.322754,1246
841.440918,1255
841.55896,1260
841.677002,1253
841.795166,1241
841.913208,1245
842.031311,1273
842.149353,1298
842.267456,1223
842.385498,1279
842.503601,1244
842.621643,1284
842.739746,1246
842.857788,1260
842.97583,1249
843.093933,1239
843.211975,1285
843.330017,1248
843.44812,1231
843.566101,1195
843.684204,1251
843.802246,1247
843.920227,1251
844.038269,1275
844.156311,1233
844.274292,1260
844.392395,1253
844.510376,1286
844.628357,1275
844.74646,1269
844.864441,1256
844.982422,1236
845.100403,1258
845.218384,1273
845.336426,1291
845.454468,1264
845.572449,1246
845.69043,1282
845.808411,1269
845.926453,1305
846.044373,1241
846.162354,1257
846.280396,1254
846.398315,1304
846.516296,1232
846.634216,1243
846.752197,1256
846.870178,1253
846.988098,1272
847.106079,1282
847.22406,1241
847.34198,1249
847.4599,1246
847.577881,1271
847.695801,1252
847.813782,1275
847.931641,1263
848.049561,1264
848.167603,1245
848.285461,1272
848.403381,1269
848.521362,1235
848.639221,1245
848.75708,1254
848.875,1261
848.99292,1272
849.110901,1278
849.22876,1258
849.34668,1250
849.464539,1272
849.582458,1284
849.700317,1230
849.818176,1259
849.936096,1285
850.053955,1248
850.171875,1292
850.289673,1255
850.407593,1274
850.525452,1257
850.643311,1273
850.761169,1237
850.878967,1269
850.996887,1263
851.114746,1303
851.232544,1232
851.350403,1267
851.468262,1237
851.58606,1250
851.703979,1262
851.821777,1260
851.939636,1268
852.057434,1259
852.175232,1290
852.293091,1265
852.410889,1233
852.528687,1254
852.646545,1281
852.764343,1255
852.88208,1262
852.999939,1268
853.117676,1273
853.235535,1243
853.353271,1280
853.471069,1258
853.588928,1291
853.706604,1266
853.824402,1284
853.9422,1275
854.059998,1252
854.177734,1272
854.295532,1258
854.413269,1271
854.531006,1266
854.648804,1275
854.766541,1273
854.884277,1267
855.002014,1281
855.119751,1262
855.237549,1217
855.355225,1247
855.473022,1276
855.590698,1248
855.708435,1246
855.826172,1270
855.943848,1318
856.061646,1251
856.179321,1269
856.296997,1241
856.414795,1231
856.53241,1294
856.650085,1244
856.767822,1283
856.885559,1300
857.003174,1239
857.120911,1285
857.238586,1276
857.356201,1298
857.473938,1238
857.591614,1256
857.709351,1262
857.826965,1275
857.944641,1240
858.062317,1273
858.179993,1265
858.297668,1277
858.415283,1269
858.532959,1294
858.650574,1301
858.768188,1293
858.885803,1300
859.003479,1299
859.121094,1262
859.23877,1284
859.356384,1259
859.473999,1241
859.591675,1261
859.709229,1292
859.826843,1268
859.944458,1230
860.062012,1272
860.179626,1258
860.297302,1292
860.414856,1261
860.532471,1291
860.650024,1281
860.767639,1245
860.885193,1255
861.002808,1267
861.120361,1262
861.237976,1247
861.35553,1289
861.473022,1237
861.590698,1274
861.708191,1277
861.825745,1302
861.943298,1290
862.060852,1294
862.178406,1285
862.295959,1285
862.413513,1272
862.531006,1253
862.64856,1249
862.766113,1275
862.883667,1222
863.00116,1283
863.118713,1234
863.236206,1271
863.353699,1280
863.471252,1271
863.588745,1278
863.706177,1285
863.82373,1273
863.941162,1288
864.058716,1253
864.176208,1270
864.29364,1258
864.411194,1294
864.528687,1268
864.646118,1253
864.763611,1276
864.881042,1301
864.998535,1246
865.116028,1271
865.233459,1289
865.350891,1296
865.468384,1283
865.585754,1249
865.703308,1260
865.820679,1278
865.938171,1229
866.055542,1247
866.173035,1250
866.290466,1286
866.407837,1276
866.52533,1295
866.6427,1263
866.760071,1278
866.877563,1321
866.994934,1265
867.112305,1313
867.229736,1303
867.347107,1246
867.464539,1271
867.58197,1273
867.699341,1268
867.81665,1252
867.934082,1273
868.051453,1293
868.168823,1258
868.286194,1274
868.403564,1271
868.520935,1242
868.638306,1275
868.755676,1300
868.872986,1296
868.990295,1289
869.107727,1300
869.225037,1264
869.342346,1290
869.459717,1315
869.577026,1300
869.694336,1311
869.811707,1303
869.929016,1247
870.046326,1288
870.163635,1311
870.280945,1266
870.398254,1279
870.515564,1299
870.632812,1260
870.750183,1305
870.867432,1262
870.984741,1295
871.102051,1284
871.219299,1296
871.336609,1244
871.453918,1314
871.571106,1259
871.688416,1269
871.805664,1266
871.922852,1278
872.040222,1328
872.157471,1309
872.274719,1312
872.391968,1273
872.509155,1279
872.626465,1285
872.743652,1312
872.860962,1314
872.978149,1280
873.095337,1287
873.212646,1269
873.329834,1293
873.44696,1314
873.564209,1321
873.681396,1349
873.798645,1283
873.915894,1267
874.03302,1287
874.150208,1293
874.267456,1283
874.384583,1305
874.501831,1315
874.618958,1283
874.736145,1294
874.853333,1300
874.970459,1312
875.087646,1276
875.204834,1285
875.32196,1322
875.439148,1291
875.556274,1290
875.673401,1309
875.790527,1311
875.907715,1328
876.024841,1292
876.141968,1304
876.259094,1297
876.376282,1276
876.493347,1272
876.610474,1280
876.7276,1297
876.844727,1287
876.961853,1306
877.078918,1274
877.195984,1301
877.313171,1291
877.430237,1309
877.547302,1323
877.664368,1269
877.781433,1315
877.898499,1294
878.015625,1306
878.13269,1266
878.249695,1230
878.366821,1295
878.483887,1284
878.600952,1250
878.717957,1291
878.834961,1314
878.952087,1329
879.069092,1263
879.186157,1291
879.303162,1309
879.420227,1304
879.537231,1287
879.654236,1284
879.77124,1293
879.888306,1289
880.005249,1293
880.122314,1281
880.239319,1290
880.356323,1306
880.473328,1321
880.590271,1349
880.707275,1296
880.824341,1291
880.941284,1273
881.058228,1292
881.175232,1247
881.292236,1292
881.40918,1320
881.526123,1297
881.643066,1296
881.760071,1312
881.877014,1298
881.993958,1322
882.11084,1278
882.227783,1276
882.344727,1289
882.46167,1287
882.578613,1292
882.695618,1291
882.812439,1307
882.929382,1318
883.046326,1343
883.163208,1307
883.280151,1286
883.397034,1287
883.513916,1309
883.630798,1322
883.747742,1281
883.864563,1286
883.981506,1294
884.098389,1303
884.21521,1252
884.332153,1351
884.448975,1262
884.565796,1343
884.682678,1303
884.7995,1305
884.916443,1302
885.033264,1296
885.150085,1332
885.266968,1355
885.383789,1312
885.500671,1348
885.617493,1311
885.734314,1325
885.851196,1344
885.967896,1341
886.084717,1375
886.201599,1341
886.318359,1357
886.435181,1317
886.552002,1326
886.668762,1314
886.785645,1351
886.902344,1314
887.019165,1357
887.135925,1308
887.252747,1329
887.369446,1343
887.486267,1322
887.603027,1314
887.719788,1339
887.836548,1316
887.953247,1322
888.070068,1327
888.186829,1297
888.303528,1340
888.420288,1298
888.536987,1295
888.653687,1283
888.770447,1351
888.887146,1301
889.003967,1337
889.120667,1354
889.237305,1323
889.354065,1350
889.470703,1300
889.587463,1309
889.704163,1370
889.820862,1365
889.937561,1359
890.054199,1291
890.170837,1344
890.287598,1286
890.404236,1287
890.520874,1310
890.637634,1361
890.754211,1337
890.87085,1312
890.987549,1341
891.104187,1298
891.220886,1328
891.337463,1331
891.454102,1357
891.57074,1363
891.687378,1341
891.804077,1320
891.920654,1339
892.037231,1335
892.15387,1366
892.270447,1321
892.387085,1321
892.503723,1337
892.6203,1317
892.736877,1345
892.853516,1347
892.970032,1308
893.08667,1378
893.203186,1344
893.319763,1312
893.43634,1353
893.552917,1351
893.669556,1367
893.786011,1350
893.902588,1330
894.019165,1363
894.135681,1373
894.252197,1351
894.368835,1322
894.485291,1342
894.601868,1353
894.718384,1402
894.8349,1336
894.951355,1334
895.067932,1368
895.184448,1335
895.300964,1328
895.417419,1352
895.533936,1351
895.650452,1321
895.766907,1295
895.883423,1350
895.999878,1301
896.116333,1367
896.232849,1356
896.349304,1316
896.465759,1378
896.582214,1342
896.698669,1391
896.815125,1365
896.931641,1330
897.048035,1351
897.164551,1318
897.280884,1307
897.397339,1316
897.513794,1337
897.630249,1345
897.746582,1357
897.863098,1350
897.979431,1356
898.095886,1353
898.212341,1332
898.328674,1371
898.445129,1365
898.561462,1352
898.677795,1324
898.794312,1387
898.910645,1352
899.026978,1346
899.143433,1347
899.259766,1322
899.37616,1366
899.492493,1340
899.608765,1356
899.725159,1311
899.841553,1399
899.957947,1300
900.07428,1347
900.190552,1369
900.306946,1378
900.423157,1379
900.53949,1369
900.655884,1359
900.772156,1360
900.888489,1383
901.004822,1374
901.121033,1345
901.237366,1388
901.353699,1335
901.46991,1328
901.586304,1355
901.702515,1355
901.818787,1369
901.93512,1365
902.051331,1372
902.167603,1387
902.283875,1351
902.400085,1373
902.516418,1349
902.632629,1342
902.74884,1376
902.865112,1378
902.981384,1364
903.097595,1405
903.213867,1393
903.330017,1366
903.446289,1409
903.5625,1355
903.67865,1385
903.794922,1397
903.911072,1384
904.027344,1376
904.143494,1342
904.259705,1368
904.375916,1398
904.492065,1397
904.608215,1386
904.724426,1333
904.840576,1360
904.956726,1404
905.072876,1348
905.189087,1365
905.305176,1368
905.421387,1376
905.537537,1355
905.653687,1337
905.769775,1398
905.885925,1374
906.002014,1369
906.118164,1376
906.234314,1349
906.350403,1364
906.466492,1387
906.582642,1360
906.69873,1368
906.814758,1395
906.930908,1383
907.046936,1374
907.163086,1348
907.279175,1390
907.395264,1353
907.511353,1379
907.62738,1322
907.743408,1384
907.859497,1389
907.975525,1372
908.091553,1384
908.207703,1363
908.32373,1395
908.439758,1357
908.555786,1402
908.671814,1387
908.787842,1384
908.90387,1368
909.019775,1418
909.135864,1394
909.251892,1394
909.367859,1365
909.483826,1422
909.599854,1437
909.715881,1394
909.831848,1379
909.947815,1334
910.063782,1387
910.179749,1312
910.295776,1398
910.411743,1385
910.527649,1379
910.643616,1462
910.759583,1395
910.875488,1405
910.991455,1365
911.107361,1369
911.223267,1376
911.339294,1360
911.4552,1374
911.571106,1376
911.687073,1442
911.802979,1379
911.918823,1382
912.034729,1379
912.150635,1380
912.266602,1415
912.382446,1385
912.498352,1387
912.614197,1374
912.730103,1345
912.846008,1405
792.44574,1668
792.56488,1697
792.68396,1685
792.80304,1673
792.92218,1645
793.041199,1614
793.160339,1595
793.279419,1644
793.398499,1663
793.517578,1604
793.636658,1583
793.755737,1612
793.874817,1620
793.993896,1602
794.112976,1590
794.232056,1581
794.351074,1588
794.470215,1599
794.589233,1577
794.708313,1529
794.827393,1578
794.946411,1630
795.065552,1552
795.18457,1521
795.303589,1545
795.422668,1528
795.541687,1574
795.660767,1542
795.779846,1563
795.898865,1518
796.017883,1572
796.136963,1514
796.255981,1561
796.375061,1562
796.49408,1514
796.613037,1540
796.732117,1513
796.851135,1510
796.970154,1505
797.089233,1510
797.208191,1500
797.327271,1516
797.446228,1528
797.565186,1523
797.684265,1486
797.803223,1486
797.922241,1523
798.04126,1515
798.160278,1513
798.279297,1525
798.398315,1515
798.517273,1550
798.636292,1536
798.75531,1497
798.874268,1496
798.993286,1516
799.112244,1508
799.231323,1463
799.350281,1505
799.469238,1484
799.588257,1528
799.707153,1500
799.826111,1522
799.945129,1480
800.064087,1466
800.183044,1520
800.302063,1489
800.421021,1494
800.539978,1498
800.658936,1501
800.777893,1504
800.896912,1432
801.015747,1500
801.134705,1477
801.253723,1495
801.37262,1503
801.491638,1523
801.610535,1466
801.729492,1500
801.84845,1500
801.967407,1441
802.086243,1459
802.205261,1480
802.324158,1464
802.443115,1498
802.562073,1449
802.680969,1446
802.799927,1517
802.918762,1519
803.037659,1492
803.156677,1465
803.275574,1483
803.39447,1476
803.513428,1495
803.632263,1513
803.751221,1481
803.870117,1475
803.989014,1453
804.107971,1447
804.226746,1481
804.345642,1456
804.4646,1479
804.583496,1454
804.702393,1489
804.821228,1467
804.940125,1537
805.059021,1485
805.177917,1434
805.296814,1493
805.415649,1467
805.534546,1492
805.653442,1483
805.772278,1498
805.891113,1478
806.01001,1459
806.128906,1481
806.247742,1463
806.366577,1443
806.485413,1528
806.604309,1496
806.723145,1472
806.84198,1419
806.960876,1474
807.079712,1485
807.198486,1482
807.317383,1452
807.436218,1440
807.554993,1477
807.673889,1437
807.792725,1460
807.91156,1458
808.030396,1434
808.14917,1472
808.268005,1435
808.386841,1440
808.505676,1441
808.624451,1502
808.743286,1421
808.862122,1465
808.980896,1460
809.099731,1449
809.218506,1469
809.337341,1461
809.456116,1517
809.57489,1469
809.693726,1458
809.8125,1468
809.931274,1457
810.050049,1448
810.168884,1448
810.287659,1458
810.406372,1452
810.525269,1413
810.643982,1394
810.762756,1479
810.881531,1390
811.000305,1498
811.11908,1462
811.237854,1481
811.356567,1439
811.475403,1443
811.594116,1416
811.71283,1491
811.831604,1436
811.950378,1453
812.069153,1475
812.187927,1471
812.30658,1454
812.425415,1491
812.544128,1454
812.662781,1424
812.781616,1474
812.900269,1439
813.019043,1469
813.137756,1454
813.256531,1460
813.375244,1445
813.493896,1437
813.612671,1474
813.731384,1459
813.850037,1455
813.96875,1468
814.087524,1417
814.206238,1427
814.324951,1473
814.443604,1396
814.562256,1455
814.68103,1416
814.799683,1439
814.918335,1450
815.037109,1485
815.155762,1462
815.274475,1417
815.393188,1392
815.511841,1446
815.630554,1427
815.749146,1430
815.867859,1437
815.986572,1460
816.105164,1435
816.223877,1443
816.342529,1447
816.461182,1443
816.579895,1434
816.698486,1405
816.817139,1418
816.935791,1466
817.054504,1472
817.173096,1403
817.291748,1400
817.4104,1467
817.529053,1406
817.647644,1447
817.766235,1393
817.884949,1398
818.00354,1348
818.122192,1400
818.240845,1397
818.359436,1365
818.478088,1380
818.59668,1392
818.715271,1356
818.833923,1379
818.952515,1378
819.071106,1352
819.189758,1369
819.30835,1384
819.426941,1361
819.545532,1373
819.664124,1339
819.782715,1332
819.901306,1376
820.019897,1361
820.138489,1398
820.25708,1316
820.375671,1363
820.494202,1399
820.612732,1329
820.731384,1370
820.849915,1339
820.968506,1378
821.087097,1345
821.205627,1350
821.324158,1345
821.442749,1363
821.561279,1308
821.679871,1315
821.798401,1310
821.916931,1360
822.035461,1365
822.154053,1331
822.272583,1350
822.391174,1345
822.509583,1353
822.628174,1353
822.746704,1345
822.865234,1362
822.983765,1293
823.102295,1391
823.220825,1327
823.339294,1322
823.457825,1354
823.576355,1322
823.694824,1336
823.813354,1338
823.931885,1331
824.050354,1364
824.168884,1357
824.287354,1352
824.405823,1316
824.524353,1371
824.642822,1315
824.761353,1344
824.879822,1357
824.998291,1304
825.116699,1363
825.235291,1333
825.353699,1363
825.472168,1309
825.590637,1320
825.709106,1311
825.827576,1342
825.946045,1328
826.064453,1342
826.182983,1369
826.301392,1316
826.4198,1273
826.53833,1348
826.656738,1359
826.775208,1334
826.893677,1332
827.012024,1347
827.130493,1305
827.248962,1311
827.36731,1288
827.485779,1338
827.604248,1319
827.722595,1321
827.841064,1326
827.959412,1357
828.077942,1325
828.196289,1317
828.314636,1319
828.433105,1326
828.551514,1297
828.669861,1296
828.78833,1291
828.906677,1302
829.025085,1305
829.143433,1285
829.261841,1305
829.38031,1286
829.498657,1300
829.617004,1351
829.735413,1314
829.85376,1292
829.972107,1282
830.090515,1269
830.208862,1295
830.327209,1304
830.445557,1288
830.563904,1297
830.682312,1346
830.800659,1287
830.919006,1310
831.037354,1301
831.155701,1319
831.274048,1296
831.392395,1315
831.51062,1305
831.629028,1324
831.747314,1294
831.865662,1296
831.984009,1280
832.102356,1326
832.220642,1285
832.338928,1312
832.457275,1326
832.575623,1303
832.693909,1291
832.812134,1340
832.930481,1318
833.048828,1274
833.167114,1331
833.2854,1231
833.403687,1343
833.521973,1328
833.640259,1306
833.758545,1290
833.876831,1281
833.995056,1278
834.113281,1298
834.231628,1301
834.349915,1239
834.468201,1280
834.586426,1320
834.704651,1279
834.822998,1342
834.941162,1278
835.059448,1300
835.177673,1265
835.295959,1327
835.414246,1321
835.53241,1272
835.650635,1292
835.768921,1288
835.887146,1283
836.005371,1301
836.123596,1300
836.241821,1314
836.360046,1278
836.478271,1306
836.596497,1326
836.714722,1307
836.832886,1318
836.95105,1293
837.069336,1316
837.1875,1304
837.305725,1317
837.423889,1327
837.542053,1276
837.660339,1298
837.778503,1316
837.896667,1293
838.014832,1319
838.132996,1271
838.25116,1305
838.369385,1267
838.487488,1307
838.605713,1281
838.723877,1280
838.84198,1294
838.960205,1288
839.078308,1285
839.196472,1279
839.314636,1259
839.4328,1307
839.550964,1309
839.669067,1257
839.787231,1284
839.905396,1302
840.023499,1315
840.141602,1300
840.259766,1286
840.377869,1279
840.495972,1298
840.614136,1338
840.732239,1308
840.850342,1285
840.968445,1282
841.086548,1299
841.204651,1349
841.322754,1310
841.440918,1276
841.55896,1302
841.677002,1294
841.795166,1315
841.913208,1285
842.031311,1250
842.149353,1299
842.267456,1251
842.385498,1282
842.503601,1270
842.621643,1268
842.739746,1315
842.857788,1279
842.97583,1290
843.093933,1299
843.211975,1297
843.330017,1305
843.44812,1269
843.566101,1269
843.684204,1295
843.802246,1240
843.920227,1330
844.038269,1308
844.156311,1305
844.274292,1313
844.392395,1292
844.510376,1278
844.628357,1274
844.74646,1315
844.864441,1292
844.982422,1229
845.100403,1296
845.218384,1309
845.336426,1271
845.454468,1310
845.572449,1287
845.69043,1314
845.808411,1275
845.926453,1292
846.044373,1278
846.162354,1255
846.280396,1313
846.398315,1295
846.516296,1273
846.634216,1293
846.752197,1295
846.870178,1279
846.988098,1304
847.106079,1280
847.22406,1282
847.34198,1278
847.4599,1295
847.577881,1265
847.695801,1284
847.813782,1280
847.931641,1287
848.049561,1280
848.167603,1311
848.285461,1260
848.403381,1322
848.521362,1287
848.639221,1286
848.75708,1306
848.875,1296
848.99292,1306
849.110901,1269
849.22876,1318
849.34668,1260
849.464539,1275
849.582458,1312
849.700317,1264
849.818176,1264
849.936096,1321
850.053955,1279
850.171875,1274
850.289673,1289
850.407593,1300
850.525452,1296
850.643311,1271
850.761169,1253
850.878967,1319
850.996887,1305
851.114746,1296
851.232544,1258
851.350403,1297
851.468262,1278
851.58606,1257
851.703979,1292
851.821777,1295
851.939636,1281
852.057434,1316
852.175232,1256
852.293091,1319
852.410889,1281
852.528687,1267
852.646545,1261
852.764343,1295
852.88208,1324
852.999939,1294
853.117676,1306
853.235535,1294
853.353271,1290
853.471069,1313
853.588928,1276
853.706604,1277
853.824402,1291
853.9422,1276
854.059998,1266
854.177734,1319
854.295532,1292
854.413269,1270
854.531006,1309
854.648804,1330
854.766541,1316
854.884277,1243
855.002014,1284
855.119751,1254
855.237549,1260
855.355225,1283
855.473022,1323
855.590698,1272
855.708435,1280
855.826172,1293
855.943848,1308
856.061646,1317
856.179321,1286
856.296997,1302
856.414795,1296
856.53241,1291
856.650085,1352
856.767822,1278
856.885559,1361
857.003174,1308
857.120911,1305
857.238586,1300
857.356201,1345
857.473938,1278
857.591614,1272
857.709351,1312
857.826965,1304
857.944641,1302
858.062317,1282
858.179993,1277
858.297668,1302
858.415283,1292
858.532959,1300
858.650574,1296
858.768188,1302
858.885803,1280
859.003479,1329
859.121094,1317
859.23877,1297
859.356384,1278
859.473999,1320
859.591675,1316
859.709229,1283
859.826843,1309
859.944458,1301
860.062012,1298
860.179626,1294
860.297302,1334
860.414856,1259
860.532471,1299
860.650024,1334
860.767639,1248
860.885193,1277
861.002808,1270
861.120361,1280
861.237976,1305
861.35553,1358
861.473022,1307
861.590698,1302
861.708191,1299
861.825745,1294
861.943298,1296
862.060852,1331
862.178406,1282
862.295959,1308
862.413513,1276
862.531006,1298
862.64856,1302
862.766113,1290
862.883667,1272
863.00116,1301
863.118713,1305
863.236206,1311
863.353699,1298
863.471252,1272
863.588745,1315
863.706177,1296
863.82373,1318
863.941162,1292
864.058716,1308
864.176208,1291
864.29364,1294
864.411194,1303
864.528687,1294
864.646118,1315
864.763611,1280
864.881042,1309
864.998535,1283
865.116028,1299
865.233459,1303
865.350891,1316
865.468384,1303
865.585754,1289
865.703308,1271
865.820679,1342
865.938171,1303
866.055542,1326
866.173035,1292
866.290466,1313
866.407837,1304
866.52533,1319
866.6427,1266
866.760071,1318
866.877563,1259
866.994934,1277
867.112305,1319
867.229736,1317
867.347107,1330
867.464539,1305
867.58197,1308
867.699341,1292
867.81665,1273
867.934082,1292
868.051453,1301
868.168823,1288
868.286194,1343
868.403564,1309
868.520935,1315
868.638306,1318
868.755676,1297
868.872986,1304
868.990295,1330
869.107727,1336
869.225037,1312
869.342346,1320
869.459717,1277
869.577026,1317
869.694336,1300
869.811707,1283
869.929016,1293
870.046326,1317
870.163635,1253
870.280945,1289
870.398254,1310
870.515564,1301
870.632812,1276
870.750183,1302
870.867432,1298
870.984741,1290
871.102051,1338
871.219299,1297
871.336609,1328
871.453918,1321
871.571106,1319
871.688416,1340
871.805664,1301
871.922852,1318
872.040222,1329
872.157471,1326
872.274719,1334
872.391968,1313
872.509155,1326
872.626465,1331
872.743652,1301
872.860962,1361
872.978149,1310
873.095337,1300
873.212646,1284
873.329834,1344
873.44696,1339
873.564209,1309
873.681396,1272
873.798645,1344
873.915894,1312
874.03302,1353
874.150208,1326
874.267456,1310
874.384583,1317
874.501831,1319
874.618958,1305
874.736145,1312
874.853333,1340
874.970459,1317
875.087646,1311
875.204834,1296
875.32196,1303
875.439148,1326
875.556274,1309
875.673401,1357
875.790527,1303
875.907715,1334
876.024841,1289
876.141968,1300
876.259094,1285
876.376282,1353
876.493347,1310
876.610474,1331
876.7276,1329
876.844727,1329
876.961853,1342
877.078918,1338
877.195984,1324
877.313171,1316
877.430237,1356
877.547302,1337
877.664368,1325
877.781433,1329
877.898499,1326
878.015625,1359
878.13269,1350
878.249695,1320
878.366821,1284
878.483887,1351
878.600952,1321
878.717957,1333
878.834961,1369
878.952087,1366
879.069092,1339
879.186157,1334
879.303162,1283
879.420227,1299
879.537231,1317
879.654236,1279
879.77124,1322
879.888306,1329
880.005249,1304
880.122314,1291
880.239319,1305
880.356323,1307
880.473328,1359
880.590271,1324
880.707275,1310
880.824341,1327
880.941284,1327
881.058228,1335
881.175232,1323
881.292236,1316
881.40918,1294
881.526123,1356
881.643066,1331
881.760071,1324
881.877014,1328
881.993958,1310
882.11084,1308
882.227783,1305
882.344727,1352
882.46167,1304
882.578613,1355
882.695618,1302
882.812439,1356
882.929382,1338
883.046326,1353
883.163208,1338
883.280151,1318
883.397034,1311
883.513916,1351
883.630798,1330
883.747742,1357
883.864563,1335
883.981506,1294
884.098389,1341
884.21521,1334
884.332153,1347
884.448975,1355
884.565796,1339
884.682678,1299
884.7995,1357
884.916443,1375
885.033264,1369
885.150085,1374
885.266968,1379
885.383789,1358
885.500671,1344
885.617493,1360
885.734314,1341
885.851196,1344
885.967896,1403
886.084717,1371
886.201599,1332
886.318359,1368
886.435181,1365
886.552002,1376
886.668762,1364
886.785645,1364
886.902344,1390
887.019165,1375
887.135925,1343
887.252747,1356
887.369446,1357
887.486267,1395
887.603027,1338
887.719788,1375
887.836548,1375
887.953247,1363
888.070068,1354
888.186829,1368
888.303528,1350
888.420288,1342
888.536987,1310
888.653687,1355
888.770447,1386
888.887146,1368
889.003967,1319
889.120667,1367
889.237305,1379
889.354065,1353
889.470703,1366
889.587463,1377
889.704163,1383
889.820862,1365
889.937561,1346
890.054199,1354
890.170837,1347
890.287598,1357
890.404236,1375
890.520874,1379
890.637634,1395
890.754211,1364
890.87085,1409
890.987549,1346
891.104187,1387
891.220886,1353
891.337463,1351
891.454102,1378
891.57074,1381
891.687378,1346
891.804077,1417
891.920654,1322
892.037231,1359
892.15387,1384
892.270447,1333
892.387085,1394
892.503723,1398
892.6203,1374
892.736877,1360
892.853516,1330
892.970032,1397
893.08667,1366
893.203186,1357
893.319763,1371
893.43634,1360
893.552917,1380
893.669556,1380
893.786011,1346
893.902588,1400
894.019165,1370
894.135681,1368
894.252197,1347
894.368835,1405
894.485291,1360
894.601868,1393
894.718384,1346
894.8349,1394
894.951355,1376
895.067932,1386
895.184448,1343
895.300964,1367
895.417419,1401
895.533936,1378
895.650452,1390
895.766907,1391
895.883423,1385
895.999878,1404
896.116333,1398
896.232849,1405
896.349304,1355
896.465759,1373
896.582214,1391
896.698669,1359
896.815125,1389
896.931641,1352
897.048035,1393
897.164551,1364
897.280884,1407
897.397339,1379
897.513794,1414
897.630249,1381
897.746582,1376
897.863098,1368
897.979431,1419
898.095886,1363
898.212341,1340
898.328674,1424
898.445129,1366
898.561462,1375
898.677795,1358
898.794312,1382
898.910645,1368
899.026978,1363
899.143433,1361
899.259766,1387
899.37616,1409
899.492493,1358
899.608765,1369
899.725159,1383
899.841553,1392
899.957947,1398
900.07428,1385
900.190552,1397
900.306946,1386
900.423157,1370
900.53949,1377
900.655884,1388
900.772156,1419
900.888489,1366
901.004822,1392
901.121033,1406
901.237366,1399
901.353699,1387
901.46991,1351
901.586304,1378
901.702515,1375
901.818787,1407
901.93512,1407
902.051331,1419
902.167603,1403
902.283875,1359
902.400085,1422
902.516418,1418
902.632629,1405
902.74884,1387
902.865112,1395
902.981384,1392
903.097595,1405
903.213867,1441
903.330017,1391
903.446289,1390
903.5625,1388
903.67865,1431
903.794922,1388
903.911072,1425
904.027344,1395
904.143494,1376
904.259705,1460
904.375916,1394
904.492065,1407
904.608215,1370
904.724426,1411
904.840576,1334
904.956726,1370
905.072876,1408
905.189087,1415
905.305176,1375
905.421387,1435
905.537537,1378
905.653687,1385
905.769775,1417
905.885925,1423
906.002014,1382
906.118164,1436
906.234314,1396
906.350403,1403
906.466492,1408
906.582642,1420
906.69873,1418
906.814758,1392
906.930908,1381
907.046936,1371
907.163086,1436
907.279175,1436
907.395264,1372
907.511353,1470
907.62738,1406
907.743408,1418
907.859497,1412
907.975525,1450
908.091553,1390
908.207703,1411
908.32373,1425
908.439758,1402
908.555786,1426
908.671814,1423
908.787842,1398
908.90387,1393
909.019775,1430
909.135864,1433
909.251892,1469
909.367859,1395
909.483826,1409
909.599854,1403
909.715881,1397
909.831848,1424
909.947815,1423
910.063782,1449
910.179749,1379
910.295776,1422
910.411743,1419
910.527649,1430
910.643616,1443
910.759583,1389
910.875488,1449
910.991455,1439
911.107361,1385
911.223267,1409
911.339294,1393
911.4552,1425
911.571106,1414
911.687073,1422
911.802979,1415
911.918823,1369
912.034729,1433
912.150635,1401
912.266602,1469
912.382446,1395
912.498352,1401
912.614197,1427
912.730103,1418
912.846008,1381
792.44574,1723
792.56488,1689
792.68396,1720
792.80304,1722
792.92218,1613
793.041199,1651
793.160339,1584
793.279419,1629
793.398499,1646
793.517578,1618
793.636658,1571
793.755737,1641
793.874817,1626
793.993896,1656
794.112976,1609
794.232056,1561
794.351074,1635
794.470215,1606
794.589233,1554
794.708313,1563
794.827393,1551
794.946411,1584
795.065552,1578
795.18457,1575
795.303589,1585
795.422668,1552
795.541687,1522
795.660767,1583
795.779846,1553
795.898865,1559
796.017883,1530
796.136963,1571
796.255981,1560
796.375061,1577
796.49408,1532
796.613037,1535
796.732117,1563
796.851135,1515
796.970154,1531
797.089233,1536
797.208191,1532
797.327271,1510
797.446228,1521
797.565186,1523
797.684265,1516
797.803223,1549
797.922241,1568
798.04126,1530
798.160278,1526
798.279297,1507
798.398315,1536
798.517273,1482
798.636292,1505
798.75531,1506
798.874268,1502
798.993286,1506
799.112244,1489
799.231323,1443
799.350281,1520
799.469238,1476
799.588257,1518
799.707153,1477
799.826111,1522
799.945129,1502
800.064087,1549
800.183044,1500
800.302063,1513
800.421021,1492
800.539978,1505
800.658936,1538
800.777893,1510
800.896912,1536
801.015747,1500
801.134705,1520
801.253723,1510
801.37262,1476
801.491638,1519
801.610535,1499
801.729492,1513
801.84845,1506
801.967407,1498
802.086243,1499
802.205261,1488
802.324158,1468
802.443115,1444
802.562073,1483
802.680969,1537
802.799927,1506
802.918762,1486
803.037659,1477
803.156677,1504
803.275574,1464
803.39447,1538
803.513428,1501
803.632263,1507
803.751221,1488
803.870117,1458
803.989014,1497
804.107971,1479
804.226746,1533
804.345642,1496
804.4646,1461
804.583496,1538
804.702393,1497
804.821228,1479
804.940125,1505
805.059021,1476
805.177917,1468
805.296814,1431
805.415649,1460
805.534546,1453
805.653442,1467
805.772278,1501
805.891113,1469
806.01001,1487
806.128906,1500
806.247742,1454
806.366577,1503
806.485413,1506
806.604309,1506
806.723145,1479
806.84198,1501
806.960876,1509
807.079712,1478
807.198486,1478
807.317383,1477
807.436218,1445
807.554993,1501
807.673889,1501
807.792725,1522
807.91156,1495
808.030396,1465
808.14917,1510
808.268005,1439
808.386841,1482
808.505676,1458
808.624451,1489
808.743286,1475
808.862122,1471
808.980896,1470
809.099731,1422
809.218506,1519
809.337341,1461
809.456116,1486
809.57489,1489
809.693726,1470
809.8125,1445
809.931274,1437
810.050049,1493
810.168884,1470
810.287659,1476
810.406372,1473
810.525269,1496
810.643982,1477
810.762756,1483
810.881531,1477
811.000305,1504
811.11908,1481
811.237854,1475
811.356567,1479
811.475403,1441
811.594116,1440
811.71283,1504
811.831604,1443
811.950378,1482
812.069153,1456
812.187927,1478
812.30658,1464
812.425415,1475
812.544128,1455
812.662781,1460
812.781616,1454
812.900269,1467
813.019043,1467
813.137756,1488
813.256531,1444
813.375244,1426
813.493896,1492
813.612671,1436
813.731384,1437
813.850037,1484
813.96875,1426
814.087524,1435
814.206238,1413
814.324951,1467
814.443604,1440
814.562256,1494
814.68103,1458
814.799683,1409
814.918335,1430
815.037109,1443
815.155762,1444
815.274475,1446
815.393188,1432
815.511841,1439
815.630554,1469
815.749146,1427
815.867859,1399
815.986572,1477
816.105164,1427
816.223877,1462
816.342529,1432
816.461182,1442
816.579895,1460
816.698486,1477
816.817139,1434
816.935791,1433
817.054504,1453
817.173096,1440
817.291748,1373
817.4104,1444
817.529053,1464
817.647644,1425
817.766235,1397
817.884949,1411
818.00354,1411
818.122192,1390
818.240845,1415
818.359436,1406
818.478088,1385
818.59668,1393
818.715271,1413
818.833923,1436
818.952515,1348
819.071106,1384
819.189758,1424
819.30835,1377
819.426941,1399
819.545532,1352
819.664124,1348
819.782715,1406
819.901306,1410
820.019897,1335
820.138489,1407
820.25708,1370
820.375671,1414
820.494202,1343
820.612732,1383
820.731384,1372
820.849915,1330
820.968506,1390
821.087097,1357
821.205627,1417
821.324158,1330
821.442749,1380
821.561279,1358
821.679871,1393
821.798401,1347
821.916931,1372
822.035461,1379
822.154053,1413
822.272583,1359
822.391174,1363
822.509583,1355
822.628174,1339
822.746704,1365
822.865234,1368
822.983765,1370
823.102295,1368
823.220825,1341
823.339294,1318
823.457825,1348
823.576355,1314
823.694824,1334
823.813354,1366
823.931885,1343
824.050354,1320
824.168884,1364
824.287354,1342
824.405823,1366
824.524353,1343
824.642822,1366
824.761353,1347
824.879822,1341
824.998291,1346
825.116699,1354
825.235291,1355
825.353699,1346
825.472168,1372
825.590637,1393
825.709106,1382
825.827576,1347
825.946045,1343
826.064453,1327
826.182983,1352
826.301392,1345
826.4198,1381
826.53833,1346
826.656738,1318
826.775208,1296
826.893677,1370
827.012024,1331
827.130493,1388
827.248962,1314
827.36731,1336
827.485779,1329
827.604248,1351
827.722595,1336
827.841064,1343
827.959412,1323
828.077942,1305
828.196289,1340
828.314636,1342
828.433105,1351
828.551514,1318
828.669861,1270
828.78833,1281
828.906677,1316
829.025085,1328
829.143433,1323
829.261841,1313
829.38031,1336
829.498657,1263
829.617004,1311
829.735413,1330
829.85376,1320
829.972107,1313
830.090515,1279
830.208862,1322
830.327209,1295
830.445557,1322
830.563904,1315
830.682312,1316
830.800659,1300
830.919006,1339
831.037354,1335
831.155701,1327
831.274048,1313
831.392395,1356
831.51062,1343
831.629028,1321
831.747314,1319
831.865662,1346
831.984009,1316
832.102356,1335
832.220642,1303
832.338928,1282
832.457275,1323
832.575623,1304
832.693909,1249
832.812134,1317
832.930481,1334
833.048828,1350
833.167114,1318
833.2854,1344
833.403687,1313
833.521973,1324
833.640259,1315
833.758545,1293
833.876831,1297
833.995056,1299
834.113281,1301
834.231628,1314
834.349915,1289
834.468201,1322
834.586426,1312
834.704651,1296
834.822998,1287
834.941162,1321
835.059448,1332
835.177673,1280
835.295959,1313
835.414246,1319
835.53241,1317
835.650635,1301
835.768921,1315
835.887146,1353
836.005371,1287
836.123596,1297
836.241821,1281
836.360046,1321
836.478271,1316
836.596497,1299
836.714722,1314
836.832886,1310
836.95105,1318
837.069336,1309
837.1875,1325
837.305725,1294
837.423889,1313
837.542053,1299
837.660339,1352
837.778503,1325
837.896667,1305
838.014832,1301
838.132996,1287
838.25116,1301
838.369385,1311
838.487488,1321
838.605713,1289
838.723877,1342
838.84198,1323
838.960205,1295
839.078308,1300
839.196472,1324
839.314636,1346
839.4328,1316
839.550964,1316
839.669067,1264
839.787231,1292
839.905396,1318
840.023499,1344
840.141602,1306
840.259766,1294
840.377869,1283
840.495972,1329
840.614136,1273
840.732239,1313
840.850342,1304
840.968445,1298
841.086548,1300
841.204651,1286
841.322754,1340
841.440918,1287
841.55896,1284
841.677002,1325
841.795166,1281
841.913208,1313
842.031311,1301
842.149353,1308
842.267456,1317
842.385498,1296
842.503601,1344
842.621643,1270
842.739746,1288
842.857788,1302
842.97583,1282
843.093933,1277
843.211975,1314
843.330017,1320
843.44812,1289
843.566101,1300
843.684204,1335
843.802246,1239
843.920227,1295
844.038269,1332
844.156311,1283
844.274292,1321
844.392395,1289
844.510376,1309
844.628357,1301
844.74646,1271
844.864441,1316
844.982422,1270
845.100403,1296
845.218384,1319
845.336426,1257
845.454468,1285
845.572449,1286
845.69043,1338
845.808411,1288
845.926453,1293
846.044373,1248
846.162354,1308
846.280396,1308
846.398315,1304
846.516296,1327
846.634216,1268
846.752197,1309
846.870178,1310
846.988098,1313
847.106079,1282
847.22406,1266
847.34198,1284
847.4599,1294
847.577881,1271
847.695801,1287
847.813782,1294
847.931641,1313
848.049561,1280
848.167603,1278
848.285461,1288
848.403381,1290
848.521362,1297
848.639221,1295
848.75708,1291
848.875,1309
848.99292,1308
849.110901,1336
849.22876,1304
849.34668,1347
849.464539,1291
849.582458,1275
849.700317,1292
849.818176,1291
849.936096,1268
850.053955,1288
850.171875,1312
850.289673,1279
850.407593,1291
850.525452,1313
850.643311,1285
850.761169,1272
850.878967,1296
850.996887,1269
851.114746,1271
851.232544,1328
851.350403,1316
851.468262,1280
851.58606,1286
851.703979,1363
851.821777,1292
851.939636,1286
852.057434,1355
852.175232,1269
852.293091,1285
852.410889,1335
852.528687,1327
852.646545,1297
852.764343,1287
852.88208,1307
852.999939,1285
853.117676,1303
853.235535,1304
853.353271,1320
853.471069,1282
853.588928,1293
853.706604,1326
853.824402,1358
853.9422,1291
854.059998,1275
854.177734,1303
854.295532,1281
854.413269,1273
854.531006,1326
854.648804,1309
854.766541,1320
854.884277,1282
855.002014,1328
855.119751,1297
855.237549,1279
855.355225,1286
855.473022,1318
855.590698,1342
855.708435,1300
855.826172,1307
855.943848,1266
856.061646,1298
856.179321,1290
856.296997,1323
856.414795,1333
856.53241,1271
856.650085,1328
856.767822,1311
856.885559,1331
857.003174,1311
857.120911,1324
857.238586,1287
857.356201,1385
857.473938,1308
857.591614,1331
857.709351,1333
857.826965,1295
857.944641,1354
858.062317,1327
858.179993,1336
858.297668,1303
858.415283,1304
858.532959,1316
858.650574,1345
858.768188,1309
858.885803,1261
859.003479,1360
859.121094,1345
859.23877,1310
859.356384,1314
859.473999,1310
859.591675,1328
859.709229,1298
859.826843,1336
859.944458,1325
860.062012,1274
860.179626,1296
860.297302,1293
860.414856,1286
860.532471,1313
860.650024,1301
860.767639,1345
860.885193,1293
861.002808,1311
861.120361,1292
861.237976,1320
861.35553,1298
861.473022,1320
861.590698,1302
861.708191,1292
861.825745,1295
861.943298,1291
862.060852,1341
862.178406,1304
862.295959,1301
862.413513,1307
862.531006,1289
862.64856,1318
862.766113,1296
862.883667,1328
863.00116,1316
863.118713,1310
863.236206,1329
863.353699,1295
863.471252,1311
863.588745,1309
863.706177,1283
863.82373,1296
863.941162,1310
864.058716,1262
864.176208,1306
864.29364,1315
864.411194,1309
864.528687,1338
864.646118,1357
864.763611,1283
864.881042,1330
864.998535,1324
865.116028,1303
865.233459,1321
865.350891,1323
865.468384,1308
865.585754,1297
865.703308,1290
865.820679,1322
865.938171,1347
866.055542,1330
866.173035,1285
866.290466,1308
866.407837,1289
866.52533,1314
866.6427,1312
866.760071,1256
866.877563,1308
866.994934,1329
867.112305,1378
867.229736,1350
867.347107,1301
867.464539,1316
867.58197,1325
867.699341,1274
867.81665,1340
867.934082,1328
868.051453,1334
868.168823,1330
868.286194,1319
868.403564,1326
868.520935,1351
868.638306,1317
868.755676,1288
868.872986,1345
868.990295,1326
869.107727,1331
869.225037,1325
869.342346,1329
869.459717,1319
869.577026,1339
869.694336,1317
869.811707,1356
869.929016,1299
870.046326,1323
870.163635,1303
870.280945,1313
870.398254,1335
870.515564,1361
870.632812,1321
870.750183,1334
870.867432,1368
870.984741,1305
871.102051,1320
871.219299,1311
871.336609,1367
871.453918,1338
871.571106,1342
871.688416,1338
871.805664,1336
871.922852,1314
872.040222,1345
872.157471,1324
872.274719,1308
872.391968,1333
872.509155,1301
872.626465,1331
872.743652,1323
872.860962,1345
872.978149,1300
873.095337,1305
873.212646,1322
873.329834,1317
873.44696,1308
873.564209,1339
873.681396,1320
873.798645,1331
873.915894,1290
874.03302,1335
874.150208,1339
874.267456,1321
874.384583,1322
874.501831,1323
874.618958,1314
874.736145,1308
874.853333,1361
874.970459,1368
875.087646,1318
875.204834,1337
875.32196,1357
875.439148,1311
875.556274,1327
875.673401,1344
875.790527,1350
875.907715,1367
876.024841,1324
876.141968,1368
876.259094,1324
876.376282,1375
876.493347,1310
876.610474,1344
876.7276,1332
876.844727,1355
876.961853,1313
877.078918,1360
877.195984,1308
877.313171,1350
877.430237,1343
877.547302,1349
877.664368,1308
877.781433,1349
877.898499,1326
878.015625,1333
878.13269,1312
878.249695,1350
878.366821,1342
878.483887,1345
878.600952,1307
878.717957,1329
878.834961,1405
878.952087,1326
879.069092,1367
879.186157,1377
879.303162,1350
879.420227,1318
879.537231,1350
879.654236,1329
879.77124,1310
879.888306,1352
880.005249,1349
880.122314,1323
880.239319,1347
880.356323,1326
880.473328,1337
880.590271,1356
880.707275,1322
880.824341,1289
880.941284,1346
881.058228,1344
881.175232,1363
881.292236,1340
881.40918,1334
881.526123,1318
881.643066,1355
881.760071,1372
881.877014,1341
881.993958,1349
882.11084,1337
882.227783,1360
882.344727,1406
882.46167,1315
882.578613,1374
882.695618,1334
882.812439,1338
882.929382,1354
883.046326,1324
883.163208,1353
883.280151,1315
883.397034,1371
883.513916,1372
883.630798,1358
883.747742,1349
883.864563,1352
883.981506,1351
884.098389,1325
884.21521,1343
884.332153,1382
884.448975,1335
884.565796,1342
884.682678,1373
884.7995,1392
884.916443,1384
885.033264,1342
885.150085,1310
885.266968,1357
885.383789,1365
885.500671,1380
885.617493,1391
885.734314,1382
885.851196,1372
885.967896,1367
886.084717,1320
886.201599,1385
886.318359,1362
886.435181,1393
886.552002,1391
886.668762,1389
886.785645,1393
886.902344,1372
887.019165,1355
887.135925,1340
887.252747,1368
887.369446,1388
887.486267,1382
887.603027,1369
887.719788,1356
887.836548,1353
887.953247,1411
888.070068,1378
888.186829,1379
888.303528,1386
888.420288,1403
888.536987,1380
888.653687,1343
888.770447,1392
888.887146,1352
889.003967,1358
889.120667,1387
889.237305,1363
889.354065,1350
889.470703,1380
889.587463,1313
889.704163,1382
889.820862,1359
889.937561,1386
890.054199,1367
890.170837,1367
890.287598,1332
890.404236,1371
890.520874,1373
890.637634,1353
890.754211,1408
890.87085,1385
890.987549,1349
891.104187,1379
891.220886,1365
891.337463,1354
891.454102,1373
891.57074,1387
891.687378,1427
891.804077,1373
891.920654,1428
892.037231,1383
892.15387,1389
892.270447,1392
892.387085,1360
892.503723,1377
892.6203,1379
892.736877,1411
892.853516,1367
892.970032,1412
893.08667,1368
893.203186,1380
893.319763,1354
893.43634,1338
893.552917,1384
893.669556,1403
893.786011,1363
893.902588,1376
894.019165,1379
894.135681,1375
894.252197,1378
894.368835,1361
894.485291,1388
894.601868,1356
894.718384,1390
894.8349,1406
894.951355,1382
895.067932,1403
895.184448,1377
895.300964,1404
895.417419,1384
895.533936,1388
895.650452,1379
895.766907,1395
895.883423,1367
895.999878,1398
896.116333,1423
896.232849,1391
896.349304,1367
896.465759,1411
896.582214,1422
896.698669,1367
896.815125,1385
896.931641,1402
897.048035,1397
897.164551,1393
897.280884,1396
897.397339,1430
897.513794,1412
897.630249,1369
897.746582,1343
897.863098,1393
897.979431,1404
898.095886,1378
898.212341,1363
898.328674,1386
898.445129,1398
898.561462,1406
898.677795,1433
898.794312,1354
898.910645,1371
899.026978,1410
899.143433,1362
899.259766,1386
899.37616,1382
899.492493,1432
899.608765,1389
899.725159,1404
899.841553,1389
899.957947,1385
900.07428,1391
900.190552,1401
900.306946,1430
900.423157,1421
900.53949,1395
900.655884,1375
900.772156,1422
900.888489,1387
901.004822,1387
901.121033,1393
901.237366,1400
901.353699,1379
901.46991,1388
901.586304,1399
901.702515,1410
901.818787,1388
901.93512,1417
902.051331,1439
902.167603,1417
902.283875,1395
902.400085,1438
902.516418,1380
902.632629,1418
902.74884,1415
902.865112,1413
902.981384,1435
903.097595,1415
903.213867,1391
903.330017,1399
903.446289,1372
903.5625,1390
903.67865,1366
903.794922,1443
903.911072,1395
904.027344,1409
904.143494,1435
904.259705,1447
904.375916,1428
904.492065,1435
904.608215,1383
904.724426,1409
904.840576,1388
904.956726,1406
905.072876,1446
905.189087,1444
905.305176,1417
905.421387,1391
905.537537,1398
905.653687,1420
905.769775,1425
905.885925,1448
906.002014,1387
906.118164,1420
906.234314,1395
906.350403,1432
906.466492,1380
906.582642,1431
906.69873,1411
906.814758,1384
906.930908,1430
907.046936,1407
907.163086,1455
907.279175,1411
907.395264,1423
907.511353,1433
907.62738,1430
907.743408,1428
907.859497,1446
907.975525,1411
908.091553,1396
908.207703,1425
908.32373,1445
908.439758,1464
908.555786,1428
908.671814,1443
908.787842,1464
908.90387,1478
909.019775,1436
909.135864,1449
909.251892,1425
909.367859,1407
909.483826,1443
909.599854,1405
909.715881,1446
909.831848,1371
909.947815,1470
910.063782,1408
910.179749,1440
910.295776,1459
910.411743,1417
910.527649,1456
910.643616,1428
910.759583,1443
910.875488,1456
910.991455,1384
911.107361,1485
911.223267,1409
911.339294,1487
911.4552,1409
911.571106,1413
911.687073,1453
911.802979,1437
911.918823,1454
912.034729,1416
912.150635,1433
912.266602,1463
912.382446,1434
912.498352,1439
912.614197,1443
912.730103,1435
912.846008,1445
