792.44574,1563
792.56488,1553
792.68396,1574
792.80304,1543
792.92218,1486
793.041199,1508
793.160339,1520
793.279419,1516
793.398499,1530
793.517578,1473
793.636658,1477
793.755737,1537
793.874817,1469
793.993896,1504
794.112976,1468
794.232056,1477
794.351074,1476
794.470215,1511
794.589233,1487
794.708313,1493
794.827393,1463
794.946411,1467
795.065552,1441
795.18457,1455
795.303589,1470
795.422668,1480
795.541687,1444
795.660767,1493
795.779846,1448
795.898865,1453
796.017883,1452
796.136963,1462
796.255981,1451
796.375061,1459
796.49408,1408
796.613037,1482
796.732117,1479
796.851135,1432
796.970154,1450
797.089233,1445
797.208191,1441
797.327271,1410
797.446228,1420
797.565186,1403
797.684265,1455
797.803223,1432
797.922241,1417
798.04126,1480
798.160278,1461
798.279297,1445
798.398315,1399
798.517273,1422
798.636292,1411
798.75531,1454
798.874268,1425
798.993286,1439
799.112244,1398
799.231323,1435
799.350281,1368
799.469238,1463
799.588257,1387
799.707153,1453
799.826111,1425
799.945129,1446
800.064087,1429
800.183044,1408
800.302063,1429
800.421021,1478
800.539978,1440
800.658936,1448
800.777893,1401
800.896912,1416
801.015747,1405
801.134705,1377
801.253723,1421
801.37262,1449
801.491638,1412
801.610535,1415
801.729492,1412
801.84845,1436
801.967407,1374
802.086243,1416
802.205261,1398
802.324158,1391
802.443115,1400
802.562073,1402
802.680969,1391
802.799927,1383
802.918762,1391
803.037659,1403
803.156677,1364
803.275574,1385
803.39447,1391
803.513428,1392
803.632263,1399
803.751221,1435
803.870117,1379
803.989014,1396
804.107971,1394
804.226746,1419
804.345642,1391
804.4646,1434
804.583496,1397
804.702393,1405
804.821228,1417
804.940125,1416
805.059021,1421
805.177917,1376
805.296814,1383
805.415649,1419
805.534546,1373
805.653442,1412
805.772278,1420
805.891113,1415
806.01001,1392
806.128906,1414
806.247742,1385
806.366577,1378
806.485413,1428
806.604309,1382
806.723145,1418
806.84198,1415
806.960876,1352
807.079712,1439
807.198486,1399
807.317383,1456
807.436218,1373
807.554993,1389
807.673889,1423
807.792725,1387
807.91156,1388
808.030396,1423
808.14917,1393
808.268005,1410
808.386841,1405
808.505676,1380
808.624451,1366
808.743286,1358
808.862122,1398
808.980896,1381
809.099731,1366
809.218506,1427
809.337341,1422
809.456116,1375
809.57489,1414
809.693726,1359
809.8125,1387
809.931274,1395
810.050049,1441
810.168884,1419
810.287659,1356
810.406372,1403
810.525269,1400
810.643982,1414
810.762756,1413
810.881531,1428
811.000305,1340
811.11908,1367
811.237854,1374
811.356567,1396
811.475403,1399
811.594116,1342
811.71283,1393
811.831604,1395
811.950378,1368
812.069153,1386
812.187927,1363
812.30658,1396
812.425415,1355
812.544128,1371
812.662781,1387
812.781616,1403
812.900269,1412
813.019043,1341
813.137756,1369
813.256531,1383
813.375244,1363
813.493896,1440
813.612671,1423
813.731384,1358
813.850037,1377
813.96875,1384
814.087524,1365
814.206238,1348
814.324951,1361
814.443604,1329
814.562256,1376
814.68103,1347
814.799683,1371
814.918335,1367
815.037109,1353
815.155762,1377
815.274475,1358
815.393188,1332
815.511841,1364
815.630554,1345
815.749146,1366
815.867859,1333
815.986572,1351
816.105164,1370
816.223877,1351
816.342529,1348
816.461182,1384
816.579895,1373
816.698486,1363
816.817139,1367
816.935791,1381
817.054504,1371
817.173096,1364
817.291748,1372
817.4104,1377
817.529053,1311
817.647644,1326
817.766235,1381
817.884949,1336
818.00354,1326
818.122192,1356
818.240845,1328
818.359436,1352
818.478088,1355
818.59668,1339
818.715271,1339
818.833923,1347
818.952515,1298
819.071106,1319
819.189758,1327
819.30835,1311
819.426941,1335
819.545532,1346
819.664124,1342
819.782715,1315
819.901306,1339
820.019897,1306
820.138489,1333
820.25708,1315
820.375671,1371
820.494202,1318
820.612732,1292
820.731384,1375
820.849915,1291
820.968506,1326
821.087097,1320
821.205627,1321
821.324158,1333
821.442749,1312
821.561279,1273
821.679871,1274
821.798401,1368
821.916931,1316
822.035461,1305
822.154053,1332
822.272583,1313
822.391174,1323
822.509583,1315
822.628174,1295
822.746704,1322
822.865234,1319
822.983765,1322
823.102295,1296
823.220825,1257
823.339294,1301
823.457825,1285
823.576355,1300
823.694824,1297
823.813354,1337
823.931885,1296
824.050354,1302
824.168884,1296
824.287354,1317
824.405823,1289
824.524353,1311
824.642822,1256
824.761353,1276
824.879822,1306
824.998291,1309
825.116699,1312
825.235291,1291
825.353699,1298
825.472168,1254
825.590637,1332
825.709106,1275
825.827576,1290
825.946045,1281
826.064453,1268
826.182983,1298
826.301392,1256
826.4198,1268
826.53833,1287
826.656738,1326
826.775208,1263
826.893677,1300
827.012024,1270
827.130493,1299
827.248962,1303
827.36731,1306
827.485779,1300
827.604248,1297
827.722595,1227
827.841064,1239
827.959412,1240
828.077942,1285
828.196289,1280
828.314636,1265
828.433105,1287
828.551514,1254
828.669861,1260
828.78833,1275
828.906677,1281
829.025085,1263
829.143433,1255
829.261841,1295
829.38031,1299
829.498657,1282
829.617004,1295
829.735413,1288
829.85376,1264
829.972107,1266
830.090515,1280
830.208862,1245
830.327209,1282
830.445557,1273
830.563904,1287
830.682312,1300
830.800659,1266
830.919006,1279
831.037354,1295
831.155701,1302
831.274048,1261
831.392395,1255
831.51062,1267
831.629028,1261
831.747314,1266
831.865662,1275
831.984009,1295
832.102356,1314
832.220642,1288
832.338928,1279
832.457275,1270
832.575623,1262
832.693909,1238
832.812134,1265
832.930481,1231
833.048828,1300
833.167114,1278
833.2854,1300
833.403687,1260
833.521973,1285
833.640259,1268
833.758545,1269
833.876831,1247
833.995056,1261
834.113281,1272
834.231628,1285
834.349915,1229
834.468201,1284
834.586426,1281
834.704651,1265
834.822998,1233
834.941162,1238
835.059448,1283
835.177673,1257
835.295959,1258
835.414246,1283
835.53241,1285
835.650635,1232
835.768921,1254
835.887146,1248
836.005371,1270
836.123596,1304
836.241821,1235
836.360046,1264
836.478271,1273
836.596497,1254
836.714722,1264
836.832886,1273
836.95105,1267
837.069336,1271
837.1875,1269
837.305725,1240
837.423889,1239
837.542053,1261
837.660339,1251
837.778503,1268
837.896667,1287
838.014832,1254
838.132996,1281
838.25116,1280
838.369385,1254
838.487488,1249
838.605713,1265
838.723877,1266
838.84198,1251
838.960205,1267
839.078308,1271
839.196472,1216
839.314636,1233
839.4328,1223
839.550964,1270
839.669067,1237
839.787231,1286
839.905396,1275
840.023499,1258
840.141602,1263
840.259766,1258
840.377869,1269
840.495972,1261
840.614136,1280
840.732239,1259
840.850342,1273
840.968445,1242
841.086548,1259
841.204651,1238
841.322754,1245
841.440918,1264
841.55896,1285
841.677002,1257
841.795166,1214
841.913208,1283
842.031311,1247
842.149353,1226
842.267456,1236
842.385498,1319
842.503601,1225
842.621643,1242
842.739746,1271
842.857788,1295
842.97583,1235
843.093933,1234
843.211975,1257
843.330017,1263
843.44812,1262
843.566101,1256
843.684204,1267
843.802246,1254
843.920227,1240
844.038269,1216
844.156311,1233
844.274292,1270
844.392395,1234
844.510376,1261
844.628357,1267
844.74646,1228
844.864441,1236
844.982422,1250
845.100403,1243
845.218384,1241
845.336426,1229
845.454468,1239
845.572449,1229
845.69043,1254
845.808411,1241
845.926453,1252
846.044373,1259
846.162354,1236
846.280396,1242
846.398315,1228
846.516296,1237
846.634216,1296
846.752197,1219
846.870178,1276
846.988098,1253
847.106079,1240
847.22406,1292
847.34198,1263
847.4599,1271
847.577881,1232
847.695801,1241
847.813782,1219
847.931641,1232
848.049561,1291
848.167603,1235
848.285461,1235
848.403381,1227
848.521362,1202
848.639221,1253
848.75708,1248
848.875,1286
848.99292,1269
849.110901,1247
849.22876,1242
849.34668,1276
849.464539,1249
849.582458,1260
849.700317,1254
849.818176,1265
849.936096,1253
850.053955,1240
850.171875,1254
850.289673,1237
850.407593,1226
850.525452,1248
850.643311,1280
850.761169,1209
850.878967,1221
850.996887,1280
851.114746,1250
851.232544,1256
851.350403,1252
851.468262,1220
851.58606,1245
851.703979,1269
851.821777,1275
851.939636,1257
852.057434,1261
852.175232,1232
852.293091,1272
852.410889,1231
852.528687,1262
852.646545,1279
852.764343,1275
852.88208,1222
852.999939,1326
853.117676,1256
853.235535,1227
853.353271,1277
853.471069,1244
853.588928,1239
853.706604,1261
853.824402,1232
853.9422,1238
854.059998,1245
854.177734,1212
854.295532,1252
854.413269,1287
854.531006,1220
854.648804,1261
854.766541,1273
854.884277,1256
855.002014,1244
855.119751,1275
855.237549,1247
855.355225,1231
855.473022,1255
855.590698,1276
855.708435,1269
855.826172,1238
855.943848,1253
856.061646,1278
856.179321,1256
856.296997,1223
856.414795,1259
856.53241,1266
856.650085,1241
856.767822,1267
856.885559,1238
857.003174,1315
857.120911,1249
857.238586,1252
857.356201,1254
857.473938,1268
857.591614,1231
857.709351,1275
857.826965,1260
857.944641,1224
858.062317,1260
858.179993,1224
858.297668,1243
858.415283,1282
858.532959,1226
858.650574,1265
858.768188,1262
858.885803,1280
859.003479,1251
859.121094,1271
859.23877,1249
859.356384,1273
859.473999,1278
859.591675,1270
859.709229,1320
859.826843,1242
859.944458,1277
860.062012,1260
860.179626,1293
860.297302,1237
860.414856,1267
860.532471,1288
860.650024,1254
860.767639,1265
860.885193,1273
861.002808,1247
861.120361,1275
861.237976,1278
861.35553,1273
861.473022,1273
861.590698,1241
861.708191,1277
861.825745,1239
861.943298,1321
862.060852,1237
862.178406,1242
862.295959,1233
862.413513,1260
862.531006,1228
862.64856,1270
862.766113,1239
862.883667,1288
863.00116,1276
863.118713,1248
863.236206,1247
863.353699,1274
863.471252,1315
863.588745,1250
863.706177,1258
863.82373,1251
863.941162,1229
864.058716,1281
864.176208,1255
864.29364,1287
864.411194,1298
864.528687,1296
864.646118,1268
864.763611,1233
864.881042,1291
864.998535,1272
865.116028,1270
865.233459,1240
865.350891,1259
865.468384,1269
865.585754,1255
865.703308,1242
865.820679,1254
865.938171,1291
866.055542,1274
866.173035,1276
866.290466,1279
866.407837,1264
866.52533,1275
866.6427,1264
866.760071,1292
866.877563,1242
866.994934,1267
867.112305,1243
867.229736,1237
867.347107,1271
867.464539,1289
867.58197,1289
867.699341,1252
867.81665,1274
867.934082,1260
868.051453,1271
868.168823,1269
868.286194,1233
868.403564,1260
868.520935,1280
868.638306,1290
868.755676,1270
868.872986,1258
868.990295,1270
869.107727,1274
869.225037,1267
869.342346,1279
869.459717,1260
869.577026,1261
869.694336,1281
869.811707,1250
869.929016,1265
870.046326,1237
870.163635,1271
870.280945,1288
870.398254,1252
870.515564,1266
870.632812,1266
870.750183,1297
870.867432,1254
870.984741,1303
871.102051,1278
871.219299,1251
871.336609,1278
871.453918,1287
871.571106,1287
871.688416,1260
871.805664,1259
871.922852,1274
872.040222,1258
872.157471,1239
872.274719,1282
872.391968,1302
872.509155,1256
872.626465,1257
872.743652,1278
872.860962,1316
872.978149,1261
873.095337,1276
873.212646,1294
873.329834,1235
873.44696,1280
873.564209,1283
873.681396,1253
873.798645,1295
873.915894,1310
874.03302,1289
874.150208,1265
874.267456,1283
874.384583,1251
874.501831,1257
874.618958,1291
874.736145,1287
874.853333,1302
874.970459,1265
875.087646,1271
875.204834,1292
875.32196,1274
875.439148,1304
875.556274,1257
875.673401,1280
875.790527,1277
875.907715,1275
876.024841,1289
876.141968,1266
876.259094,1257
876.376282,1241
876.493347,1287
876.610474,1226
876.7276,1311
876.844727,1263
876.961853,1306
877.078918,1298
877.195984,1315
877.313171,1298
877.430237,1277
877.547302,1272
877.664368,1301
877.781433,1287
877.898499,1309
878.015625,1279
878.13269,1298
878.249695,1311
878.366821,1300
878.483887,1250
878.600952,1272
878.717957,1285
878.834961,1274
878.952087,1280
879.069092,1325
879.186157,1308
879.303162,1252
879.420227,1296
879.537231,1296
879.654236,1290
879.77124,1257
879.888306,1298
880.005249,1302
880.122314,1308
880.239319,1251
880.356323,1296
880.473328,1271
880.590271,1283
880.707275,1288
880.824341,1278
880.941284,1253
881.058228,1281
881.175232,1294
881.292236,1261
881.40918,1286
881.526123,1296
881.643066,1234
881.760071,1268
881.877014,1316
881.993958,1269
882.11084,1283
882.227783,1286
882.344727,1283
882.46167,1309
882.578613,1282
882.695618,1276
882.812439,1304
882.929382,1267
883.046326,1252
883.163208,1253
883.280151,1295
883.397034,1310
883.513916,1274
883.630798,1276
883.747742,1282
883.864563,1281
883.981506,1271
884.098389,1310
884.21521,1292
884.332153,1347
884.448975,1234
884.565796,1297
884.682678,1272
884.7995,1310
884.916443,1300
885.033264,1277
885.150085,1304
885.266968,1302
885.383789,1296
885.500671,1283
885.617493,1300
885.734314,1302
885.851196,1310
885.967896,1301
886.084717,1297
886.201599,1280
886.318359,1271
886.435181,1292
886.552002,1294
886.668762,1351
886.785645,1277
886.902344,1311
887.019165,1301
887.135925,1268
887.252747,1271
887.369446,1284
887.486267,1290
887.603027,1263
887.719788,1312
887.836548,1313
887.953247,1320
888.070068,1309
888.186829,1339
888.303528,1299
888.420288,1307
888.536987,1302
888.653687,1297
888.770447,1305
888.887146,1276
889.003967,1355
889.120667,1295
889.237305,1350
889.354065,1299
889.470703,1315
889.587463,1328
889.704163,1296
889.820862,1310
889.937561,1329
890.054199,1308
890.170837,1329
890.287598,1306
890.404236,1303
890.520874,1314
890.637634,1301
890.754211,1348
890.87085,1292
890.987549,1308
891.104187,1319
891.220886,1322
891.337463,1280
891.454102,1324
891.57074,1324
891.687378,1325
891.804077,1308
891.920654,1327
892.037231,1288
892.15387,1378
892.270447,1330
892.387085,1321
892.503723,1316
892.6203,1300
892.736877,1335
892.853516,1286
892.970032,1294
893.08667,1316
893.203186,1306
893.319763,1302
893.43634,1324
893.552917,1355
893.669556,1319
893.786011,1346
893.902588,1334
894.019165,1346
894.135681,1346
894.252197,1303
894.368835,1327
894.485291,1308
894.601868,1337
894.718384,1339
894.8349,1325
894.951355,1322
895.067932,1325
895.184448,1290
895.300964,1327
895.417419,1310
895.533936,1346
895.650452,1322
895.766907,1289
895.883423,1346
895.999878,1331
896.116333,1351
896.232849,1325
896.349304,1334
896.465759,1317
896.582214,1353
896.698669,1317
896.815125,1325
896.931641,1369
897.048035,1349
897.164551,1337
897.280884,1357
897.397339,1298
897.513794,1344
897.630249,1324
897.746582,1345
897.863098,1328
897.979431,1325
898.095886,1318
898.212341,1341
898.328674,1317
898.445129,1347
898.561462,1351
898.677795,1346
898.794312,1352
898.910645,1344
899.026978,1317
899.143433,1337
899.259766,1309
899.37616,1302
899.492493,1316
899.608765,1342
899.725159,1343
899.841553,1335
899.957947,1349
900.07428,1371
900.190552,1344
900.306946,1315
900.423157,1328
900.53949,1335
900.655884,1331
900.772156,1361
900.888489,1352
901.004822,1328
901.121033,1309
901.237366,1346
901.353699,1315
901.46991,1358
901.586304,1356
901.702515,1310
901.818787,1362
901.93512,1339
902.051331,1373
902.167603,1348
902.283875,1349
902.400085,1348
902.516418,1375
902.632629,1380
902.74884,1320
902.865112,1407
902.981384,1326
903.097595,1371
903.213867,1333
903.330017,1356
903.446289,1343
903.5625,1355
903.67865,1348
903.794922,1341
903.911072,1339
904.027344,1357
904.143494,1368
904.259705,1349
904.375916,1365
904.492065,1317
904.608215,1362
904.724426,1319
904.840576,1369
904.956726,1361
905.072876,1369
905.189087,1368
905.305176,1380
905.421387,1347
905.537537,1364
905.653687,1365
905.769775,1392
905.885925,1336
906.002014,1367
906.118164,1371
906.234314,1378
906.350403,1356
906.466492,1338
906.582642,1378
906.69873,1373
906.814758,1356
906.930908,1342
907.046936,1358
907.163086,1375
907.279175,1348
907.395264,1320
907.511353,1399
907.62738,1345
907.743408,1402
907.859497,1342
907.975525,1374
908.091553,1339
908.207703,1327
908.32373,1317
908.439758,1363
908.555786,1400
908.671814,1374
908.787842,1334
908.90387,1377
909.019775,1360
909.135864,1348
909.251892,1361
909.367859,1382
909.483826,1367
909.599854,1353
909.715881,1375
909.831848,1380
909.947815,1349
910.063782,1344
910.179749,1358
910.295776,1362
910.411743,1401
910.527649,1384
910.643616,1409
910.759583,1378
910.875488,1386
910.991455,1409
911.107361,1346
911.223267,1385
911.339294,1376
911.4552,1401
911.571106,1361
911.687073,1377
911.802979,1391
911.918823,1329
912.034729,1377
912.150635,1358
912.266602,1360
912.382446,1352
912.498352,1323
912.614197,1445
912.730103,1367
912.846008,1379
792.44574,1554
792.56488,1613
792.68396,1647
792.80304,1592
792.92218,1558
793.041199,1523
793.160339,1528
793.279419,1558
793.398499,1572
793.517578,1530
793.636658,1502
793.755737,1509
793.874817,1556
793.993896,1530
794.112976,1505
794.232056,1522
794.351074,1507
794.470215,1503
794.589233,1481
794.708313,1517
794.827393,1512
794.946411,1496
795.065552,1484
795.18457,1495
795.303589,1527
795.422668,1494
795.541687,1512
795.660767,1528
795.779846,1455
795.898865,1492
796.017883,1481
796.136963,1452
796.255981,1505
796.375061,1496
796.49408,1498
796.613037,1511
796.732117,1488
796.851135,1489
796.970154,1486
797.089233,1487
797.208191,1536
797.327271,1443
797.446228,1498
797.565186,1470
797.684265,1479
797.803223,1484
797.922241,1480
798.04126,1457
798.160278,1482
798.279297,1469
798.398315,1466
798.517273,1479
798.636292,1463
798.75531,1460
798.874268,1455
798.993286,1457
799.112244,1499
799.231323,1459
799.350281,1502
799.469238,1473
799.588257,1476
799.707153,1464
799.826111,1449
799.945129,1459
800.064087,1516
800.183044,1428
800.302063,1427
800.421021,1453
800.539978,1449
800.658936,1491
800.777893,1403
800.896912,1464
801.015747,1472
801.134705,1487
801.253723,1476
801.37262,1429
801.491638,1427
801.610535,1443
801.729492,1478
801.84845,1406
801.967407,1437
802.086243,1440
802.205261,1447
802.324158,1474
802.443115,1434
802.562073,1454
802.680969,1448
802.799927,1451
802.918762,1438
803.037659,1408
803.156677,1452
803.275574,1444
803.39447,1471
803.513428,1440
803.632263,1492
803.751221,1387
803.870117,1473
803.989014,1458
804.107971,1432
804.226746,1437
804.345642,1438
804.4646,1469
804.583496,1446
804.702393,1389
804.821228,1483
804.940125,1435
805.059021,1433
805.177917,1436
805.296814,1428
805.415649,1392
805.534546,1432
805.653442,1423
805.772278,1464
805.891113,1399
806.01001,1483
806.128906,1424
806.247742,1452
806.366577,1449
806.485413,1443
806.604309,1466
806.723145,1419
806.84198,1389
806.960876,1386
807.079712,1453
807.198486,1394
807.317383,1396
807.436218,1452
807.554993,1408
807.673889,1418
807.792725,1459
807.91156,1403
808.030396,1466
808.14917,1460
808.268005,1413
808.386841,1443
808.505676,1415
808.624451,1419
808.743286,1425
808.862122,1396
808.980896,1420
809.099731,1399
809.218506,1380
809.337341,1430
809.456116,1383
809.57489,1429
809.693726,1461
809.8125,1406
809.931274,1400
810.050049,1401
810.168884,1408
810.287659,1406
810.406372,1373
810.525269,1411
810.643982,1355
810.762756,1424
810.881531,1449
811.000305,1454
811.11908,1432
811.237854,1403
811.356567,1386
811.475403,1442
811.594116,1392
811.71283,1414
811.831604,1427
811.950378,1434
812.069153,1404
812.187927,1398
812.30658,1396
812.425415,1421
812.544128,1390
812.662781,1426
812.781616,1432
812.900269,3645
813.019043,3348
813.137756,1383
813.256531,1416
813.375244,1351
813.493896,1427
813.612671,1386
813.731384,1407
813.850037,1410
813.96875,1421
814.087524,1385
814.206238,1392
814.324951,1414
814.443604,1385
814.562256,1434
814.68103,1390
814.799683,1393
814.918335,1428
815.037109,1373
815.155762,1422
815.274475,1389
815.393188,1397
815.511841,1414
815.630554,1374
815.749146,1392
815.867859,1423
815.986572,1358
816.105164,1424
816.223877,1367
816.342529,1393
816.461182,1425
816.579895,1367
816.698486,1409
816.817139,1463
816.935791,1396
817.054504,1384
817.173096,1397
817.291748,1373
817.4104,1370
817.529053,1399
817.647644,1428
817.766235,1379
817.884949,1398
818.00354,1360
818.122192,1399
818.240845,1407
818.359436,1356
818.478088,1396
818.59668,1439
818.715271,1364
818.833923,1421
818.952515,1400
819.071106,1363
819.189758,1348
819.30835,1369
819.426941,1360
819.545532,1344
819.664124,1350
819.782715,1393
819.901306,1328
820.019897,1366
820.138489,1327
820.25708,1350
820.375671,1325
820.494202,1344
820.612732,1334
820.731384,1331
820.849915,1318
820.968506,1374
821.087097,1375
821.205627,1335
821.324158,1331
821.442749,1370
821.561279,1347
821.679871,1321
821.798401,1358
821.916931,1350
822.035461,1353
822.154053,1392
822.272583,1341
822.391174,1314
822.509583,1332
822.628174,1328
822.746704,1375
822.865234,1330
822.983765,1330
823.102295,1334
823.220825,1352
823.339294,1327
823.457825,1358
823.576355,1294
823.694824,1291
823.813354,1347
823.931885,1320
824.050354,1315
824.168884,1352
824.287354,1333
824.405823,1336
824.524353,1304
824.642822,1354
824.761353,1324
824.879822,1354
824.998291,1302
825.116699,1298
825.235291,1356
825.353699,1334
825.472168,1335
825.590637,1296
825.709106,1275
825.827576,1323
825.946045,1312
826.064453,1321
826.182983,1312
826.301392,1305
826.4198,1351
826.53833,1350
826.656738,1322
826.775208,1351
826.893677,1326
827.012024,1288
827.130493,1306
827.248962,1311
827.36731,1324
827.485779,1344
827.604248,1349
827.722595,1314
827.841064,1315
827.959412,1309
828.077942,1310
828.196289,1311
828.314636,1306
828.433105,1316
828.551514,1294
828.669861,1356
828.78833,1285
828.906677,1298
829.025085,1302
829.143433,1306
829.261841,1282
829.38031,1314
829.498657,1277
829.617004,1328
829.735413,1306
829.85376,1288
829.972107,1301
830.090515,1291
830.208862,1301
830.327209,1287
830.445557,1304
830.563904,1301
830.682312,1264
830.800659,1276
830.919006,1325
831.037354,1284
831.155701,1310
831.274048,1281
831.392395,1254
831.51062,1292
831.629028,1310
831.747314,1290
831.865662,1272
831.984009,1329
832.102356,1293
832.220642,1282
832.338928,1360
832.457275,1279
832.575623,1283
832.693909,1258
832.812134,1319
832.930481,1307
833.048828,1300
833.167114,1325
833.2854,1285
833.403687,1297
833.521973,1313
833.640259,1281
833.758545,1299
833.876831,1281
833.995056,1294
834.113281,1304
834.231628,1304
834.349915,1282
834.468201,1270
834.586426,1285
834.704651,1279
834.822998,1292
834.941162,1297
835.059448,1306
835.177673,1334
835.295959,1271
835.414246,1286
835.53241,1285
835.650635,1302
835.768921,1282
835.887146,1297
836.005371,1313
836.123596,1350
836.241821,1291
836.360046,1305
836.478271,1285
836.596497,1296
836.714722,1289
836.832886,1262
836.95105,1289
837.069336,1308
837.1875,1236
837.305725,1278
837.423889,1282
837.542053,1291
837.660339,1302
837.778503,1275
837.896667,1294
838.014832,1261
838.132996,1289
838.25116,1301
838.369385,1262
838.487488,1302
838.605713,1257
838.723877,1314
838.84198,1277
838.960205,1298
839.078308,1264
839.196472,1280
839.314636,1303
839.4328,1278
839.550964,1274
839.669067,1291
839.787231,1269
839.905396,1280
840.023499,1278
840.141602,1284
840.259766,1275
840.377869,1290
840.495972,1269
840.614136,1287
840.732239,1309
840.850342,1234
840.968445,1281
841.086548,1259
841.204651,1303
841.322754,1299
841.440918,1258
841.55896,1275
841.677002,1284
841.795166,1293
841.913208,1244
842.031311,1295
842.149353,1304
842.267456,1298
842.385498,1255
842.503601,1293
842.621643,1293
842.739746,1249
842.857788,1291
842.97583,1287
843.093933,1299
843.211975,1296
843.330017,1311
843.44812,1296
843.566101,1282
843.684204,1268
843.802246,1267
843.920227,1291
844.038269,1295
844.156311,1331
844.274292,1253
844.392395,1295
844.510376,1296
844.628357,1258
844.74646,1259
844.864441,1270
844.982422,1281
845.100403,1270
845.218384,1281
845.336426,1240
845.454468,1298
845.572449,1307
845.69043,1205
845.808411,1232
845.926453,1265
846.044373,1289
846.162354,1284
846.280396,1287
846.398315,1241
846.516296,1274
846.634216,1260
846.752197,1249
846.870178,1253
846.988098,1256
847.106079,1307
847.22406,1280
847.34198,1264
847.4599,1285
847.577881,1238
847.695801,1255
847.813782,1272
847.931641,1292
848.049561,1270
848.167603,1259
848.285461,1250
848.403381,1319
848.521362,1247
848.639221,1282
848.75708,1261
848.875,1290
848.99292,1252
849.110901,1276
849.22876,1287
849.34668,1272
849.464539,1247
849.582458,1257
849.700317,1264
849.818176,1272
849.936096,1266
850.053955,1270
850.171875,1296
850.289673,1272
850.407593,1230
850.525452,1238
850.643311,1237
850.761169,1253
850.878967,1312
850.996887,1299
851.114746,1266
851.232544,1317
851.350403,1296
851.468262,1256
851.58606,1283
851.703979,1274
851.821777,1262
851.939636,1318
852.057434,1250
852.175232,1282
852.293091,1301
852.410889,1281
852.528687,1286
852.646545,1318
852.764343,1283
852.88208,1272
852.999939,1266
853.117676,1290
853.235535,1253
853.353271,1267
853.471069,1299
853.588928,1262
853.706604,1246
853.824402,1308
853.9422,1289
854.059998,1296
854.177734,1251
854.295532,1279
854.413269,1303
854.531006,1258
854.648804,1298
854.766541,1308
854.884277,1263
855.002014,1300
855.119751,1281
855.237549,1281
855.355225,1274
855.473022,1266
855.590698,1306
855.708435,1278
855.826172,1240
855.943848,1247
856.061646,1277
856.179321,1295
856.296997,1279
856.414795,1270
856.53241,1295
856.650085,1273
856.767822,1306
856.885559,1269
857.003174,1301
857.120911,1290
857.238586,1293
857.356201,1289
857.473938,1315
857.591614,1288
857.709351,1293
857.826965,1279
857.944641,1292
858.062317,1302
858.179993,1278
858.297668,1267
858.415283,1309
858.532959,1267
858.650574,1282
858.768188,1282
858.885803,1277
859.003479,1277
859.121094,1251
859.23877,1308
859.356384,1266
859.473999,1281
859.591675,1326
859.709229,1284
859.826843,1290
859.944458,1253
860.062012,1262
860.179626,1291
860.297302,1268
860.414856,1265
860.532471,1266
860.650024,1325
860.767639,1267
860.885193,1271
861.002808,1251
861.120361,1277
861.237976,1294
861.35553,1271
861.473022,1296
861.590698,1307
861.708191,1281
861.825745,1254
861.943298,1296
862.060852,1298
862.178406,1286
862.295959,1266
862.413513,1275
862.531006,1318
862.64856,1283
862.766113,1278
862.883667,1316
863.00116,1293
863.118713,1283
863.236206,1279
863.353699,1259
863.471252,1269
863.588745,1306
863.706177,1271
863.82373,1280
863.941162,1271
864.058716,1262
864.176208,1307
864.29364,1272
864.411194,1291
864.528687,1297
864.646118,1299
864.763611,1246
864.881042,1320
864.998535,1307
865.116028,1264
865.233459,1299
865.350891,1278
865.468384,1289
865.585754,1324
865.703308,1277
865.820679,1255
865.938171,1311
866.055542,1293
866.173035,1267
866.290466,1326
866.407837,1308
866.52533,1326
866.6427,1293
866.760071,1301
866.877563,1301
866.994934,1277
867.112305,1357
867.229736,1327
867.347107,1286
867.464539,1291
867.58197,1318
867.699341,1293
867.81665,1314
867.934082,1303
868.051453,1268
868.168823,1329
868.286194,1301
868.403564,1259
868.520935,1281
868.638306,1309
868.755676,1314
868.872986,1268
868.990295,1318
869.107727,1314
869.225037,1305
869.342346,1315
869.459717,1333
869.577026,1329
869.694336,1334
869.811707,1268
869.929016,1302
870.046326,1336
870.163635,1281
870.280945,1342
870.398254,1309
870.515564,1284
870.632812,1275
870.750183,1296
870.867432,1279
870.984741,1273
871.102051,1299
871.219299,1281
871.336609,1297
871.453918,1309
871.571106,1317
871.688416,1336
871.805664,1274
871.922852,1314
872.040222,1290
872.157471,1301
872.274719,1266
872.391968,1260
872.509155,1309
872.626465,1264
872.743652,1287
872.860962,1308
872.978149,1329
873.095337,1268
873.212646,1273
873.329834,1259
873.44696,1312
873.564209,1319
873.681396,1310
873.798645,1321
873.915894,1302
874.03302,1282
874.150208,1274
874.267456,1253
874.384583,1270
874.501831,1332
874.618958,1321
874.736145,1322
874.853333,1304
874.970459,1292
875.087646,1314
875.204834,1320
875.32196,1318
875.439148,1278
875.556274,1327
875.673401,1310
875.790527,1284
875.907715,1309
876.024841,1324
876.141968,1333
876.259094,1275
876.376282,1321
876.493347,1302
876.610474,1265
876.7276,1275
876.844727,1321
876.961853,1299
877.078918,1318
877.195984,1290
877.313171,1309
877.430237,1324
877.547302,1318
877.664368,1298
877.781433,1352
877.898499,1297
878.015625,1322
878.13269,1300
878.249695,1312
878.366821,1277
878.483887,1298
878.600952,1286
878.717957,1329
878.834961,1321
878.952087,1306
879.069092,1311
879.186157,1290
879.303162,1337
879.420227,1262
879.537231,1366
879.654236,1293
879.77124,1299
879.888306,1301
880.005249,1283
880.122314,1319
880.239319,1313
880.356323,1316
880.473328,1281
880.590271,1286
880.707275,1303
880.824341,1337
880.941284,1281
881.058228,1318
881.175232,1317
881.292236,1317
881.40918,1321
881.526123,1305
881.643066,1326
881.760071,1303
881.877014,1306
881.993958,1329
882.11084,1324
882.227783,1310
882.344727,1336
882.46167,1344
882.578613,1260
882.695618,1312
882.812439,1307
882.929382,1309
883.046326,1299
883.163208,1343
883.280151,1339
883.397034,1275
883.513916,1330
883.630798,1328
883.747742,1307
883.864563,1355
883.981506,1301
884.098389,1289
884.21521,1300
884.332153,1311
884.448975,1313
884.565796,1327
884.682678,1347
884.7995,1341
884.916443,1311
885.033264,1381
885.150085,1307
885.266968,1332
885.383789,1329
885.500671,1329
885.617493,1351
885.734314,1346
885.851196,1307
885.967896,1343
886.084717,1341
886.201599,1348
886.318359,1345
886.435181,1332
886.552002,1337
886.668762,1313
886.785645,1341
886.902344,1327
887.019165,1355
887.135925,1284
887.252747,1346
887.369446,1349
887.486267,1339
887.603027,1261
887.719788,1341
887.836548,1316
887.953247,1310
888.070068,1335
888.186829,1320
888.303528,1316
888.420288,1316
888.536987,1315
888.653687,1339
888.770447,1353
888.887146,1379
889.003967,1306
889.120667,1335
889.237305,1388
889.354065,1368
889.470703,1338
889.587463,1311
889.704163,1396
889.820862,1337
889.937561,1323
890.054199,1298
890.170837,1324
890.287598,1365
890.404236,1328
890.520874,1351
890.637634,1332
890.754211,1362
890.87085,1311
890.987549,1333
891.104187,1332
891.220886,1341
891.337463,1290
891.454102,1365
891.57074,1347
891.687378,1369
891.804077,1342
891.920654,1332
892.037231,1360
892.15387,1319
892.270447,1342
892.387085,1365
892.503723,1381
892.6203,1336
892.736877,1303
892.853516,1343
892.970032,1382
893.08667,1333
893.203186,1367
893.319763,1333
893.43634,1382
893.552917,1371
893.669556,1367
893.786011,1356
893.902588,1331
894.019165,1390
894.135681,1348
894.252197,1354
894.368835,1375
894.485291,1344
894.601868,1358
894.718384,1362
894.8349,1361
894.951355,1382
895.067932,1388
895.184448,1370
895.300964,1359
895.417419,1350
895.533936,1326
895.650452,1355
895.766907,1339
895.883423,1423
895.999878,1344
896.116333,1353
896.232849,1371
896.349304,1324
896.465759,1373
896.582214,1303
896.698669,1374
896.815125,1348
896.931641,1378
897.048035,1354
897.164551,1368
897.280884,1370
897.397339,1368
897.513794,1363
897.630249,1359
897.746582,1374
897.863098,1417
897.979431,1349
898.095886,1384
898.212341,1351
898.328674,1376
898.445129,1397
898.561462,1409
898.677795,1368
898.794312,1345
898.910645,1353
899.026978,1384
899.143433,1372
899.259766,1364
899.37616,1387
899.492493,1359
899.608765,1332
899.725159,1413
899.841553,1379
899.957947,1351
900.07428,1382
900.190552,1412
900.306946,1393
900.423157,1316
900.53949,1411
900.655884,1396
900.772156,1389
900.888489,1370
901.004822,1376
901.121033,1342
901.237366,1418
901.353699,1377
901.46991,1383
901.586304,1366
901.702515,1365
901.818787,1393
901.93512,1385
902.051331,1371
902.167603,1407
902.283875,1419
902.400085,1394
902.516418,1382
902.632629,1392
902.74884,1405
902.865112,1350
902.981384,1390
903.097595,1363
903.213867,1385
903.330017,1402
903.446289,1389
903.5625,1384
903.67865,1421
903.794922,1376
903.911072,1388
904.027344,1423
904.143494,1397
904.259705,1378
904.375916,1411
904.492065,1391
904.608215,1389
904.724426,1404
904.840576,1359
904.956726,1379
905.072876,1367
905.189087,1375
905.305176,1388
905.421387,1411
905.537537,1394
905.653687,1404
905.769775,1368
905.885925,1404
906.002014,1362
906.118164,1385
906.234314,1399
906.350403,1373
906.466492,1403
906.582642,1391
906.69873,1387
906.814758,1389
906.930908,1398
907.046936,1404
907.163086,1414
907.279175,1405
907.395264,1415
907.511353,1438
907.62738,1393
907.743408,1368
907.859497,1415
907.975525,1359
908.091553,1438
908.207703,1347
908.32373,1442
908.439758,1384
908.555786,1417
908.671814,1411
908.787842,1377
908.90387,1411
909.019775,1384
909.135864,1423
909.251892,1433
909.367859,1367
909.483826,1371
909.599854,1417
909.715881,1419
909.831848,1434
909.947815,1390
910.063782,1414
910.179749,1389
910.295776,1389
910.411743,1420
910.527649,1381
910.643616,1385
910.759583,1408
910.875488,1395
910.991455,1406
911.107361,1396
911.223267,1439
911.339294,1427
911.4552,1403
911.571106,1399
911.687073,1412
911.802979,1388
911.918823,1388
912.034729,1420
912.150635,1407
912.266602,1415
912.382446,1439
912.498352,1417
912.614197,1391
912.730103,1396
912.846008,1382
792.44574,1626
792.56488,1628
792.68396,1640
792.80304,1579
792.92218,1606
793.041199,1590
793.160339,1502
793.279419,1615
793.398499,1539
793.517578,1560
793.636658,1507
793.755737,1569
793.874817,1539
793.993896,1559
794.112976,1549
794.232056,1487
794.351074,1514
794.470215,1539
794.589233,1522
794.708313,1518
794.827393,1505
794.946411,1510
795.065552,1527
795.18457,1487
795.303589,1489
795.422668,1524
795.541687,1546
795.660767,1504
795.779846,1527
795.898865,1481
796.017883,1514
796.136963,1528
796.255981,1474
796.375061,1539
796.49408,1516
796.613037,1511
796.732117,1520
796.851135,1469
796.970154,1466
797.089233,1519
797.208191,1490
797.327271,1484
797.446228,1473
797.565186,1442
797.684265,1481
797.803223,1489
797.922241,1457
798.04126,1498
798.160278,1462
798.279297,1503
798.398315,1438
798.517273,1438
798.636292,1475
798.75531,1526
798.874268,1457
798.993286,1450
799.112244,1490
799.231323,1459
799.350281,1449
799.469238,1470
799.588257,1463
799.707153,1465
799.826111,1449
799.945129,1509
800.064087,1480
800.183044,1449
800.302063,1474
800.421021,1477
800.539978,1450
800.658936,1456
800.777893,1463
800.896912,1490
801.015747,1482
801.134705,1436
801.253723,1416
801.37262,1497
801.491638,1436
801.610535,1470
801.729492,1441
801.84845,1460
801.967407,1433
802.086243,1462
802.205261,1470
802.324158,1479
802.443115,1490
802.562073,1460
802.680969,1471
802.799927,1457
802.918762,1430
803.037659,1457
803.156677,1454
803.275574,1475
803.39447,1453
803.513428,1462
803.632263,1452
803.751221,1413
803.870117,1437
803.989014,1455
804.107971,1398
804.226746,1434
804.345642,1463
804.4646,1481
804.583496,1483
804.702393,1443
804.821228,1442
804.940125,1460
805.059021,1482
805.177917,1427
805.296814,1482
805.415649,1463
805.534546,1467
805.653442,1436
805.772278,1486
805.891113,1445
806.01001,1492
806.128906,1432
806.247742,1443
806.366577,1436
806.485413,1463
806.604309,1456
806.723145,1439
806.84198,1446
806.960876,1437
807.079712,1473
807.198486,1452
807.317383,1421
807.436218,1433
807.554993,1421
807.673889,1418
807.792725,1449
807.91156,1419
808.030396,1412
808.14917,1434
808.268005,1444
808.386841,1412
808.505676,1404
808.624451,1420
808.743286,1430
808.862122,1425
808.980896,1456
809.099731,1428
809.218506,1453
809.337341,1437
809.456116,1418
809.57489,1418
809.693726,1417
809.8125,1401
809.931274,1422
810.050049,1457
810.168884,1414
810.287659,1434
810.406372,1405
810.525269,1445
810.643982,1421
810.762756,1457
810.881531,1446
811.000305,1410
811.11908,1402
811.237854,1436
811.356567,1434
811.475403,1445
811.594116,1411
811.71283,1433
811.831604,1414
811.950378,1435
812.069153,1436
812.187927,1388
812.30658,1419
812.425415,1408
812.544128,1397
812.662781,1447
812.781616,1411
812.900269,1454
813.019043,1414
813.137756,1379
813.256531,1431
813.375244,1404
813.493896,1449
813.612671,1397
813.731384,1393
813.850037,1421
813.96875,1440
814.087524,1449
814.206238,1427
814.324951,1409
814.443604,1400
814.562256,1430
814.68103,1385
814.799683,1421
814.918335,1448
815.037109,1419
815.155762,1364
815.274475,1432
815.393188,1391
815.511841,1400
815.630554,1401
815.749146,1391
815.867859,1390
815.986572,1417
816.105164,1403
816.223877,1410
816.342529,1422
816.461182,1389
816.579895,1393
816.698486,1361
816.817139,1417
816.935791,1374
817.054504,1368
817.173096,1391
817.291748,1384
817.4104,1432
817.529053,1408
817.647644,1410
817.766235,1423
817.884949,1380
818.00354,1404
818.122192,1388
818.240845,1339
818.359436,1363
818.478088,1386
818.59668,1368
818.715271,1373
818.833923,1368
818.952515,1386
819.071106,1336
819.189758,1396
819.30835,1327
819.426941,1365
819.545532,1361
819.664124,1365
819.782715,1345
819.901306,1381
820.019897,1362
820.138489,1376
820.25708,1365
820.375671,1384
820.494202,1355
820.612732,1324
820.731384,1358
820.849915,1336
820.968506,1380
821.087097,1378
821.205627,1377
821.324158,1340
821.442749,1326
821.561279,1365
821.679871,1365
821.798401,1361
821.916931,1334
822.035461,1368
822.154053,1320
822.272583,1355
822.391174,1324
822.509583,1345
822.628174,1385
822.746704,1364
822.865234,1310
822.983765,1373
823.102295,1345
823.220825,1341
823.339294,1351
823.457825,1314
823.576355,1316
823.694824,1323
823.813354,1335
823.931885,1368
824.050354,1364
824.168884,1349
824.287354,1346
824.405823,1333
824.524353,1327
824.642822,1330
824.761353,1349
824.879822,1340
824.998291,1330
825.116699,1342
825.235291,1320
825.353699,1345
825.472168,1299
825.590637,1350
825.709106,1348
825.827576,1348
825.946045,1279
826.064453,1349
826.182983,1319
826.301392,1314
826.4198,1331
826.53833,1360
826.656738,1353
826.775208,1336
826.893677,1330
827.012024,1315
827.130493,1311
827.248962,1284
827.36731,1314
827.485779,1315
827.604248,1359
827.722595,1305
827.841064,1291
827.959412,1324
828.077942,1302
828.196289,1336
828.314636,1350
828.433105,1275
828.551514,1298
828.669861,1352
828.78833,1336
828.906677,1338
829.025085,1322
829.143433,1296
829.261841,1293
829.38031,1335
829.498657,1334
829.617004,1320
829.735413,1319
829.85376,1337
829.972107,1308
830.090515,1335
830.208862,1331
830.327209,1304
830.445557,1278
830.563904,1286
830.682312,1328
830.800659,1287
830.919006,1300
831.037354,1311
831.155701,1300
831.274048,1316
831.392395,1306
831.51062,1268
831.629028,1295
831.747314,1291
831.865662,1289
831.984009,1308
832.102356,1327
832.220642,1305
832.338928,1304
832.457275,1294
832.575623,1305
832.693909,1317
832.812134,1279
832.930481,1307
833.048828,1271
833.167114,1291
833.2854,1296
833.403687,1292
833.521973,1318
833.640259,1312
833.758545,1321
833.876831,1307
833.995056,1293
834.113281,1277
834.231628,1302
834.349915,1284
834.468201,1340
834.586426,1317
834.704651,1290
834.822998,1342
834.941162,1288
835.059448,1304
835.177673,1296
835.295959,1264
835.414246,1328
835.53241,1275
835.650635,1302
835.768921,1296
835.887146,1296
836.005371,1281
836.123596,1288
836.241821,1290
836.360046,1293
836.478271,1281
836.596497,1315
836.714722,1315
836.832886,1296
836.95105,1274
837.069336,1298
837.1875,1266
837.305725,1296
837.423889,1302
837.542053,1321
837.660339,1285
837.778503,1295
837.896667,1312
838.014832,1289
838.132996,1303
838.25116,1311
838.369385,1305
838.487488,1352
838.605713,1279
838.723877,1272
838.84198,1297
838.960205,1292
839.078308,1283
839.196472,1281
839.314636,1281
839.4328,1335
839.550964,1288
839.669067,1285
839.787231,1319
839.905396,1276
840.023499,1287
840.141602,1295
840.259766,1296
840.377869,1317
840.495972,1297
840.614136,1268
840.732239,1310
840.850342,1278
840.968445,1280
841.086548,1293
841.204651,1275
841.322754,1271
841.440918,1269
841.55896,1251
841.677002,1279
841.795166,1294
841.913208,1314
842.031311,1297
842.149353,1275
842.267456,1285
842.385498,1333
842.503601,1290
842.621643,1234
842.739746,1333
842.857788,1279
842.97583,1295
843.093933,1323
843.211975,1321
843.330017,1289
843.44812,1281
843.566101,1293
843.684204,1237
843.802246,1296
843.920227,1253
844.038269,1285
844.156311,1299
844.274292,1281
844.392395,1296
844.510376,1307
844.628357,1253
844.74646,1277
844.864441,1282
844.982422,1283
845.100403,1291
845.218384,1264
845.336426,1293
845.454468,1281
845.572449,1277
845.69043,1262
845.808411,1257
845.926453,1288
846.044373,1278
846.162354,1252
846.280396,1283
846.398315,1253
846.516296,1270
846.634216,1281
846.752197,1310
846.870178,1272
846.988098,1289
847.106079,1302
847.22406,1250
847.34198,1279
847.4599,1267
847.577881,1291
847.695801,1246
847.813782,1264
847.931641,1290
848.049561,1332
848.167603,1257
848.285461,1267
848.403381,1287
848.521362,1258
848.639221,1294
848.75708,1242
848.875,1279
848.99292,1272
849.110901,1265
849.22876,1269
849.34668,1259
849.464539,1264
849.582458,1258
849.700317,1260
849.818176,1309
849.936096,1276
850.053955,1288
850.171875,1282
850.289673,1298
850.407593,1287
850.525452,1267
850.643311,1321
850.761169,1249
850.878967,1252
850.996887,1283
851.114746,1270
851.232544,1271
851.350403,1263
851.468262,1306
851.58606,1294
851.703979,1311
851.821777,1306
851.939636,1294
852.057434,1287
852.175232,1324
852.293091,1289
852.410889,1281
852.528687,1322
852.646545,1284
852.764343,1291
852.88208,1309
852.999939,1328
853.117676,1294
853.235535,1302
853.353271,1285
853.471069,1289
853.588928,1296
853.706604,1262
853.824402,1288
853.9422,1248
854.059998,1271
854.177734,1297
854.295532,1303
854.413269,1311
854.531006,1303
854.648804,1284
854.766541,1290
854.884277,1252
855.002014,1324
855.119751,1285
855.237549,1269
855.355225,1294
855.473022,1261
855.590698,1293
855.708435,1313
855.826172,1248
855.943848,1337
856.061646,1310
856.179321,1292
856.296997,1233
856.414795,1298
856.53241,1250
856.650085,1292
856.767822,1320
856.885559,1304
857.003174,1268
857.120911,1288
857.238586,1346
857.356201,1289
857.473938,1291
857.591614,1290
857.709351,1287
857.826965,1275
857.944641,1254
858.062317,1278
858.179993,1307
858.297668,1300
858.415283,1308
858.532959,1331
858.650574,1295
858.768188,1267
858.885803,1286
859.003479,1281
859.121094,1309
859.23877,1300
859.356384,1299
859.473999,1287
859.591675,1259
859.709229,1312
859.826843,1265
859.944458,1285
860.062012,1280
860.179626,1253
860.297302,1294
860.414856,1271
860.532471,1288
860.650024,1298
860.767639,1313
860.885193,1301
861.002808,1335
861.120361,1281
861.237976,1311
861.35553,1263
861.473022,1292
861.590698,1291
861.708191,1308
861.825745,1260
861.943298,1330
862.060852,1277
862.178406,1318
862.295959,1304
862.413513,1277
862.531006,1301
862.64856,1290
862.766113,1294
862.883667,1299
863.00116,1320
863.118713,1286
863.236206,1337
863.353699,1284
863.471252,1299
863.588745,1285
863.706177,1281
863.82373,1285
863.941162,1281
864.058716,1288
864.176208,1336
864.29364,1270
864.411194,1291
864.528687,1267
864.646118,1328
864.763611,1265
864.881042,1289
864.998535,1284
865.116028,1260
865.233459,1304
865.350891,1266
865.468384,1311
865.585754,1309
865.703308,1287
865.820679,1304
865.938171,1331
866.055542,1261
866.173035,1227
866.290466,1262
866.407837,1319
866.52533,1334
866.6427,1344
866.760071,1318
866.877563,1281
866.994934,1312
867.112305,1325
867.229736,1315
867.347107,1316
867.464539,1287
867.58197,1295
867.699341,1312
867.81665,1322
867.934082,1319
868.051453,1316
868.168823,1288
868.286194,1308
868.403564,1299
868.520935,1285
868.638306,1305
868.755676,1305
868.872986,1282
868.990295,1290
869.107727,1294
869.225037,1309
869.342346,1316
869.459717,1353
869.577026,1321
869.694336,1248
869.811707,1303
869.929016,1332
870.046326,1295
870.163635,1328
870.280945,1312
870.398254,1306
870.515564,1320
870.632812,1315
870.750183,1325
870.867432,1267
870.984741,1289
871.102051,1314
871.219299,1301
871.336609,1327
871.453918,1319
871.571106,1287
871.688416,1297
871.805664,1325
871.922852,1327
872.040222,1274
872.157471,1293
872.274719,1340
872.391968,1274
872.509155,1292
872.626465,1312
872.743652,1293
872.860962,1300
872.978149,1293
873.095337,1334
873.212646,1349
873.329834,1284
873.44696,1336
873.564209,1310
873.681396,1302
873.798645,1282
873.915894,1314
874.03302,1323
874.150208,1301
874.267456,1336
874.384583,1316
874.501831,1334
874.618958,1339
874.736145,1273
874.853333,1326
874.970459,1262
875.087646,1325
875.204834,1305
875.32196,1344
875.439148,1321
875.556274,1292
875.673401,1311
875.790527,1314
875.907715,1305
876.024841,1321
876.141968,1314
876.259094,1332
876.376282,1334
876.493347,1288
876.610474,1332
876.7276,1320
876.844727,1288
876.961853,1324
877.078918,1315
877.195984,1334
877.313171,1316
877.430237,1328
877.547302,1319
877.664368,1277
877.781433,1328
877.898499,1342
878.015625,1331
878.13269,1276
878.249695,1316
878.366821,1320
878.483887,1323
878.600952,1310
878.717957,1317
878.834961,1352
878.952087,1301
879.069092,1340
879.186157,1374
879.303162,1292
879.420227,1346
879.537231,1354
879.654236,1288
879.77124,1338
879.888306,1298
880.005249,1281
880.122314,1307
880.239319,1302
880.356323,1332
880.473328,1322
880.590271,1347
880.707275,1309
880.824341,1324
880.941284,1303
881.058228,1315
881.175232,1293
881.292236,1339
881.40918,1337
881.526123,1342
881.643066,1308
881.760071,1344
881.877014,1346
881.993958,1344
882.11084,1309
882.227783,1341
882.344727,1346
882.46167,1334
882.578613,1326
882.695618,1289
882.812439,1338
882.929382,1334
883.046326,1329
883.163208,1321
883.280151,1344
883.397034,1360
883.513916,1320
883.630798,1315
883.747742,1314
883.864563,1325
883.981506,1306
884.098389,1320
884.21521,1341
884.332153,1340
884.448975,1307
884.565796,1339
884.682678,1297
884.7995,1347
884.916443,1350
885.033264,1335
885.150085,1351
885.266968,1368
885.383789,1340
885.500671,1333
885.617493,1375
885.734314,1350
885.851196,1336
885.967896,1336
886.084717,1343
886.201599,1344
886.318359,1306
886.435181,1393
886.552002,1295
886.668762,1353
886.785645,1333
886.902344,1338
887.019165,1363
887.135925,1329
887.252747,1365
887.369446,1306
887.486267,1344
887.603027,1344
887.719788,1356
887.836548,1337
887.953247,1316
888.070068,1335
888.186829,1381
888.303528,1291
888.420288,1355
888.536987,1343
888.653687,1315
888.770447,1334
888.887146,1324
889.003967,1330
889.120667,1333
889.237305,1394
889.354065,1379
889.470703,1320
889.587463,1361
889.704163,1375
889.820862,1321
889.937561,1357
890.054199,1328
890.170837,1367
890.287598,1319
890.404236,1370
890.520874,1353
890.637634,1393
890.754211,1371
890.87085,1355
890.987549,1347
891.104187,1332
891.220886,1367
891.337463,1336
891.454102,1394
891.57074,1369
891.687378,1341
891.804077,1374
891.920654,1381
892.037231,1392
892.15387,1348
892.270447,1372
892.387085,1355
892.503723,1368
892.6203,1343
892.736877,1353
892.853516,1374
892.970032,1374
893.08667,1364
893.203186,1331
893.319763,1353
893.43634,1357
893.552917,1378
893.669556,1352
893.786011,1402
893.902588,1374
894.019165,1379
894.135681,1388
894.252197,1355
894.368835,1375
894.485291,1347
894.601868,1380
894.718384,1402
894.8349,1386
894.951355,1354
895.067932,1394
895.184448,1364
895.300964,1373
895.417419,1387
895.533936,1356
895.650452,1357
895.766907,1386
895.883423,1361
895.999878,1375
896.116333,1395
896.232849,1371
896.349304,1372
896.465759,1372
896.582214,1389
896.698669,1378
896.815125,1400
896.931641,1342
897.048035,1385
897.164551,1383
897.280884,1349
897.397339,1349
897.513794,1384
897.630249,1376
897.746582,1390
897.863098,1366
897.979431,1367
898.095886,1397
898.212341,1324
898.328674,1364
898.445129,1379
898.561462,1433
898.677795,1405
898.794312,1369
898.910645,1386
899.026978,1385
899.143433,1360
899.259766,1365
899.37616,1385
899.492493,1389
899.608765,1385
899.725159,1386
899.841553,1410
899.957947,1389
900.07428,1405
900.190552,1356
900.306946,1424
900.423157,1352
900.53949,1378
900.655884,1366
900.772156,1418
900.888489,1396
901.004822,1389
901.121033,1370
901.237366,1430
901.353699,1365
901.46991,1407
901.586304,1406
901.702515,1420
901.818787,1400
901.93512,1445
902.051331,1417
902.167603,1419
902.283875,1400
902.400085,1399
902.516418,1384
902.632629,1380
902.74884,1390
902.865112,1384
902.981384,1362
903.097595,1409
903.213867,1361
903.330017,1437
903.446289,1385
903.5625,1437
903.67865,1356
903.794922,1395
903.911072,1352
904.027344,1404
904.143494,1363
904.259705,1418
904.375916,1373
904.492065,1377
904.608215,1447
904.724426,1381
904.840576,1401
904.956726,1385
905.072876,1370
905.189087,1392
905.305176,1394
905.421387,1411
905.537537,1370
905.653687,1451
905.769775,1415
905.885925,1393
906.002014,1425
906.118164,1379
906.234314,1420
906.350403,1374
906.466492,1441
906.582642,1419
906.69873,1386
906.814758,1430
906.930908,1432
907.046936,1413
907.163086,1406
907.279175,1387
907.395264,1416
907.511353,1411
907.62738,1439
907.743408,1403
907.859497,1393
907.975525,1414
908.091553,1430
908.207703,1381
908.32373,1404
908.439758,1415
908.555786,1384
908.671814,1419
908.787842,1384
908.90387,1394
909.019775,1425
909.135864,1385
909.251892,1427
909.367859,1411
909.483826,1435
909.599854,1426
909.715881,1435
909.831848,1409
909.947815,1425
910.063782,1403
910.179749,1432
910.295776,1435
910.411743,1433
910.527649,1378
910.643616,1404
910.759583,1443
910.875488,1448
910.991455,1412
911.107361,1401
911.223267,1410
911.339294,1436
911.4552,1406
911.571106,1419
911.687073,1482
911.802979,1436
911.918823,1407
912.034729,1458
912.150635,1403
912.266602,1429
912.382446,1433
912.498352,1405
912.614197,1400
912.730103,1399
912.846008,1410
