792.44574,1684
792.56488,1632
792.68396,1666
792.80304,1669
792.92218,1581
793.041199,1556
793.160339,1567
793.279419,1569
793.398499,1551
793.517578,1518
793.636658,1581
793.755737,1539
793.874817,1581
793.993896,1558
794.112976,1513
794.232056,1535
794.351074,1600
794.470215,1527
794.589233,1565
794.708313,1527
794.827393,1509
794.946411,1501
795.065552,1514
795.18457,1516
795.303589,1528
795.422668,1529
795.541687,1550
795.660767,1474
795.779846,1520
795.898865,1521
796.017883,1467
796.136963,1472
796.255981,1537
796.375061,1510
796.49408,1520
796.613037,1510
796.732117,1466
796.851135,1529
796.970154,1522
797.089233,1495
797.208191,1453
797.327271,1505
797.446228,1509
797.565186,1472
797.684265,1466
797.803223,1481
797.922241,1487
798.04126,1487
798.160278,1501
798.279297,1488
798.398315,1523
798.517273,1497
798.636292,1473
798.75531,1433
798.874268,1486
798.993286,1458
799.112244,1500
799.231323,1497
799.350281,1474
799.469238,1493
799.588257,1425
799.707153,1467
799.826111,1396
799.945129,1520
800.064087,1459
800.183044,1496
800.302063,1458
800.421021,1506
800.539978,1454
800.658936,1468
800.777893,1512
800.896912,1474
801.015747,1449
801.134705,1457
801.253723,1490
801.37262,1463
801.491638,1467
801.610535,1452
801.729492,1483
801.84845,1492
801.967407,1462
802.086243,1481
802.205261,1480
802.324158,1495
802.443115,1458
802.562073,1462
802.680969,1476
802.799927,1498
802.918762,1426
803.037659,1465
803.156677,1489
803.275574,1457
803.39447,1495
803.513428,1456
803.632263,1489
803.751221,1445
803.870117,1486
803.989014,1433
804.107971,1465
804.226746,1434
804.345642,1429
804.4646,1463
804.583496,1475
804.702393,1475
804.821228,1466
804.940125,1504
805.059021,1494
805.177917,1468
805.296814,1453
805.415649,1453
805.534546,1499
805.653442,1457
805.772278,1525
805.891113,1488
806.01001,1479
806.128906,1492
806.247742,1461
806.366577,1476
806.485413,1515
806.604309,1456
806.723145,1513
806.84198,1515
806.960876,1484
807.079712,1528
807.198486,1496
807.317383,1416
807.436218,1483
807.554993,1455
807.673889,1454
807.792725,1448
807.91156,1475
808.030396,1529
808.14917,1429
808.268005,1457
808.386841,1485
808.505676,1540
808.624451,1479
808.743286,1487
808.862122,1483
808.980896,1444
809.099731,1496
809.218506,1470
809.337341,1488
809.456116,1467
809.57489,1449
809.693726,1456
809.8125,1467
809.931274,1529
810.050049,1460
810.168884,1457
810.287659,1499
810.406372,1493
810.525269,1472
810.643982,1484
810.762756,1477
810.881531,1451
811.000305,1512
811.11908,1480
811.237854,1455
811.356567,1449
811.475403,1503
811.594116,1457
811.71283,1488
811.831604,1474
811.950378,1442
812.069153,1522
812.187927,1477
812.30658,1467
812.425415,1467
812.544128,1478
812.662781,1468
812.781616,1472
812.900269,1449
813.019043,1462
813.137756,1432
813.256531,1502
813.375244,1443
813.493896,1513
813.612671,1450
813.731384,1517
813.850037,1458
813.96875,1493
814.087524,1486
814.206238,1448
814.324951,1463
814.443604,1434
814.562256,1434
814.68103,1418
814.799683,1479
814.918335,1481
815.037109,1469
815.155762,1446
815.274475,1475
815.393188,1461
815.511841,1447
815.630554,1482
815.749146,1437
815.867859,1394
815.986572,1467
816.105164,1438
816.223877,1410
816.342529,1446
816.461182,1483
816.579895,1417
816.698486,1459
816.817139,1424
816.935791,1469
817.054504,1488
817.173096,1480
817.291748,1446
817.4104,1458
817.529053,1414
817.647644,1434
817.766235,1419
817.884949,1401
818.00354,1428
818.122192,1412
818.240845,1416
818.359436,1365
818.478088,1394
818.59668,1361
818.715271,1421
818.833923,1398
818.952515,1369
819.071106,1343
819.189758,1348
819.30835,1392
819.426941,1365
819.545532,1341
819.664124,1367
819.782715,1354
819.901306,1321
820.019897,1342
820.138489,1348
820.25708,1336
820.375671,1363
820.494202,1351
820.612732,1318
820.731384,1354
820.849915,1309
820.968506,1359
821.087097,1317
821.205627,1357
821.324158,1352
821.442749,1347
821.561279,1345
821.679871,1311
821.798401,1334
821.916931,1301
822.035461,1354
822.154053,1310
822.272583,1315
822.391174,1327
822.509583,1288
822.628174,1309
822.746704,1327
822.865234,1307
822.983765,1311
823.102295,1311
823.220825,1309
823.339294,1286
823.457825,1311
823.576355,1334
823.694824,1312
823.813354,1309
823.931885,1314
824.050354,1277
824.168884,1320
824.287354,1333
824.405823,1302
824.524353,1346
824.642822,1334
824.761353,1304
824.879822,1330
824.998291,1348
825.116699,1303
825.235291,1307
825.353699,1333
825.472168,1306
825.590637,1317
825.709106,1307
825.827576,1300
825.946045,1330
826.064453,1349
826.182983,1298
826.301392,1314
826.4198,1289
826.53833,1303
826.656738,1296
826.775208,1308
826.893677,1293
827.012024,1308
827.130493,1301
827.248962,1290
827.36731,1300
827.485779,1334
827.604248,1313
827.722595,1328
827.841064,1281
827.959412,1290
828.077942,1291
828.196289,1293
828.314636,1302
828.433105,1259
828.551514,1293
828.669861,1334
828.78833,1259
828.906677,1287
829.025085,1295
829.143433,1278
829.261841,1305
829.38031,1311
829.498657,1310
829.617004,1295
829.735413,1241
829.85376,1272
829.972107,1267
830.090515,1284
830.208862,1269
830.327209,1297
830.445557,1271
830.563904,1302
830.682312,1278
830.800659,1265
830.919006,1314
831.037354,1264
831.155701,1286
831.274048,1241
831.392395,1279
831.51062,1321
831.629028,1284
831.747314,1263
831.865662,1305
831.984009,1247
832.102356,1287
832.220642,1262
832.338928,1259
832.457275,1258
832.575623,1260
832.693909,1240
832.812134,1283
832.930481,1311
833.048828,1274
833.167114,1286
833.2854,1282
833.403687,1285
833.521973,1315
833.640259,1247
833.758545,1263
833.876831,1297
833.995056,1274
834.113281,1306
834.231628,1287
834.349915,1252
834.468201,1286
834.586426,1298
834.704651,1253
834.822998,1279
834.941162,1259
835.059448,1273
835.177673,1271
835.295959,1285
835.414246,1257
835.53241,1268
835.650635,1255
835.768921,1280
835.887146,1274
836.005371,1299
836.123596,1253
836.241821,1281
836.360046,1289
836.478271,1263
836.596497,1315
836.714722,1286
836.832886,1286
836.95105,1296
837.069336,1288
837.1875,1223
837.305725,1269
837.423889,1332
837.542053,1232
837.660339,1307
837.778503,1277
837.896667,1297
838.014832,1252
838.132996,1252
838.25116,1271
838.369385,1281
838.487488,1295
838.605713,1269
838.723877,1249
838.84198,1309
838.960205,1294
839.078308,1303
839.196472,1251
839.314636,1251
839.4328,1296
839.550964,1251
839.669067,1308
839.787231,1263
839.905396,1273
840.023499,1296
840.141602,1302
840.259766,1283
840.377869,1270
840.495972,1255
840.614136,1272
840.732239,1237
840.850342,1277
840.968445,1245
841.086548,1279
841.204651,1267
841.322754,1257
841.440918,1265
841.55896,1274
841.677002,1288
841.795166,1280
841.913208,1276
842.031311,1275
842.149353,1266
842.267456,1288
842.385498,1257
842.503601,1260
842.621643,1249
842.739746,1228
842.857788,1246
842.97583,1276
843.093933,1258
843.211975,1236
843.330017,1250
843.44812,1280
843.566101,1209
843.684204,1220
843.802246,1242
843.920227,1292
844.038269,1280
844.156311,1240
844.274292,1229
844.392395,1269
844.510376,1291
844.628357,1248
844.74646,1275
844.864441,1273
844.982422,1252
845.100403,1244
845.218384,1236
845.336426,1271
845.454468,1270
845.572449,1273
845.69043,1282
845.808411,1235
845.926453,1275
846.044373,1234
846.162354,1263
846.280396,1265
846.398315,1276
846.516296,1253
846.634216,1249
846.752197,1197
846.870178,1285
846.988098,1252
847.106079,1222
847.22406,1255
847.34198,1232
847.4599,1247
847.577881,1260
847.695801,1255
847.813782,1268
847.931641,1257
848.049561,1269
848.167603,1226
848.285461,1225
848.403381,1245
848.521362,1241
848.639221,1265
848.75708,1232
848.875,1283
848.99292,1301
849.110901,1246
849.22876,1244
849.34668,1262
849.464539,1267
849.582458,1233
849.700317,1263
849.818176,1295
849.936096,1271
850.053955,1261
850.171875,1281
850.289673,1268
850.407593,1238
850.525452,1301
850.643311,1305
850.761169,1287
850.878967,1256
850.996887,1299
851.114746,1257
851.232544,1249
851.350403,1246
851.468262,1289
851.58606,1268
851.703979,1267
851.821777,1290
851.939636,1286
852.057434,1257
852.175232,1317
852.293091,1236
852.410889,1252
852.528687,1250
852.646545,1302
852.764343,1290
852.88208,1271
852.999939,1274
853.117676,1268
853.235535,1264
853.353271,1222
853.471069,1261
853.588928,1263
853.706604,1270
853.824402,1262
853.9422,1272
854.059998,1244
854.177734,1273
854.295532,1301
854.413269,1260
854.531006,1251
854.648804,1242
854.766541,1302
854.884277,1291
855.002014,1289
855.119751,1267
855.237549,1267
855.355225,1263
855.473022,1295
855.590698,1240
855.708435,1306
855.826172,1270
855.943848,1304
856.061646,1303
856.179321,1268
856.296997,1268
856.414795,1277
856.53241,1270
856.650085,1272
856.767822,1244
856.885559,1318
857.003174,1282
857.120911,1294
857.238586,1309
857.356201,1289
857.473938,1273
857.591614,1262
857.709351,1281
857.826965,1306
857.944641,1274
858.062317,1264
858.179993,1286
858.297668,1280
858.415283,1279
858.532959,1271
858.650574,1319
858.768188,1245
858.885803,1297
859.003479,1303
859.121094,1281
859.23877,1309
859.356384,1291
859.473999,1262
859.591675,1301
859.709229,1263
859.826843,1282
859.944458,1262
860.062012,1289
860.179626,1260
860.297302,1259
860.414856,1299
860.532471,1301
860.650024,1273
860.767639,1234
860.885193,1266
861.002808,1313
861.120361,1244
861.237976,1247
861.35553,1265
861.473022,1265
861.590698,1293
861.708191,1299
861.825745,1298
861.943298,1294
862.060852,1283
862.178406,1274
862.295959,1300
862.413513,1292
862.531006,1289
862.64856,1303
862.766113,1284
862.883667,1300
863.00116,1279
863.118713,1280
863.236206,1281
863.353699,1255
863.471252,1302
863.588745,1296
863.706177,1229
863.82373,1272
863.941162,1298
864.058716,1279
864.176208,1271
864.29364,1307
864.411194,1286
864.528687,1283
864.646118,1323
864.763611,1290
864.881042,1249
864.998535,1293
865.116028,1274
865.233459,1277
865.350891,1255
865.468384,1280
865.585754,1325
865.703308,1347
865.820679,1282
865.938171,1303
866.055542,1288
866.173035,1276
866.290466,1302
866.407837,1276
866.52533,1300
866.6427,1306
866.760071,1314
866.877563,1317
866.994934,1288
867.112305,1310
867.229736,1287
867.347107,1258
867.464539,1327
867.58197,1299
867.699341,1322
867.81665,1271
867.934082,1282
868.051453,1315
868.168823,1291
868.286194,1282
868.403564,1329
868.520935,1272
868.638306,1297
868.755676,1293
868.872986,1299
868.990295,1297
869.107727,1276
869.225037,1323
869.342346,1294
869.459717,1295
869.577026,1292
869.694336,1300
869.811707,1324
869.929016,1312
870.046326,1330
870.163635,1312
870.280945,1252
870.398254,1296
870.515564,1335
870.632812,1314
870.750183,1302
870.867432,1292
870.984741,1296
871.102051,1314
871.219299,1303
871.336609,1313
871.453918,1333
871.571106,1324
871.688416,1255
871.805664,1331
871.922852,1301
872.040222,1323
872.157471,1328
872.274719,1305
872.391968,1342
872.509155,1264
872.626465,1285
872.743652,1330
872.860962,1290
872.978149,1303
873.095337,1295
873.212646,1298
873.329834,1269
873.44696,1328
873.564209,1349
873.681396,1328
873.798645,1286
873.915894,1310
874.03302,1317
874.150208,1323
874.267456,1260
874.384583,1311
874.501831,1305
874.618958,1305
874.736145,1324
874.853333,1287
874.970459,1293
875.087646,1303
875.204834,1330
875.32196,1313
875.439148,1278
875.556274,1293
875.673401,1356
875.790527,1299
875.907715,1318
876.024841,1269
876.141968,1334
876.259094,1313
876.376282,1316
876.493347,1328
876.610474,1311
876.7276,1313
876.844727,1291
876.961853,1325
877.078918,1300
877.195984,1377
877.313171,1308
877.430237,1307
877.547302,1358
877.664368,1309
877.781433,1303
877.898499,1319
878.015625,1288
878.13269,1324
878.249695,1292
878.366821,1324
878.483887,1327
878.600952,1332
878.717957,1325
878.834961,1339
878.952087,1329
879.069092,1310
879.186157,1330
879.303162,1349
879.420227,1303
879.537231,1336
879.654236,1332
879.77124,1301
879.888306,1346
880.005249,1335
880.122314,1351
880.239319,1343
880.356323,1359
880.473328,1324
880.590271,1366
880.707275,1339
880.824341,1335
880.941284,1353
881.058228,1281
881.175232,1337
881.292236,1314
881.40918,1307
881.526123,1297
881.643066,1318
881.760071,1355
881.877014,1310
881.993958,1367
882.11084,1279
882.227783,1358
882.344727,1363
882.46167,1304
882.578613,1267
882.695618,1328
882.812439,1332
882.929382,1336
883.046326,1331
883.163208,1331
883.280151,1347
883.397034,1289
883.513916,1316
883.630798,1310
883.747742,1328
883.864563,1295
883.981506,1365
884.098389,1309
884.21521,1317
884.332153,1352
884.448975,1331
884.565796,1323
884.682678,1307
884.7995,1321
884.916443,1293
885.033264,1338
885.150085,1304
885.266968,1337
885.383789,1347
885.500671,1317
885.617493,1335
885.734314,1368
885.851196,1321
885.967896,1338
886.084717,1346
886.201599,1321
886.318359,1368
886.435181,1375
886.552002,1316
886.668762,1334
886.785645,1385
886.902344,1307
887.019165,1316
887.135925,1337
887.252747,1313
887.369446,1371
887.486267,1330
887.603027,1344
887.719788,1333
887.836548,1351
887.953247,1354
888.070068,1372
888.186829,1335
888.303528,1369
888.420288,1337
888.536987,1335
888.653687,1304
888.770447,1337
888.887146,1349
889.003967,1348
889.120667,1350
889.237305,1356
889.354065,1333
889.470703,1316
889.587463,1309
889.704163,1369
889.820862,1377
889.937561,1329
890.054199,1358
890.170837,1363
890.287598,1365
890.404236,1312
890.520874,1321
890.637634,1393
890.754211,1354
890.87085,1344
890.987549,1353
891.104187,1366
891.220886,1340
891.337463,1336
891.454102,1388
891.57074,1366
891.687378,1367
891.804077,1315
891.920654,1344
892.037231,1359
892.15387,1373
892.270447,1355
892.387085,1339
892.503723,1321
892.6203,1341
892.736877,1382
892.853516,1316
892.970032,1371
893.08667,1382
893.203186,1419
893.319763,1316
893.43634,1395
893.552917,1367
893.669556,1387
893.786011,1379
893.902588,1361
894.019165,1401
894.135681,1366
894.252197,1381
894.368835,1391
894.485291,1369
894.601868,1376
894.718384,1403
894.8349,1371
894.951355,1379
895.067932,1373
895.184448,1331
895.300964,1365
895.417419,1357
895.533936,1378
895.650452,1357
895.766907,1370
895.883423,1380
895.999878,1383
896.116333,1423
896.232849,1346
896.349304,1418
896.465759,1361
896.582214,1404
896.698669,1373
896.815125,1366
896.931641,1370
897.048035,1386
897.164551,1372
897.280884,1358
897.397339,1382
897.513794,1399
897.630249,1373
897.746582,1360
897.863098,1388
897.979431,1385
898.095886,1394
898.212341,1460
898.328674,1361
898.445129,1376
898.561462,1347
898.677795,1408
898.794312,1400
898.910645,1392
899.026978,1366
899.143433,1374
899.259766,1377
899.37616,1399
899.492493,1378
899.608765,1398
899.725159,1362
899.841553,1389
899.957947,1367
900.07428,1401
900.190552,1422
900.306946,1370
900.423157,1369
900.53949,1387
900.655884,1383
900.772156,1375
900.888489,1378
901.004822,1378
901.121033,1388
901.237366,1358
901.353699,1404
901.46991,1400
901.586304,1390
901.702515,1394
901.818787,1408
901.93512,1387
902.051331,1386
902.167603,1404
902.283875,1414
902.400085,1406
902.516418,1380
902.632629,1389
902.74884,1401
902.865112,1466
902.981384,1358
903.097595,1406
903.213867,1385
903.330017,1396
903.446289,1430
903.5625,1391
903.67865,1440
903.794922,1372
903.911072,1391
904.027344,1417
904.143494,1417
904.259705,1426
904.375916,1393
904.492065,1400
904.608215,1345
904.724426,1409
904.840576,1408
904.956726,1383
905.072876,1418
905.189087,1399
905.305176,1392
905.421387,1391
905.537537,1405
905.653687,1434
905.769775,1414
905.885925,1362
906.002014,1428
906.118164,1358
906.234314,1441
906.350403,1385
906.466492,1407
906.582642,1382
906.69873,1395
906.814758,1378
906.930908,1396
907.046936,1382
907.163086,1385
907.279175,1402
907.395264,1405
907.511353,1424
907.62738,1423
907.743408,1373
907.859497,1413
907.975525,1401
908.091553,1393
908.207703,1426
908.32373,1397
908.439758,1423
908.555786,1390
908.671814,1398
908.787842,1442
908.90387,1376
909.019775,1456
909.135864,1386
909.251892,1416
909.367859,1437
909.483826,1408
909.599854,1452
909.715881,1418
909.831848,1442
909.947815,1388
910.063782,1422
910.179749,1463
910.295776,1395
910.411743,1442
910.527649,1429
910.643616,1426
910.759583,1398
910.875488,1420
910.991455,1464
911.107361,1403
911.223267,1423
911.339294,1427
911.4552,1420
911.571106,1413
911.687073,1418
911.802979,1433
911.918823,1410
912.034729,1418
912.150635,1431
912.266602,1369
912.382446,1436
912.498352,1438
912.614197,1408
912.730103,1389
912.846008,1417
792.44574,1665
792.56488,1685
792.68396,1694
792.80304,1686
792.92218,1629
793.041199,1613
793.160339,1590
793.279419,1578
793.398499,1667
793.517578,1617
793.636658,1597
793.755737,1602
793.874817,1621
793.993896,1618
794.112976,1591
794.232056,1589
794.351074,1601
794.470215,1584
794.589233,1580
794.708313,1527
794.827393,1592
794.946411,1549
795.065552,1546
795.18457,1569
795.303589,1564
795.422668,1559
795.541687,1566
795.660767,1495
795.779846,1567
795.898865,1535
796.017883,1548
796.136963,1506
796.255981,1541
796.375061,1565
796.49408,1566
796.613037,1529
796.732117,1522
796.851135,1533
796.970154,1533
797.089233,1524
797.208191,1510
797.327271,1522
797.446228,1577
797.565186,1549
797.684265,1504
797.803223,1526
797.922241,1511
798.04126,1502
798.160278,1527
798.279297,1519
798.398315,1526
798.517273,1506
798.636292,1512
798.75531,1531
798.874268,1536
798.993286,1493
799.112244,1536
799.231323,1483
799.350281,1476
799.469238,1499
799.588257,1508
799.707153,1525
799.826111,1538
799.945129,1491
800.064087,1509
800.183044,1510
800.302063,1553
800.421021,1490
800.539978,1520
800.658936,1518
800.777893,1476
800.896912,1508
801.015747,1522
801.134705,1540
801.253723,1499
801.37262,1492
801.491638,1513
801.610535,1518
801.729492,1528
801.84845,1463
801.967407,1518
802.086243,1502
802.205261,1495
802.324158,1501
802.443115,1524
802.562073,1500
802.680969,17988
802.799927,1688
802.918762,1430
803.037659,1502
803.156677,1503
803.275574,1516
803.39447,1476
803.513428,1505
803.632263,1464
803.751221,1521
803.870117,1510
803.989014,1504
804.107971,1479
804.226746,1481
804.345642,1487
804.4646,1513
804.583496,1525
804.702393,1512
804.821228,1504
804.940125,1503
805.059021,1521
805.177917,1556
805.296814,1549
805.415649,1513
805.534546,1523
805.653442,1506
805.772278,1528
805.891113,1516
806.01001,1567
806.128906,1510
806.247742,1509
806.366577,1475
806.485413,1524
806.604309,1496
806.723145,1479
806.84198,1510
806.960876,1543
807.079712,1467
807.198486,1541
807.317383,1536
807.436218,1483
807.554993,1511
807.673889,1521
807.792725,1544
807.91156,1522
808.030396,1493
808.14917,1524
808.268005,1497
808.386841,1475
808.505676,1549
808.624451,1502
808.743286,1479
808.862122,1471
808.980896,1498
809.099731,1522
809.218506,1497
809.337341,1486
809.456116,1489
809.57489,1501
809.693726,1549
809.8125,1560
809.931274,1531
810.050049,1499
810.168884,1497
810.287659,1529
810.406372,1502
810.525269,1456
810.643982,1510
810.762756,1485
810.881531,1504
811.000305,1455
811.11908,1480
811.237854,1464
811.356567,1496
811.475403,1499
811.594116,1495
811.71283,1508
811.831604,1526
811.950378,1472
812.069153,1521
812.187927,1526
812.30658,1490
812.425415,1501
812.544128,1491
812.662781,1519
812.781616,1522
812.900269,1444
813.019043,1483
813.137756,1510
813.256531,1484
813.375244,1510
813.493896,1485
813.612671,1506
813.731384,1475
813.850037,1519
813.96875,1480
814.087524,1513
814.206238,1466
814.324951,1488
814.443604,1473
814.562256,1503
814.68103,1520
814.799683,1485
814.918335,1502
815.037109,1530
815.155762,1473
815.274475,1490
815.393188,1460
815.511841,1430
815.630554,1509
815.749146,1487
815.867859,1477
815.986572,1455
816.105164,1450
816.223877,1469
816.342529,1449
816.461182,1491
816.579895,1494
816.698486,1437
816.817139,1472
816.935791,1464
817.054504,1440
817.173096,1493
817.291748,1485
817.4104,1508
817.529053,1452
817.647644,1484
817.766235,1435
817.884949,1518
818.00354,1432
818.122192,1425
818.240845,1441
818.359436,1427
818.478088,1443
818.59668,1413
818.715271,1353
818.833923,1400
818.952515,1375
819.071106,1407
819.189758,1403
819.30835,1395
819.426941,1382
819.545532,1397
819.664124,1413
819.782715,1405
819.901306,1357
820.019897,1370
820.138489,1364
820.25708,1364
820.375671,1369
820.494202,1380
820.612732,1402
820.731384,1386
820.849915,1356
820.968506,1361
821.087097,1344
821.205627,1385
821.324158,1375
821.442749,1379
821.561279,1376
821.679871,1360
821.798401,1316
821.916931,1352
822.035461,1320
822.154053,1351
822.272583,1387
822.391174,1376
822.509583,1317
822.628174,1337
822.746704,1365
822.865234,1335
822.983765,1302
823.102295,1388
823.220825,1310
823.339294,1273
823.457825,1328
823.576355,1365
823.694824,1346
823.813354,1369
823.931885,1338
824.050354,1348
824.168884,1334
824.287354,1358
824.405823,1359
824.524353,1363
824.642822,1352
824.761353,1369
824.879822,1361
824.998291,1318
825.116699,1382
825.235291,1358
825.353699,1335
825.472168,1299
825.590637,1328
825.709106,1348
825.827576,1332
825.946045,1316
826.064453,1388
826.182983,1319
826.301392,1324
826.4198,1330
826.53833,1320
826.656738,1331
826.775208,1321
826.893677,1344
827.012024,1317
827.130493,1333
827.248962,1324
827.36731,1307
827.485779,1336
827.604248,1262
827.722595,1281
827.841064,1343
827.959412,1382
828.077942,1307
828.196289,1300
828.314636,1344
828.433105,1318
828.551514,1315
828.669861,1315
828.78833,1353
828.906677,1280
829.025085,1302
829.143433,1332
829.261841,1321
829.38031,1301
829.498657,1338
829.617004,1295
829.735413,1310
829.85376,1291
829.972107,1309
830.090515,1290
830.208862,1286
830.327209,1274
830.445557,1344
830.563904,1299
830.682312,1308
830.800659,1292
830.919006,1352
831.037354,1333
831.155701,1308
831.274048,1320
831.392395,1272
831.51062,1303
831.629028,1302
831.747314,1318
831.865662,1332
831.984009,1316
832.102356,1291
832.220642,1375
832.338928,1299
832.457275,1304
832.575623,1308
832.693909,1291
832.812134,1297
832.930481,1297
833.048828,1308
833.167114,1309
833.2854,1271
833.403687,1307
833.521973,1285
833.640259,1301
833.758545,1328
833.876831,1312
833.995056,1336
834.113281,1311
834.231628,1321
834.349915,1308
834.468201,1311
834.586426,1292
834.704651,1286
834.822998,1283
834.941162,1308
835.059448,1291
835.177673,1319
835.295959,1318
835.414246,1322
835.53241,1344
835.650635,1301
835.768921,1275
835.887146,1291
836.005371,1308
836.123596,1312
836.241821,1301
836.360046,1316
836.478271,1335
836.596497,1320
836.714722,1298
836.832886,1349
836.95105,1293
837.069336,1281
837.1875,1277
837.305725,1282
837.423889,1310
837.542053,1310
837.660339,1335
837.778503,1298
837.896667,1319
838.014832,1316
838.132996,1294
838.25116,1295
838.369385,1282
838.487488,1303
838.605713,1332
838.723877,1348
838.84198,1283
838.960205,1306
839.078308,1290
839.196472,1310
839.314636,1279
839.4328,1240
839.550964,1287
839.669067,1286
839.787231,1282
839.905396,1328
840.023499,1276
840.141602,1330
840.259766,1312
840.377869,1299
840.495972,1302
840.614136,1289
840.732239,1302
840.850342,1281
840.968445,1267
841.086548,1313
841.204651,1285
841.322754,1317
841.440918,1286
841.55896,1274
841.677002,1314
841.795166,1298
841.913208,1326
842.031311,1319
842.149353,1236
842.267456,1313
842.385498,1269
842.503601,1273
842.621643,1283
842.739746,1309
842.857788,1263
842.97583,1270
843.093933,1324
843.211975,1299
843.330017,1301
843.44812,1319
843.566101,1309
843.684204,1312
843.802246,1285
843.920227,1304
844.038269,1329
844.156311,1290
844.274292,1286
844.392395,1298
844.510376,1278
844.628357,1256
844.74646,1297
844.864441,1269
844.982422,1278
845.100403,1300
845.218384,1293
845.336426,1294
845.454468,1322
845.572449,1292
845.69043,1295
845.808411,1263
845.926453,1299
846.044373,1310
846.162354,1268
846.280396,1285
846.398315,1268
846.516296,1304
846.634216,1278
846.752197,1277
846.870178,1274
846.988098,1298
847.106079,1284
847.22406,1292
847.34198,1289
847.4599,1324
847.577881,1298
847.695801,1309
847.813782,1300
847.931641,1268
848.049561,1283
848.167603,1254
848.285461,1276
848.403381,1294
848.521362,1300
848.639221,1295
848.75708,1319
848.875,1329
848.99292,1281
849.110901,1294
849.22876,1270
849.34668,1288
849.464539,1273
849.582458,1267
849.700317,1288
849.818176,1308
849.936096,1261
850.053955,1288
850.171875,1267
850.289673,1327
850.407593,1281
850.525452,1326
850.643311,1282
850.761169,1322
850.878967,1251
850.996887,1303
851.114746,1301
851.232544,1308
851.350403,1291
851.468262,1274
851.58606,1270
851.703979,1270
851.821777,1302
851.939636,1315
852.057434,1300
852.175232,1300
852.293091,1311
852.410889,1290
852.528687,1298
852.646545,1319
852.764343,1330
852.88208,1307
852.999939,1332
853.117676,1325
853.235535,1253
853.353271,1341
853.471069,1268
853.588928,1300
853.706604,1301
853.824402,1287
853.9422,1293
854.059998,1293
854.177734,1317
854.295532,1302
854.413269,1315
854.531006,1293
854.648804,1301
854.766541,1314
854.884277,1290
855.002014,1290
855.119751,1299
855.237549,1334
855.355225,1293
855.473022,1309
855.590698,1280
855.708435,1310
855.826172,1299
855.943848,1341
856.061646,1298
856.179321,1306
856.296997,1258
856.414795,1301
856.53241,1346
856.650085,1295
856.767822,1294
856.885559,1306
857.003174,1348
857.120911,1277
857.238586,1332
857.356201,1323
857.473938,1347
857.591614,1321
857.709351,1311
857.826965,1320
857.944641,1335
858.062317,1276
858.179993,1325
858.297668,1304
858.415283,1286
858.532959,1316
858.650574,1329
858.768188,1302
858.885803,1321
859.003479,1324
859.121094,1315
859.23877,1302
859.356384,1286
859.473999,1296
859.591675,1338
859.709229,1325
859.826843,1309
859.944458,1303
860.062012,1293
860.179626,1301
860.297302,1316
860.414856,1280
860.532471,1302
860.650024,1278
860.767639,1281
860.885193,1301
861.002808,1291
861.120361,1347
861.237976,1299
861.35553,1330
861.473022,1311
861.590698,1294
861.708191,1312
861.825745,1292
861.943298,1331
862.060852,1303
862.178406,1323
862.295959,1335
862.413513,1320
862.531006,1310
862.64856,1278
862.766113,1260
862.883667,1307
863.00116,1301
863.118713,1282
863.236206,1337
863.353699,1286
863.471252,1319
863.588745,1311
863.706177,1327
863.82373,1320
863.941162,1298
864.058716,1308
864.176208,1295
864.29364,1349
864.411194,1266
864.528687,1311
864.646118,1295
864.763611,1295
864.881042,1335
864.998535,1329
865.116028,1365
865.233459,1341
865.350891,1333
865.468384,1301
865.585754,1348
865.703308,1308
865.820679,1351
865.938171,1315
866.055542,1340
866.173035,1307
866.290466,1311
866.407837,1287
866.52533,1303
866.6427,1341
866.760071,1305
866.877563,1301
866.994934,1332
867.112305,1326
867.229736,1361
867.347107,1302
867.464539,1346
867.58197,1337
867.699341,1338
867.81665,1307
867.934082,1319
868.051453,1336
868.168823,1335
868.286194,1342
868.403564,1321
868.520935,1303
868.638306,1339
868.755676,1308
868.872986,1299
868.990295,1354
869.107727,1360
869.225037,1312
869.342346,1382
869.459717,1321
869.577026,1353
869.694336,1345
869.811707,1321
869.929016,1330
870.046326,1292
870.163635,1323
870.280945,1342
870.398254,1328
870.515564,1360
870.632812,1326
870.750183,1332
870.867432,1336
870.984741,1283
871.102051,1346
871.219299,1343
871.336609,1316
871.453918,1354
871.571106,1353
871.688416,1297
871.805664,1308
871.922852,1314
872.040222,1326
872.157471,1331
872.274719,1359
872.391968,1319
872.509155,1339
872.626465,1340
872.743652,1326
872.860962,1296
872.978149,1331
873.095337,1340
873.212646,1345
873.329834,1378
873.44696,1333
873.564209,1355
873.681396,1371
873.798645,1353
873.915894,1345
874.03302,1307
874.150208,1346
874.267456,1345
874.384583,1338
874.501831,1367
874.618958,1325
874.736145,1331
874.853333,1378
874.970459,1296
875.087646,1299
875.204834,1371
875.32196,1341
875.439148,1335
875.556274,1349
875.673401,1368
875.790527,1341
875.907715,1366
876.024841,1292
876.141968,1364
876.259094,1316
876.376282,1379
876.493347,1329
876.610474,1332
876.7276,1360
876.844727,1351
876.961853,1351
877.078918,1315
877.195984,1361
877.313171,1300
877.430237,1336
877.547302,1370
877.664368,1348
877.781433,1353
877.898499,1315
878.015625,1301
878.13269,1343
878.249695,1344
878.366821,1356
878.483887,1312
878.600952,1341
878.717957,1365
878.834961,1329
878.952087,1345
879.069092,1377
879.186157,1355
879.303162,1328
879.420227,1341
879.537231,1342
879.654236,1323
879.77124,1309
879.888306,1322
880.005249,1366
880.122314,1378
880.239319,1364
880.356323,1317
880.473328,1320
880.590271,1335
880.707275,1340
880.824341,1348
880.941284,1342
881.058228,1376
881.175232,1300
881.292236,1339
881.40918,1337
881.526123,1332
881.643066,1343
881.760071,1365
881.877014,1347
881.993958,1334
882.11084,1391
882.227783,1337
882.344727,1348
882.46167,1367
882.578613,1340
882.695618,1396
882.812439,1363
882.929382,1337
883.046326,1374
883.163208,1346
883.280151,1360
883.397034,1402
883.513916,1356
883.630798,1398
883.747742,1346
883.864563,1333
883.981506,1330
884.098389,1357
884.21521,1349
884.332153,1358
884.448975,1378
884.565796,1365
884.682678,1365
884.7995,1341
884.916443,1373
885.033264,1343
885.150085,1373
885.266968,1372
885.383789,1371
885.500671,1390
885.617493,1354
885.734314,1386
885.851196,1371
885.967896,1371
886.084717,1375
886.201599,1366
886.318359,1373
886.435181,1394
886.552002,1432
886.668762,1377
886.785645,1354
886.902344,1397
887.019165,1353
887.135925,1386
887.252747,1364
887.369446,1380
887.486267,1365
887.603027,1415
887.719788,1346
887.836548,1398
887.953247,1376
888.070068,1427
888.186829,1362
888.303528,1371
888.420288,1394
888.536987,1349
888.653687,1364
888.770447,1367
888.887146,1386
889.003967,1383
889.120667,1403
889.237305,1367
889.354065,1370
889.470703,1403
889.587463,1393
889.704163,1384
889.820862,1413
889.937561,1383
890.054199,1388
890.170837,1371
890.287598,1369
890.404236,1412
890.520874,1361
890.637634,1398
890.754211,1411
890.87085,1391
890.987549,1397
891.104187,1401
891.220886,1394
891.337463,1389
891.454102,1389
891.57074,1394
891.687378,1383
891.804077,1401
891.920654,1374
892.037231,1425
892.15387,1405
892.270447,1351
892.387085,1430
892.503723,1394
892.6203,1367
892.736877,1383
892.853516,1376
892.970032,1449
893.08667,1366
893.203186,1420
893.319763,1404
893.43634,1414
893.552917,1371
893.669556,1429
893.786011,1400
893.902588,1412
894.019165,1369
894.135681,1455
894.252197,1402
894.368835,1391
894.485291,1387
894.601868,1385
894.718384,1390
894.8349,1384
894.951355,1442
895.067932,1395
895.184448,1410
895.300964,1412
895.417419,1392
895.533936,1385
895.650452,1417
895.766907,1416
895.883423,1446
895.999878,1388
896.116333,1389
896.232849,1408
896.349304,1391
896.465759,1422
896.582214,1353
896.698669,1397
896.815125,1458
896.931641,1467
897.048035,1379
897.164551,1444
897.280884,1392
897.397339,1395
897.513794,1436
897.630249,1418
897.746582,1433
897.863098,1421
897.979431,1401
898.095886,1447
898.212341,1431
898.328674,1408
898.445129,1440
898.561462,1389
898.677795,1419
898.794312,1423
898.910645,1387
899.026978,1436
899.143433,1422
899.259766,1443
899.37616,1413
899.492493,1408
899.608765,1425
899.725159,1399
899.841553,1428
899.957947,1419
900.07428,1439
900.190552,1386
900.306946,1394
900.423157,1459
900.53949,1413
900.655884,1443
900.772156,1406
900.888489,1416
901.004822,1387
901.121033,1400
901.237366,1408
901.353699,1398
901.46991,1437
901.586304,1428
901.702515,1432
901.818787,1464
901.93512,1409
902.051331,1421
902.167603,1434
902.283875,1447
902.400085,1397
902.516418,1449
902.632629,1420
902.74884,1431
902.865112,1465
902.981384,1467
903.097595,1445
903.213867,1439
903.330017,1453
903.446289,1447
903.5625,1398
903.67865,1461
903.794922,1407
903.911072,1471
904.027344,1401
904.143494,1445
904.259705,1424
904.375916,1431
904.492065,1432
904.608215,1445
904.724426,1414
904.840576,1452
904.956726,1419
905.072876,1412
905.189087,1458
905.305176,1457
905.421387,1450
905.537537,1445
905.653687,1420
905.769775,1421
905.885925,1423
906.002014,1421
906.118164,1410
906.234314,1436
906.350403,1491
906.466492,1418
906.582642,1479
906.69873,1430
906.814758,1415
906.930908,1462
907.046936,1458
907.163086,1490
907.279175,1467
907.395264,1413
907.511353,1449
907.62738,1447
907.743408,1414
907.859497,1455
907.975525,1433
908.091553,1425
908.207703,1403
908.32373,1443
908.439758,1487
908.555786,1434
908.671814,1450
908.787842,1448
908.90387,1438
909.019775,1464
909.135864,1412
909.251892,1471
909.367859,1432
909.483826,1432
909.599854,1446
909.715881,1484
909.831848,1438
909.947815,1484
910.063782,1481
910.179749,1444
910.295776,1437
910.411743,1472
910.527649,1479
910.643616,1464
910.759583,1450
910.875488,1447
910.991455,1462
911.107361,1470
911.223267,1437
911.339294,1471
911.4552,1478
911.571106,1506
911.687073,1433
911.802979,1430
911.918823,1429
912.034729,1487
912.150635,1496
912.266602,1500
912.382446,1454
912.498352,1418
912.614197,1468
912.730103,1435
912.846008,1479
792.44574,1665
792.56488,1723
792.68396,1699
792.80304,1653
792.92218,1648
793.041199,1622
793.160339,1584
793.279419,1611
793.398499,1628
793.517578,1604
793.636658,1647
793.755737,1664
793.874817,1620
793.993896,1641
794.112976,1592
794.232056,1577
794.351074,1623
794.470215,1633
794.589233,1577
794.708313,1554
794.827393,1525
794.946411,1580
795.065552,1537
795.18457,1564
795.303589,1572
795.422668,1568
795.541687,1556
795.660767,1576
795.779846,1493
795.898865,1531
796.017883,1497
796.136963,1569
796.255981,1550
796.375061,1561
796.49408,1527
796.613037,1538
796.732117,1552
796.851135,1561
796.970154,1584
797.089233,1523
797.208191,1555
797.327271,1510
797.446228,1504
797.565186,1532
797.684265,1530
797.803223,1531
797.922241,1544
798.04126,1541
798.160278,1541
798.279297,1498
798.398315,1488
798.517273,1569
798.636292,1537
798.75531,1446
798.874268,1517
798.993286,1530
799.112244,1519
799.231323,1524
799.350281,1495
799.469238,1496
799.588257,1522
799.707153,1551
799.826111,1530
799.945129,1522
800.064087,1518
800.183044,1524
800.302063,1508
800.421021,1508
800.539978,1529
800.658936,1519
800.777893,1526
800.896912,1504
801.015747,1523
801.134705,1519
801.253723,1496
801.37262,1469
801.491638,1489
801.610535,1561
801.729492,1547
801.84845,1473
801.967407,1548
802.086243,1489
802.205261,1547
802.324158,1522
802.443115,1512
802.562073,1533
802.680969,1511
802.799927,1531
802.918762,1517
803.037659,1506
803.156677,1529
803.275574,1472
803.39447,1501
803.513428,1521
803.632263,1515
803.751221,1509
803.870117,1481
803.989014,1500
804.107971,1511
804.226746,1533
804.345642,1520
804.4646,1524
804.583496,1494
804.702393,1528
804.821228,1517
804.940125,1520
805.059021,1550
805.177917,1534
805.296814,1505
805.415649,1532
805.534546,1535
805.653442,1520
805.772278,1531
805.891113,1523
806.01001,1480
806.128906,1561
806.247742,1515
806.366577,1498
806.485413,1549
806.604309,1519
806.723145,1519
806.84198,1505
806.960876,1493
807.079712,1482
807.198486,1516
807.317383,1538
807.436218,1485
807.554993,1524
807.673889,1484
807.792725,1489
807.91156,1513
808.030396,1518
808.14917,1493
808.268005,1490
808.386841,1545
808.505676,1535
808.624451,1488
808.743286,1515
808.862122,1483
808.980896,1531
809.099731,1497
809.218506,1491
809.337341,1528
809.456116,1497
809.57489,1459
809.693726,1548
809.8125,1499
809.931274,1481
810.050049,1508
810.168884,1493
810.287659,1503
810.406372,1527
810.525269,1502
810.643982,1532
810.762756,1533
810.881531,1496
811.000305,1516
811.11908,1515
811.237854,1499
811.356567,1518
811.475403,1522
811.594116,1528
811.71283,1516
811.831604,1515
811.950378,1527
812.069153,1529
812.187927,1487
812.30658,1540
812.425415,1480
812.544128,1476
812.662781,1508
812.781616,1544
812.900269,1478
813.019043,1539
813.137756,1526
813.256531,1499
813.375244,1519
813.493896,1517
813.612671,1526
813.731384,1447
813.850037,1486
813.96875,1515
814.087524,1518
814.206238,1489
814.324951,1506
814.443604,1516
814.562256,1499
814.68103,1504
814.799683,1514
814.918335,1510
815.037109,1507
815.155762,1523
815.274475,1484
815.393188,1492
815.511841,1500
815.630554,1462
815.749146,1491
815.867859,1447
815.986572,1473
816.105164,1479
816.223877,1462
816.342529,1479
816.461182,1472
816.579895,1448
816.698486,1479
816.817139,1475
816.935791,1424
817.054504,1492
817.173096,1465
817.291748,1533
817.4104,1475
817.529053,1449
817.647644,1443
817.766235,1455
817.884949,1496
818.00354,1433
818.122192,1442
818.240845,1432
818.359436,1448
818.478088,1441
818.59668,1410
818.715271,1435
818.833923,1414
818.952515,1416
819.071106,1372
819.189758,1384
819.30835,1396
819.426941,1382
819.545532,1361
819.664124,1358
819.782715,1406
819.901306,1408
820.019897,1381
820.138489,1378
820.25708,1417
820.375671,1388
820.494202,1361
820.612732,1385
820.731384,1396
820.849915,1362
820.968506,1378
821.087097,1385
821.205627,1389
821.324158,1347
821.442749,1379
821.561279,1363
821.679871,1385
821.798401,1373
821.916931,1374
822.035461,1361
822.154053,1370
822.272583,1371
822.391174,1384
822.509583,1353
822.628174,1369
822.746704,1364
822.865234,1364
822.983765,1353
823.102295,1387
823.220825,1400
823.339294,1366
823.457825,1341
823.576355,1344
823.694824,1349
823.813354,1379
823.931885,1330
824.050354,1369
824.168884,1341
824.287354,1391
824.405823,1359
824.524353,1368
824.642822,1373
824.761353,1319
824.879822,1374
824.998291,1396
825.116699,1353
825.235291,1336
825.353699,1358
825.472168,1341
825.590637,1311
825.709106,1344
825.827576,1363
825.946045,1335
826.064453,1341
826.182983,1345
826.301392,1325
826.4198,1335
826.53833,1341
826.656738,1351
826.775208,1359
826.893677,1401
827.012024,1328
827.130493,1366
827.248962,1296
827.36731,1323
827.485779,1309
827.604248,1358
827.722595,1343
827.841064,1300
827.959412,1296
828.077942,1293
828.196289,1324
828.314636,1323
828.433105,1321
828.551514,1350
828.669861,1323
828.78833,1322
828.906677,1274
829.025085,1301
829.143433,1310
829.261841,1315
829.38031,1298
829.498657,1317
829.617004,1332
829.735413,1265
829.85376,1337
829.972107,1305
830.090515,1293
830.208862,1320
830.327209,1308
830.445557,1318
830.563904,1317
830.682312,1295
830.800659,1307
830.919006,1301
831.037354,1286
831.155701,1307
831.274048,1343
831.392395,1330
831.51062,1336
831.629028,1290
831.747314,1287
831.865662,1335
831.984009,1313
832.102356,1312
832.220642,1301
832.338928,1302
832.457275,1332
832.575623,1344
832.693909,1333
832.812134,1307
832.930481,1367
833.048828,1328
833.167114,1318
833.2854,1326
833.403687,1348
833.521973,1352
833.640259,1307
833.758545,1273
833.876831,1301
833.995056,1324
834.113281,1280
834.231628,1289
834.349915,1299
834.468201,1298
834.586426,1342
834.704651,1290
834.822998,1293
834.941162,1314
835.059448,1310
835.177673,1303
835.295959,1287
835.414246,1284
835.53241,1356
835.650635,1283
835.768921,1310
835.887146,1351
836.005371,1314
836.123596,1326
836.241821,1321
836.360046,1331
836.478271,1308
836.596497,1333
836.714722,1335
836.832886,1303
836.95105,1356
837.069336,1369
837.1875,1304
837.305725,1320
837.423889,1356
837.542053,1349
837.660339,1363
837.778503,1320
837.896667,1343
838.014832,1319
838.132996,1335
838.25116,1331
838.369385,1311
838.487488,1321
838.605713,1301
838.723877,1314
838.84198,1305
838.960205,1331
839.078308,1370
839.196472,1306
839.314636,1290
839.4328,1353
839.550964,1304
839.669067,1306
839.787231,1335
839.905396,1313
840.023499,1303
840.141602,1316
840.259766,1314
840.377869,1294
840.495972,1322
840.614136,1347
840.732239,1331
840.850342,1296
840.968445,1370
841.086548,1350
841.204651,1320
841.322754,1329
841.440918,1284
841.55896,1297
841.677002,1308
841.795166,1288
841.913208,1280
842.031311,1252
842.149353,1303
842.267456,1307
842.385498,1282
842.503601,1303
842.621643,1277
842.739746,1261
842.857788,1308
842.97583,1281
843.093933,1265
843.211975,1330
843.330017,1281
843.44812,1322
843.566101,1326
843.684204,1295
843.802246,1285
843.920227,1294
844.038269,1307
844.156311,1320
844.274292,1273
844.392395,1311
844.510376,1305
844.628357,1270
844.74646,1273
844.864441,1297
844.982422,1288
845.100403,1262
845.218384,1278
845.336426,1291
845.454468,1326
845.572449,1296
845.69043,1282
845.808411,1313
845.926453,1299
846.044373,1301
846.162354,1281
846.280396,1324
846.398315,1293
846.516296,1309
846.634216,1291
846.752197,1286
846.870178,1278
846.988098,1285
847.106079,1292
847.22406,1269
847.34198,1280
847.4599,1292
847.577881,1321
847.695801,1299
847.813782,1321
847.931641,1295
848.049561,1292
848.167603,1304
848.285461,1288
848.403381,1294
848.521362,1272
848.639221,1273
848.75708,1328
848.875,1327
848.99292,1268
849.110901,1305
849.22876,1300
849.34668,1339
849.464539,1297
849.582458,1293
849.700317,1293
849.818176,1288
849.936096,1335
850.053955,1290
850.171875,1293
850.289673,1343
850.407593,1309
850.525452,1292
850.643311,1315
850.761169,1314
850.878967,1314
850.996887,1299
851.114746,1316
851.232544,1322
851.350403,1303
851.468262,1305
851.58606,1313
851.703979,1331
851.821777,1288
851.939636,1270
852.057434,1320
852.175232,1298
852.293091,1279
852.410889,1337
852.528687,1278
852.646545,1324
852.764343,1278
852.88208,1345
852.999939,1321
853.117676,1285
853.235535,1332
853.353271,1284
853.471069,1303
853.588928,1320
853.706604,1345
853.824402,1305
853.9422,1305
854.059998,1288
854.177734,1319
854.295532,1325
854.413269,1276
854.531006,1298
854.648804,1255
854.766541,1315
854.884277,1324
855.002014,1274
855.119751,1262
855.237549,1279
855.355225,1328
855.473022,1318
855.590698,1335
855.708435,1318
855.826172,1307
855.943848,1355
856.061646,1324
856.179321,1308
856.296997,1323
856.414795,1314
856.53241,1317
856.650085,1294
856.767822,1295
856.885559,1343
857.003174,1307
857.120911,1330
857.238586,1275
857.356201,1374
857.473938,1327
857.591614,1355
857.709351,1316
857.826965,1308
857.944641,1260
858.062317,1311
858.179993,1313
858.297668,1309
858.415283,1332
858.532959,1337
858.650574,1324
858.768188,1375
858.885803,1314
859.003479,1304
859.121094,1318
859.23877,1315
859.356384,1336
859.473999,1321
859.591675,1339
859.709229,1297
859.826843,1323
859.944458,1298
860.062012,1291
860.179626,1311
860.297302,1307
860.414856,1276
860.532471,1327
860.650024,1302
860.767639,1294
860.885193,1305
861.002808,1272
861.120361,1329
861.237976,1285
861.35553,1326
861.473022,1289
861.590698,1301
861.708191,1319
861.825745,1302
861.943298,1317
862.060852,1358
862.178406,1291
862.295959,1357
862.413513,1268
862.531006,1305
862.64856,1337
862.766113,1343
862.883667,1308
863.00116,1332
863.118713,1326
863.236206,1345
863.353699,1354
863.471252,1332
863.588745,1301
863.706177,1306
863.82373,1349
863.941162,1361
864.058716,1316
864.176208,1354
864.29364,1346
864.411194,1334
864.528687,1303
864.646118,1350
864.763611,1310
864.881042,1320
864.998535,1345
865.116028,1346
865.233459,1329
865.350891,1319
865.468384,1354
865.585754,1330
865.703308,1334
865.820679,1358
865.938171,1342
866.055542,1377
866.173035,1352
866.290466,1283
866.407837,1321
866.52533,1330
866.6427,1352
866.760071,1344
866.877563,1333
866.994934,1329
867.112305,1315
867.229736,1348
867.347107,1332
867.464539,1326
867.58197,1355
867.699341,1339
867.81665,1355
867.934082,1299
868.051453,1330
868.168823,1344
868.286194,1359
868.403564,1353
868.520935,1304
868.638306,1332
868.755676,1295
868.872986,1324
868.990295,1348
869.107727,1342
869.225037,1299
869.342346,1344
869.459717,1326
869.577026,1344
869.694336,1339
869.811707,1335
869.929016,1339
870.046326,1320
870.163635,1362
870.280945,1302
870.398254,1298
870.515564,1307
870.632812,1349
870.750183,1352
870.867432,1336
870.984741,1295
871.102051,1316
871.219299,1348
871.336609,1345
871.453918,1335
871.571106,1357
871.688416,1377
871.805664,1316
871.922852,1398
872.040222,1297
872.157471,1340
872.274719,1359
872.391968,1346
872.509155,1314
872.626465,1340
872.743652,1295
872.860962,1367
872.978149,1314
873.095337,1355
873.212646,1331
873.329834,1354
873.44696,1331
873.564209,1346
873.681396,1308
873.798645,1308
873.915894,1383
874.03302,1373
874.150208,1362
874.267456,1332
874.384583,1329
874.501831,1329
874.618958,1321
874.736145,1330
874.853333,1336
874.970459,1368
875.087646,1370
875.204834,1353
875.32196,1328
875.439148,1324
875.556274,1342
875.673401,1347
875.790527,1350
875.907715,1343
876.024841,1349
876.141968,1396
876.259094,1313
876.376282,1353
876.493347,1365
876.610474,1365
876.7276,1382
876.844727,1361
876.961853,1335
877.078918,1347
877.195984,1389
877.313171,1345
877.430237,1363
877.547302,1331
877.664368,1373
877.781433,1367
877.898499,1340
878.015625,1330
878.13269,1330
878.249695,1387
878.366821,1355
878.483887,1321
878.600952,1348
878.717957,1378
878.834961,1365
878.952087,1355
879.069092,1386
879.186157,1358
879.303162,1322
879.420227,1382
879.537231,1360
879.654236,1352
879.77124,1362
879.888306,1363
880.005249,1313
880.122314,1386
880.239319,1398
880.356323,1351
880.473328,1369
880.590271,1329
880.707275,1333
880.824341,1338
880.941284,1342
881.058228,1358
881.175232,1381
881.292236,1346
881.40918,1343
881.526123,1361
881.643066,1341
881.760071,1363
881.877014,1339
881.993958,1438
882.11084,1356
882.227783,1337
882.344727,1369
882.46167,1334
882.578613,1348
882.695618,1416
882.812439,1408
882.929382,1378
883.046326,1340
883.163208,1380
883.280151,1358
883.397034,1381
883.513916,1372
883.630798,1361
883.747742,1385
883.864563,1356
883.981506,1349
884.098389,1355
884.21521,1382
884.332153,1383
884.448975,1357
884.565796,1354
884.682678,1378
884.7995,1373
884.916443,1367
885.033264,1364
885.150085,1385
885.266968,1393
885.383789,1418
885.500671,1387
885.617493,1417
885.734314,1414
885.851196,1399
885.967896,1390
886.084717,1335
886.201599,1374
886.318359,1367
886.435181,1384
886.552002,1406
886.668762,1389
886.785645,1372
886.902344,1367
887.019165,1397
887.135925,1392
887.252747,1412
887.369446,1427
887.486267,1378
887.603027,1370
887.719788,1396
887.836548,1382
887.953247,1358
888.070068,1398
888.186829,1421
888.303528,1382
888.420288,1394
888.536987,1359
888.653687,1362
888.770447,1399
888.887146,1371
889.003967,1381
889.120667,1339
889.237305,1411
889.354065,1420
889.470703,1426
889.587463,1369
889.704163,1417
889.820862,1378
889.937561,1421
890.054199,1390
890.170837,1389
890.287598,1396
890.404236,1359
890.520874,1443
890.637634,1433
890.754211,1420
890.87085,1374
890.987549,1379
891.104187,1369
891.220886,1387
891.337463,1370
891.454102,1414
891.57074,1422
891.687378,1398
891.804077,1432
891.920654,1410
892.037231,1386
892.15387,1380
892.270447,1397
892.387085,1405
892.503723,1426
892.6203,1418
892.736877,1356
892.853516,1398
892.970032,1439
893.08667,1379
893.203186,1416
893.319763,1385
893.43634,1414
893.552917,1412
893.669556,1429
893.786011,1421
893.902588,1380
894.019165,1417
894.135681,1396
894.252197,1438
894.368835,1443
894.485291,1436
894.601868,1400
894.718384,1390
894.8349,1370
894.951355,1399
895.067932,1367
895.184448,1415
895.300964,1417
895.417419,1376
895.533936,1420
895.650452,1404
895.766907,1418
895.883423,1444
895.999878,1385
896.116333,1434
896.232849,1448
896.349304,1425
896.465759,1443
896.582214,1370
896.698669,1372
896.815125,1404
896.931641,1386
897.048035,1436
897.164551,1412
897.280884,1410
897.397339,1406
897.513794,1462
897.630249,1409
897.746582,1408
897.863098,1453
897.979431,1468
898.095886,1449
898.212341,1426
898.328674,1444
898.445129,1413
898.561462,1435
898.677795,1423
898.794312,1411
898.910645,1372
899.026978,1450
899.143433,1405
899.259766,1408
899.37616,1361
899.492493,1421
899.608765,1401
899.725159,1406
899.841553,1434
899.957947,1407
900.07428,1411
900.190552,1451
900.306946,1455
900.423157,1384
900.53949,1415
900.655884,1444
900.772156,1423
900.888489,1413
901.004822,1433
901.121033,1406
901.237366,1410
901.353699,1461
901.46991,1417
901.586304,1462
901.702515,1457
901.818787,1393
901.93512,1478
902.051331,1445
902.167603,1438
902.283875,1442
902.400085,1446
902.516418,1458
902.632629,1433
902.74884,1426
902.865112,1414
902.981384,1425
903.097595,1418
903.213867,1445
903.330017,1450
903.446289,1435
903.5625,1463
903.67865,1459
903.794922,1467
903.911072,1393
904.027344,1433
904.143494,1446
904.259705,1452
904.375916,1445
904.492065,1423
904.608215,1449
904.724426,1423
904.840576,1414
904.956726,1503
905.072876,1396
905.189087,1503
905.305176,1422
905.421387,1457
905.537537,1466
905.653687,1464
905.769775,1491
905.885925,1495
906.002014,1429
906.118164,1412
906.234314,1468
906.350403,1454
906.466492,1453
906.582642,1460
906.69873,1460
906.814758,1446
906.930908,1421
907.046936,1435
907.163086,1456
907.279175,1453
907.395264,1496
907.511353,1477
907.62738,1470
907.743408,1455
907.859497,1481
907.975525,1434
908.091553,1473
908.207703,1485
908.32373,1459
908.439758,1459
908.555786,1427
908.671814,1428
908.787842,1476
908.90387,1498
909.019775,1464
909.135864,1487
909.251892,1499
909.367859,1504
909.483826,1453
909.599854,1514
909.715881,1432
909.831848,1523
909.947815,1454
910.063782,1448
910.179749,1426
910.295776,1512
910.411743,1483
910.527649,1457
910.643616,1466
910.759583,1487
910.875488,1507
910.991455,1481
911.107361,1473
911.223267,1481
911.339294,1466
911.4552,1460
911.571106,1480
911.687073,1463
911.802979,1446
911.918823,1429
912.034729,1480
912.150635,1486
912.266602,1454
912.382446,1435
912.498352,1468
912.614197,1438
912.730103,1474
912.846008,1473
