792.44574,2477
792.56488,2438
792.68396,2429
792.80304,2364
792.92218,2320
793.041199,2213
793.160339,2183
793.279419,2231
793.398499,2221
793.517578,2102
793.636658,2076
793.755737,2132
793.874817,2089
793.993896,2066
794.112976,2031
794.232056,2047
794.351074,2059
794.470215,2031
794.589233,1953
794.708313,1947
794.827393,1984
794.946411,1960
795.065552,1927
795.18457,1881
795.303589,1949
795.422668,1894
795.541687,1888
795.660767,1894
795.779846,1796
795.898865,1857
796.017883,1875
796.136963,1826
796.255981,1780
796.375061,1825
796.49408,1836
796.613037,1823
796.732117,1737
796.851135,1793
796.970154,1794
797.089233,1759
797.208191,1776
797.327271,1744
797.446228,1785
797.565186,1717
797.684265,1686
797.803223,1730
797.922241,1751
798.04126,1698
798.160278,1704
798.279297,1699
798.398315,1707
798.517273,1672
798.636292,1722
798.75531,1721
798.874268,1719
798.993286,1683
799.112244,1681
799.231323,1707
799.350281,1671
799.469238,1731
799.588257,1657
799.707153,1692
799.826111,1679
799.945129,1703
800.064087,1668
800.183044,1709
800.302063,1685
800.421021,1676
800.539978,1747
800.658936,1642
800.777893,1653
800.896912,1648
801.015747,1663
801.134705,1649
801.253723,1677
801.37262,1652
801.491638,1677
801.610535,1651
801.729492,1653
801.84845,1628
801.967407,1630
802.086243,1676
802.205261,1649
802.324158,1627
802.443115,1636
802.562073,1623
802.680969,1640
802.799927,1672
802.918762,1672
803.037659,1652
803.156677,1635
803.275574,1662
803.39447,1649
803.513428,1661
803.632263,1554
803.751221,1569
803.870117,1637
803.989014,1656
804.107971,1633
804.226746,1638
804.345642,1604
804.4646,1629
804.583496,1590
804.702393,1650
804.821228,1618
804.940125,1585
805.059021,1598
805.177917,1588
805.296814,1600
805.415649,1591
805.534546,1648
805.653442,1637
805.772278,1645
805.891113,1643
806.01001,1622
806.128906,1600
806.247742,1595
806.366577,1598
806.485413,1608
806.604309,1611
806.723145,1557
806.84198,1576
806.960876,1552
807.079712,1616
807.198486,1596
807.317383,1567
807.436218,1549
807.554993,1594
807.673889,1589
807.792725,1609
807.91156,1639
808.030396,1633
808.14917,1598
808.268005,1628
808.386841,1629
808.505676,1629
808.624451,1590
808.743286,1562
808.862122,1598
808.980896,1573
809.099731,1544
809.218506,1597
809.337341,1602
809.456116,1587
809.57489,1609
809.693726,1619
809.8125,1582
809.931274,1609
810.050049,1612
810.168884,1585
810.287659,1599
810.406372,1633
810.525269,1595
810.643982,1579
810.762756,1612
810.881531,1572
811.000305,1547
811.11908,1612
811.237854,1597
811.356567,1604
811.475403,1572
811.594116,1573
811.71283,1604
811.831604,1620
811.950378,1631
812.069153,1604
812.187927,1619
812.30658,1636
812.425415,1627
812.544128,1622
812.662781,1614
812.781616,1581
812.900269,1563
813.019043,1615
813.137756,1584
813.256531,1585
813.375244,1609
813.493896,1630
813.612671,1577
813.731384,1579
813.850037,1563
813.96875,1549
814.087524,1566
814.206238,1547
814.324951,1555
814.443604,1595
814.562256,1536
814.68103,1614
814.799683,1596
814.918335,1588
815.037109,1570
815.155762,1547
815.274475,1541
815.393188,1583
815.511841,1562
815.630554,1563
815.749146,1564
815.867859,1513
815.986572,1541
816.105164,1515
816.223877,1556
816.342529,1560
816.461182,1518
816.579895,1555
816.698486,1597
816.817139,1571
816.935791,1551
817.054504,1586
817.173096,1573
817.291748,1519
817.4104,1616
817.529053,1543
817.647644,1530
817.766235,1505
817.884949,1483
818.00354,1520
818.122192,1510
818.240845,1503
818.359436,1496
818.478088,1509
818.59668,1495
818.715271,1432
818.833923,1441
818.952515,1447
819.071106,1476
819.189758,1442
819.30835,1417
819.426941,1438
819.545532,1450
819.664124,1427
819.782715,1415
819.901306,1441
820.019897,1410
820.138489,1424
820.25708,1406
820.375671,1386
820.494202,1431
820.612732,1399
820.731384,1418
820.849915,1383
820.968506,1374
821.087097,1403
821.205627,1410
821.324158,1399
821.442749,1369
821.561279,1431
821.679871,1336
821.798401,1364
821.916931,1360
822.035461,1351
822.154053,1426
822.272583,1324
822.391174,1359
822.509583,1346
822.628174,1381
822.746704,1362
822.865234,1377
822.983765,1332
823.102295,1394
823.220825,1397
823.339294,1392
823.457825,1388
823.576355,1398
823.694824,1377
823.813354,1394
823.931885,1405
824.050354,1359
824.168884,1423
824.287354,1350
824.405823,1380
824.524353,1377
824.642822,1363
824.761353,1379
824.879822,1381
824.998291,1370
825.116699,1390
825.235291,1371
825.353699,1392
825.472168,1320
825.590637,1340
825.709106,1369
825.827576,1383
825.946045,1357
826.064453,1333
826.182983,1370
826.301392,1358
826.4198,1312
826.53833,1336
826.656738,1341
826.775208,1344
826.893677,1353
827.012024,1329
827.130493,1332
827.248962,1379
827.36731,1306
827.485779,1337
827.604248,1359
827.722595,1316
827.841064,1363
827.959412,1344
828.077942,1306
828.196289,1308
828.314636,1295
828.433105,1314
828.551514,1300
828.669861,1309
828.78833,1300
828.906677,1338
829.025085,1291
829.143433,1341
829.261841,1296
829.38031,1343
829.498657,1363
829.617004,1324
829.735413,1305
829.85376,1320
829.972107,1315
830.090515,1332
830.208862,1304
830.327209,1329
830.445557,1290
830.563904,1343
830.682312,1287
830.800659,1345
830.919006,1303
831.037354,1313
831.155701,1363
831.274048,1352
831.392395,1329
831.51062,1315
831.629028,1364
831.747314,1310
831.865662,1305
831.984009,1349
832.102356,1356
832.220642,1339
832.338928,1384
832.457275,1329
832.575623,1359
832.693909,1347
832.812134,1346
832.930481,1352
833.048828,1316
833.167114,1281
833.2854,1360
833.403687,1339
833.521973,1300
833.640259,1325
833.758545,1321
833.876831,1302
833.995056,1318
834.113281,1354
834.231628,1341
834.349915,1351
834.468201,1298
834.586426,1335
834.704651,1283
834.822998,1312
834.941162,1327
835.059448,1348
835.177673,1352
835.295959,1319
835.414246,1322
835.53241,1302
835.650635,1300
835.768921,1320
835.887146,1342
836.005371,1306
836.123596,1321
836.241821,1354
836.360046,1291
836.478271,1347
836.596497,1306
836.714722,1325
836.832886,1343
836.95105,1317
837.069336,1350
837.1875,1376
837.305725,1325
837.423889,1333
837.542053,1327
837.660339,1336
837.778503,1340
837.896667,1320
838.014832,1324
838.132996,1334
838.25116,1333
838.369385,1329
838.487488,1370
838.605713,1369
838.723877,1344
838.84198,1346
838.960205,1324
839.078308,1354
839.196472,1359
839.314636,1330
839.4328,1349
839.550964,1349
839.669067,1353
839.787231,1365
839.905396,1331
840.023499,1361
840.141602,1361
840.259766,1368
840.377869,1333
840.495972,1370
840.614136,1368
840.732239,1353
840.850342,1340
840.968445,1402
841.086548,1378
841.204651,1371
841.322754,1353
841.440918,1372
841.55896,1391
841.677002,1336
841.795166,1376
841.913208,1370
842.031311,1374
842.149353,1365
842.267456,1356
842.385498,1358
842.503601,1346
842.621643,1374
842.739746,1375
842.857788,1339
842.97583,1367
843.093933,1360
843.211975,1356
843.330017,1403
843.44812,1346
843.566101,1343
843.684204,1338
843.802246,1351
843.920227,1332
844.038269,1351
844.156311,1338
844.274292,1322
844.392395,1367
844.510376,1355
844.628357,1355
844.74646,1372
844.864441,1340
844.982422,1325
845.100403,1333
845.218384,1341
845.336426,1370
845.454468,1318
845.572449,1361
845.69043,1324
845.808411,1343
845.926453,1359
846.044373,1339
846.162354,1271
846.280396,1340
846.398315,1340
846.516296,1350
846.634216,1323
846.752197,1320
846.870178,1308
846.988098,1363
847.106079,1350
847.22406,1321
847.34198,1350
847.4599,1369
847.577881,1332
847.695801,1304
847.813782,1372
847.931641,1317
848.049561,1350
848.167603,1344
848.285461,1340
848.403381,1333
848.521362,1327
848.639221,1360
848.75708,1316
848.875,1347
848.99292,1379
849.110901,1308
849.22876,1343
849.34668,1383
849.464539,1305
849.582458,1395
849.700317,1352
849.818176,1367
849.936096,1375
850.053955,1341
850.171875,1373
850.289673,1324
850.407593,1358
850.525452,1363
850.643311,1315
850.761169,1340
850.878967,1430
850.996887,1351
851.114746,1359
851.232544,1306
851.350403,1339
851.468262,1351
851.58606,1348
851.703979,1312
851.821777,1352
851.939636,1361
852.057434,1366
852.175232,1325
852.293091,1330
852.410889,1351
852.528687,1420
852.646545,1393
852.764343,1439
852.88208,1391
852.999939,1375
853.117676,1353
853.235535,1368
853.353271,1345
853.471069,1363
853.588928,1326
853.706604,1336
853.824402,1364
853.9422,1355
854.059998,1347
854.177734,1362
854.295532,1365
854.413269,1407
854.531006,1360
854.648804,1362
854.766541,1348
854.884277,1372
855.002014,1335
855.119751,1390
855.237549,1384
855.355225,1331
855.473022,1351
855.590698,1393
855.708435,1372
855.826172,1349
855.943848,1345
856.061646,1401
856.179321,1327
856.296997,1380
856.414795,1341
856.53241,1376
856.650085,1358
856.767822,1392
856.885559,1390
857.003174,1383
857.120911,1378
857.238586,1376
857.356201,1373
857.473938,1396
857.591614,1374
857.709351,1407
857.826965,1347
857.944641,1395
858.062317,1362
858.179993,1381
858.297668,1376
858.415283,1360
858.532959,1388
858.650574,1350
858.768188,1383
858.885803,1417
859.003479,1345
859.121094,1347
859.23877,1401
859.356384,1411
859.473999,1374
859.591675,1356
859.709229,1348
859.826843,1362
859.944458,1344
860.062012,1330
860.179626,1363
860.297302,1321
860.414856,1362
860.532471,1323
860.650024,1406
860.767639,1334
860.885193,1365
861.002808,1364
861.120361,1358
861.237976,1351
861.35553,1335
861.473022,1368
861.590698,1338
861.708191,1352
861.825745,1327
861.943298,1374
862.060852,1347
862.178406,1365
862.295959,1347
862.413513,1339
862.531006,1287
862.64856,1356
862.766113,1338
862.883667,1316
863.00116,1339
863.118713,1311
863.236206,1357
863.353699,1321
863.471252,1363
863.588745,1287
863.706177,1346
863.82373,1331
863.941162,1353
864.058716,1409
864.176208,1348
864.29364,1360
864.411194,1382
864.528687,1328
864.646118,1336
864.763611,1327
864.881042,1356
864.998535,1359
865.116028,1333
865.233459,1351
865.350891,1328
865.468384,1351
865.585754,1312
865.703308,1314
865.820679,1364
865.938171,1348
866.055542,1342
866.173035,1371
866.290466,1341
866.407837,1367
866.52533,1356
866.6427,1367
866.760071,1301
866.877563,1349
866.994934,1400
867.112305,1327
867.229736,1331
867.347107,1352
867.464539,1383
867.58197,1337
867.699341,1378
867.81665,1334
867.934082,1371
868.051453,1351
868.168823,1310
868.286194,1320
868.403564,1318
868.520935,1355
868.638306,1317
868.755676,1366
868.872986,1345
868.990295,1368
869.107727,1350
869.225037,1364
869.342346,1373
869.459717,1395
869.577026,1353
869.694336,1397
869.811707,1339
869.929016,1392
870.046326,1397
870.163635,1403
870.280945,1340
870.398254,1394
870.515564,1407
870.632812,1413
870.750183,1434
870.867432,1411
870.984741,1354
871.102051,1374
871.219299,1333
871.336609,1424
871.453918,1437
871.571106,1413
871.688416,1425
871.805664,1402
871.922852,1410
872.040222,1433
872.157471,1425
872.274719,1441
872.391968,1413
872.509155,1435
872.626465,1400
872.743652,1438
872.860962,1398
872.978149,1419
873.095337,1388
873.212646,1431
873.329834,1360
873.44696,1379
873.564209,1383
873.681396,1394
873.798645,1371
873.915894,1394
874.03302,1400
874.150208,1426
874.267456,1415
874.384583,1415
874.501831,1385
874.618958,1431
874.736145,1422
874.853333,1450
874.970459,1450
875.087646,1405
875.204834,1399
875.32196,1389
875.439148,1439
875.556274,1404
875.673401,1403
875.790527,1367
875.907715,1397
876.024841,1405
876.141968,1431
876.259094,1398
876.376282,1436
876.493347,1366
876.610474,1374
876.7276,1426
876.844727,1392
876.961853,1369
877.078918,1427
877.195984,1335
877.313171,1394
877.430237,1392
877.547302,1379
877.664368,1366
877.781433,1403
877.898499,1387
878.015625,1345
878.13269,1403
878.249695,1384
878.366821,1395
878.483887,1381
878.600952,1343
878.717957,1372
878.834961,1357
878.952087,1363
879.069092,1376
879.186157,1395
879.303162,1323
879.420227,1351
879.537231,1334
879.654236,1364
879.77124,1349
879.888306,1352
880.005249,1345
880.122314,1343
880.239319,1369
880.356323,1361
880.473328,1329
880.590271,1327
880.707275,1369
880.824341,1355
880.941284,1364
881.058228,1381
881.175232,1352
881.292236,1352
881.40918,1354
881.526123,1332
881.643066,1341
881.760071,1359
881.877014,1364
881.993958,1384
882.11084,1347
882.227783,1361
882.344727,1365
882.46167,1335
882.578613,1343
882.695618,1313
882.812439,1358
882.929382,1373
883.046326,1342
883.163208,1363
883.280151,1366
883.397034,1374
883.513916,1369
883.630798,1341
883.747742,1341
883.864563,1383
883.981506,1364
884.098389,1413
884.21521,1355
884.332153,1395
884.448975,1422
884.565796,1438
884.682678,1449
884.7995,1404
884.916443,1468
885.033264,1485
885.150085,1452
885.266968,1522
885.383789,1524
885.500671,1490
885.617493,1495
885.734314,1536
885.851196,1459
885.967896,1531
886.084717,1504
886.201599,1522
886.318359,1502
886.435181,1494
886.552002,1520
886.668762,1507
886.785645,1485
886.902344,1448
887.019165,1460
887.135925,1450
887.252747,1451
887.369446,1490
887.486267,1454
887.603027,1405
887.719788,1449
887.836548,1418
887.953247,1417
888.070068,1388
888.186829,1434
888.303528,1412
888.420288,1390
888.536987,1386
888.653687,1379
888.770447,1365
888.887146,1373
889.003967,1377
889.120667,1356
889.237305,1356
889.354065,1360
889.470703,1343
889.587463,1383
889.704163,1325
889.820862,1366
889.937561,1376
890.054199,1355
890.170837,1381
890.287598,1374
890.404236,1343
890.520874,1357
890.637634,1377
890.754211,1380
890.87085,1322
890.987549,1398
891.104187,1370
891.220886,1363
891.337463,1376
891.454102,1347
891.57074,1421
891.687378,1391
891.804077,1358
891.920654,1436
892.037231,1369
892.15387,1374
892.270447,1351
892.387085,1385
892.503723,1380
892.6203,1402
892.736877,1349
892.853516,1406
892.970032,1386
893.08667,1370
893.203186,1371
893.319763,1356
893.43634,1405
893.552917,1315
893.669556,1400
893.786011,1416
893.902588,1394
894.019165,1377
894.135681,1385
894.252197,1345
894.368835,1368
894.485291,1391
894.601868,1393
894.718384,1369
894.8349,1413
894.951355,1376
895.067932,1349
895.184448,1381
895.300964,1354
895.417419,1424
895.533936,1381
895.650452,1378
895.766907,1367
895.883423,1366
895.999878,1356
896.116333,1390
896.232849,1341
896.349304,1413
896.465759,1382
896.582214,1367
896.698669,1341
896.815125,1441
896.931641,1364
897.048035,1409
897.164551,1382
897.280884,1359
897.397339,1383
897.513794,1387
897.630249,1394
897.746582,1380
897.863098,1413
897.979431,1373
898.095886,1354
898.212341,1374
898.328674,1421
898.445129,1383
898.561462,1417
898.677795,1368
898.794312,1407
898.910645,1374
899.026978,1387
899.143433,1368
899.259766,1425
899.37616,1382
899.492493,1399
899.608765,1392
899.725159,1423
899.841553,1378
899.957947,1399
900.07428,1387
900.190552,1422
900.306946,1396
900.423157,1425
900.53949,1380
900.655884,1409
900.772156,1401
900.888489,1405
901.004822,1392
901.121033,1415
901.237366,1401
901.353699,1404
901.46991,1387
901.586304,1409
901.702515,1427
901.818787,1405
901.93512,1443
902.051331,1432
902.167603,1438
902.283875,1466
902.400085,1475
902.516418,1467
902.632629,1458
902.74884,1460
902.865112,1510
902.981384,1460
903.097595,1492
903.213867,1480
903.330017,1475
903.446289,1478
903.5625,1472
903.67865,1422
903.794922,1517
903.911072,1445
904.027344,1460
904.143494,1461
904.259705,1452
904.375916,1437
904.492065,1437
904.608215,1404
904.724426,1440
904.840576,1436
904.956726,1420
905.072876,1442
905.189087,1423
905.305176,1406
905.421387,1421
905.537537,1439
905.653687,1428
905.769775,1406
905.885925,1357
906.002014,1389
906.118164,1404
906.234314,1434
906.350403,1390
906.466492,1458
906.582642,1425
906.69873,1396
906.814758,1395
906.930908,1393
907.046936,1375
907.163086,1408
907.279175,1418
907.395264,1419
907.511353,1391
907.62738,1403
907.743408,1406
907.859497,1401
907.975525,1399
908.091553,1393
908.207703,1394
908.32373,1428
908.439758,1426
908.555786,1384
908.671814,1433
908.787842,1421
908.90387,1403
909.019775,1411
909.135864,1392
909.251892,1422
909.367859,1411
909.483826,1413
909.599854,1383
909.715881,1441
909.831848,1431
909.947815,1468
910.063782,1404
910.179749,1401
910.295776,1395
910.411743,1435
910.527649,1406
910.643616,1427
910.759583,1392
910.875488,1390
910.991455,1363
911.107361,1404
911.223267,1396
911.339294,1421
911.4552,1405
911.571106,1420
911.687073,1407
911.802979,1424
911.918823,1447
912.034729,1407
912.150635,1405
912.266602,1447
912.382446,1414
912.498352,1371
912.614197,1393
912.730103,1402
912.846008,1399
792.44574,2494
792.56488,2427
792.68396,2487
792.80304,2379
792.92218,2376
793.041199,2259
793.160339,2278
793.279419,2274
793.398499,2255
793.517578,2189
793.636658,2168
793.755737,2170
793.874817,2146
793.993896,2181
794.112976,2068
794.232056,2052
794.351074,2060
794.470215,2033
794.589233,2028
794.708313,1963
794.827393,1996
794.946411,1975
795.065552,1976
795.18457,1924
795.303589,1888
795.422668,1971
795.541687,1997
795.660767,1894
795.779846,1855
795.898865,1883
796.017883,1910
796.136963,1851
796.255981,1865
796.375061,1874
796.49408,1874
796.613037,1837
796.732117,1824
796.851135,1820
796.970154,1803
797.089233,1803
797.208191,1809
797.327271,1768
797.446228,1811
797.565186,1809
797.684265,1766
797.803223,1740
797.922241,1773
798.04126,1734
798.160278,1758
798.279297,1712
798.398315,1743
798.517273,1777
798.636292,1742
798.75531,1719
798.874268,1713
798.993286,1717
799.112244,1730
799.231323,1736
799.350281,1726
799.469238,1701
799.588257,1740
799.707153,1689
799.826111,1756
799.945129,1714
800.064087,1732
800.183044,1697
800.302063,1699
800.421021,1725
800.539978,1714
800.658936,1665
800.777893,1720
800.896912,1680
801.015747,1691
801.134705,1704
801.253723,1681
801.37262,1679
801.491638,1654
801.610535,1681
801.729492,1661
801.84845,1653
801.967407,1707
802.086243,1702
802.205261,1674
802.324158,1669
802.443115,1666
802.562073,1672
802.680969,1703
802.799927,1695
802.918762,1665
803.037659,1670
803.156677,1655
803.275574,1642
803.39447,1610
803.513428,1687
803.632263,1628
803.751221,1587
803.870117,1693
803.989014,1686
804.107971,1671
804.226746,1667
804.345642,1658
804.4646,1656
804.583496,1663
804.702393,1635
804.821228,1688
804.940125,1608
805.059021,1616
805.177917,1625
805.296814,1600
805.415649,1642
805.534546,1650
805.653442,1641
805.772278,1664
805.891113,1645
806.01001,1657
806.128906,1654
806.247742,1634
806.366577,1646
806.485413,1631
806.604309,1651
806.723145,1631
806.84198,1656
806.960876,1615
807.079712,1607
807.198486,1666
807.317383,1676
807.436218,1657
807.554993,1642
807.673889,1667
807.792725,1659
807.91156,1611
808.030396,1659
808.14917,1638
808.268005,1599
808.386841,1649
808.505676,1648
808.624451,1634
808.743286,1627
808.862122,1627
808.980896,1603
809.099731,1576
809.218506,1612
809.337341,1600
809.456116,1610
809.57489,1618
809.693726,1645
809.8125,1602
809.931274,1636
810.050049,1631
810.168884,1629
810.287659,1612
810.406372,1606
810.525269,1616
810.643982,1648
810.762756,1642
810.881531,1597
811.000305,1638
811.11908,1626
811.237854,1614
811.356567,1650
811.475403,1626
811.594116,1633
811.71283,1666
811.831604,1648
811.950378,1638
812.069153,1646
812.187927,1629
812.30658,1610
812.425415,1657
812.544128,1615
812.662781,1693
812.781616,1639
812.900269,1638
813.019043,1628
813.137756,1630
813.256531,1665
813.375244,1633
813.493896,1610
813.612671,1634
813.731384,1593
813.850037,1634
813.96875,1581
814.087524,1615
814.206238,1630
814.324951,1617
814.443604,1614
814.562256,1588
814.68103,1617
814.799683,1599
814.918335,1589
815.037109,1588
815.155762,1619
815.274475,1585
815.393188,1635
815.511841,1609
815.630554,1532
815.749146,1625
815.867859,1559
815.986572,1581
816.105164,1535
816.223877,1570
816.342529,1592
816.461182,1541
816.579895,1579
816.698486,1582
816.817139,1556
816.935791,1582
817.054504,1591
817.173096,1606
817.291748,1602
817.4104,1533
817.529053,1520
817.647644,1563
817.766235,1580
817.884949,1508
818.00354,1525
818.122192,1525
818.240845,1516
818.359436,1501
818.478088,1466
818.59668,1519
818.715271,1483
818.833923,1455
818.952515,1473
819.071106,1487
819.189758,1443
819.30835,1483
819.426941,1467
819.545532,1433
819.664124,1429
819.782715,1402
819.901306,1469
820.019897,1430
820.138489,1459
820.25708,1429
820.375671,1433
820.494202,1442
820.612732,1455
820.731384,1458
820.849915,1395
820.968506,1434
821.087097,1463
821.205627,1450
821.324158,1383
821.442749,1392
821.561279,1416
821.679871,1423
821.798401,1379
821.916931,1447
822.035461,1433
822.154053,1394
822.272583,1385
822.391174,1448
822.509583,1359
822.628174,1398
822.746704,1395
822.865234,1396
822.983765,1427
823.102295,1392
823.220825,1365
823.339294,1399
823.457825,1401
823.576355,1441
823.694824,1371
823.813354,1432
823.931885,1390
824.050354,1432
824.168884,1402
824.287354,1370
824.405823,3047
824.524353,1967
824.642822,1436
824.761353,1389
824.879822,1368
824.998291,1414
825.116699,1403
825.235291,1404
825.353699,1382
825.472168,1425
825.590637,1402
825.709106,1400
825.827576,1355
825.946045,1380
826.064453,1397
826.182983,1368
826.301392,1361
826.4198,1407
826.53833,1384
826.656738,1391
826.775208,1373
826.893677,1395
827.012024,1378
827.130493,1345
827.248962,1393
827.36731,1342
827.485779,1368
827.604248,1369
827.722595,1395
827.841064,1367
827.959412,1336
828.077942,1312
828.196289,1376
828.314636,1343
828.433105,1371
828.551514,1344
828.669861,1327
828.78833,1313
828.906677,1309
829.025085,1401
829.143433,1328
829.261841,1377
829.38031,1300
829.498657,1313
829.617004,1365
829.735413,1369
829.85376,1345
829.972107,1343
830.090515,1329
830.208862,1419
830.327209,1311
830.445557,1357
830.563904,1352
830.682312,1343
830.800659,1329
830.919006,1364
831.037354,1362
831.155701,1352
831.274048,1401
831.392395,1367
831.51062,1358
831.629028,1374
831.747314,1342
831.865662,1429
831.984009,1349
832.102356,1403
832.220642,1368
832.338928,1357
832.457275,1359
832.575623,1368
832.693909,1356
832.812134,1350
832.930481,1343
833.048828,1316
833.167114,1368
833.2854,1362
833.403687,1356
833.521973,1350
833.640259,1316
833.758545,1398
833.876831,1324
833.995056,1337
834.113281,1334
834.231628,1392
834.349915,1335
834.468201,1351
834.586426,1394
834.704651,1351
834.822998,1317
834.941162,1379
835.059448,1325
835.177673,1371
835.295959,1350
835.414246,1364
835.53241,1377
835.650635,1358
835.768921,1359
835.887146,1332
836.005371,1321
836.123596,1384
836.241821,1331
836.360046,1385
836.478271,1288
836.596497,1355
836.714722,1357
836.832886,1354
836.95105,1371
837.069336,1372
837.1875,1353
837.305725,1354
837.423889,1332
837.542053,1340
837.660339,1383
837.778503,1370
837.896667,1342
838.014832,1359
838.132996,1378
838.25116,1347
838.369385,1351
838.487488,1421
838.605713,1331
838.723877,1400
838.84198,1376
838.960205,1384
839.078308,1362
839.196472,1369
839.314636,1359
839.4328,1392
839.550964,1347
839.669067,1372
839.787231,1376
839.905396,1381
840.023499,1325
840.141602,1377
840.259766,1389
840.377869,1395
840.495972,1392
840.614136,1427
840.732239,1374
840.850342,1355
840.968445,1425
841.086548,1401
841.204651,1374
841.322754,1364
841.440918,1383
841.55896,1363
841.677002,1435
841.795166,1391
841.913208,1400
842.031311,1356
842.149353,1379
842.267456,1378
842.385498,1408
842.503601,1352
842.621643,1373
842.739746,1375
842.857788,1411
842.97583,1409
843.093933,1372
843.211975,1360
843.330017,1444
843.44812,1396
843.566101,1388
843.684204,1404
843.802246,1398
843.920227,1426
844.038269,1414
844.156311,1374
844.274292,1393
844.392395,1375
844.510376,1385
844.628357,1360
844.74646,1378
844.864441,1364
844.982422,1404
845.100403,1372
845.218384,1349
845.336426,1376
845.454468,1367
845.572449,1351
845.69043,1391
845.808411,1359
845.926453,1327
846.044373,1370
846.162354,1365
846.280396,1338
846.398315,1363
846.516296,1332
846.634216,1347
846.752197,1368
846.870178,1387
846.988098,1373
847.106079,1364
847.22406,1381
847.34198,1344
847.4599,1336
847.577881,1349
847.695801,1399
847.813782,1361
847.931641,1377
848.049561,1381
848.167603,1321
848.285461,1351
848.403381,1337
848.521362,1370
848.639221,1387
848.75708,1385
848.875,1336
848.99292,1405
849.110901,1392
849.22876,1383
849.34668,1360
849.464539,1424
849.582458,1373
849.700317,1370
849.818176,1398
849.936096,1374
850.053955,1396
850.171875,1385
850.289673,1381
850.407593,1383
850.525452,1381
850.643311,1348
850.761169,1371
850.878967,1340
850.996887,1385
851.114746,1352
851.232544,1357
851.350403,1325
851.468262,1332
851.58606,1373
851.703979,1378
851.821777,1394
851.939636,1329
852.057434,1346
852.175232,1386
852.293091,1395
852.410889,1440
852.528687,1418
852.646545,1422
852.764343,1400
852.88208,1392
852.999939,1410
853.117676,1401
853.235535,1406
853.353271,1422
853.471069,1340
853.588928,1383
853.706604,1427
853.824402,1382
853.9422,1350
854.059998,1388
854.177734,1385
854.295532,1353
854.413269,1352
854.531006,1418
854.648804,1396
854.766541,1379
854.884277,1384
855.002014,1357
855.119751,1374
855.237549,1402
855.355225,1388
855.473022,1375
855.590698,1404
855.708435,1383
855.826172,1381
855.943848,1372
856.061646,1347
856.179321,1426
856.296997,1393
856.414795,1396
856.53241,1396
856.650085,1394
856.767822,1391
856.885559,1448
857.003174,1407
857.120911,1444
857.238586,1379
857.356201,1416
857.473938,1380
857.591614,1391
857.709351,1417
857.826965,1404
857.944641,1425
858.062317,1415
858.179993,1454
858.297668,1352
858.415283,1415
858.532959,1407
858.650574,1417
858.768188,1403
858.885803,1366
859.003479,1376
859.121094,1420
859.23877,1393
859.356384,1399
859.473999,1374
859.591675,1410
859.709229,1383
859.826843,1411
859.944458,1372
860.062012,1367
860.179626,1397
860.297302,1370
860.414856,1385
860.532471,1385
860.650024,1389
860.767639,1394
860.885193,1393
861.002808,1353
861.120361,1416
861.237976,1373
861.35553,1385
861.473022,1391
861.590698,1358
861.708191,1415
861.825745,1402
861.943298,1392
862.060852,1377
862.178406,1370
862.295959,1352
862.413513,1341
862.531006,1333
862.64856,1355
862.766113,1340
862.883667,1368
863.00116,1398
863.118713,1359
863.236206,1336
863.353699,1310
863.471252,1353
863.588745,1380
863.706177,1357
863.82373,1385
863.941162,1390
864.058716,1349
864.176208,1364
864.29364,1363
864.411194,1410
864.528687,1387
864.646118,1387
864.763611,1380
864.881042,1375
864.998535,1382
865.116028,1359
865.233459,1344
865.350891,1386
865.468384,1363
865.585754,1350
865.703308,1385
865.820679,1371
865.938171,1407
866.055542,1367
866.173035,1366
866.290466,1362
866.407837,1360
866.52533,1368
866.6427,1390
866.760071,1370
866.877563,1382
866.994934,1381
867.112305,1351
867.229736,1343
867.347107,1364
867.464539,1358
867.58197,1421
867.699341,1354
867.81665,1367
867.934082,1384
868.051453,1330
868.168823,1418
868.286194,1368
868.403564,1419
868.520935,1355
868.638306,1396
868.755676,1432
868.872986,1362
868.990295,1352
869.107727,1395
869.225037,1363
869.342346,1400
869.459717,1368
869.577026,1430
869.694336,1396
869.811707,1383
869.929016,1388
870.046326,1457
870.163635,1411
870.280945,1423
870.398254,1377
870.515564,1383
870.632812,1403
870.750183,1451
870.867432,1433
870.984741,1391
871.102051,1423
871.219299,1439
871.336609,1429
871.453918,1433
871.571106,1468
871.688416,1432
871.805664,1414
871.922852,1405
872.040222,1402
872.157471,1439
872.274719,1423
872.391968,1421
872.509155,1433
872.626465,1427
872.743652,1456
872.860962,1416
872.978149,1420
873.095337,1449
873.212646,1413
873.329834,1400
873.44696,1374
873.564209,1409
873.681396,1405
873.798645,1418
873.915894,1437
874.03302,1420
874.150208,1464
874.267456,1401
874.384583,1446
874.501831,1462
874.618958,1448
874.736145,1456
874.853333,1458
874.970459,1462
875.087646,1432
875.204834,1435
875.32196,1405
875.439148,1472
875.556274,1432
875.673401,1455
875.790527,1469
875.907715,1415
876.024841,1397
876.141968,1430
876.259094,1430
876.376282,1425
876.493347,1416
876.610474,1430
876.7276,1382
876.844727,1415
876.961853,1409
877.078918,1392
877.195984,1413
877.313171,1397
877.430237,1442
877.547302,1374
877.664368,1425
877.781433,1412
877.898499,1436
878.015625,1377
878.13269,1395
878.249695,1383
878.366821,1399
878.483887,1380
878.600952,1388
878.717957,1412
878.834961,1390
878.952087,1429
879.069092,1367
879.186157,1372
879.303162,1384
879.420227,1391
879.537231,1374
879.654236,1440
879.77124,1379
879.888306,1381
880.005249,1353
880.122314,1374
880.239319,1374
880.356323,1374
880.473328,1395
880.590271,1383
880.707275,1407
880.824341,1396
880.941284,1356
881.058228,1354
881.175232,1360
881.292236,1405
881.40918,1365
881.526123,1401
881.643066,1382
881.760071,1393
881.877014,1386
881.993958,1405
882.11084,1392
882.227783,1435
882.344727,1328
882.46167,1391
882.578613,1360
882.695618,1386
882.812439,1422
882.929382,1377
883.046326,1355
883.163208,1386
883.280151,1413
883.397034,1379
883.513916,1403
883.630798,1397
883.747742,1399
883.864563,1388
883.981506,1432
884.098389,1392
884.21521,1401
884.332153,1413
884.448975,1454
884.565796,1428
884.682678,1439
884.7995,1470
884.916443,1493
885.033264,1530
885.150085,1528
885.266968,1526
885.383789,1545
885.500671,1527
885.617493,1579
885.734314,1545
885.851196,1540
885.967896,1547
886.084717,1543
886.201599,1572
886.318359,1555
886.435181,1499
886.552002,1525
886.668762,1503
886.785645,1518
886.902344,1501
887.019165,1493
887.135925,1524
887.252747,1504
887.369446,1473
887.486267,1438
887.603027,1445
887.719788,1440
887.836548,1417
887.953247,1448
888.070068,1431
888.186829,1413
888.303528,1433
888.420288,1433
888.536987,1418
888.653687,1396
888.770447,1397
888.887146,1404
889.003967,1387
889.120667,1396
889.237305,1391
889.354065,1410
889.470703,1387
889.587463,1403
889.704163,1402
889.820862,1421
889.937561,1445
890.054199,1384
890.170837,1398
890.287598,1366
890.404236,1407
890.520874,1372
890.637634,1395
890.754211,1361
890.87085,1391
890.987549,1437
891.104187,1417
891.220886,1411
891.337463,1408
891.454102,1409
891.57074,1391
891.687378,1393
891.804077,1438
891.920654,1394
892.037231,1383
892.15387,1405
892.270447,1399
892.387085,1416
892.503723,1419
892.6203,1374
892.736877,1431
892.853516,1363
892.970032,1427
893.08667,1383
893.203186,1421
893.319763,1420
893.43634,1364
893.552917,1433
893.669556,1397
893.786011,1395
893.902588,1398
894.019165,1417
894.135681,1370
894.252197,1421
894.368835,1416
894.485291,1461
894.601868,1386
894.718384,1472
894.8349,1349
894.951355,1426
895.067932,1374
895.184448,1378
895.300964,1417
895.417419,1438
895.533936,1422
895.650452,1419
895.766907,1397
895.883423,1420
895.999878,1381
896.116333,1444
896.232849,1390
896.349304,1417
896.465759,1419
896.582214,1404
896.698669,1400
896.815125,1380
896.931641,1429
897.048035,1368
897.164551,1407
897.280884,1428
897.397339,1417
897.513794,1397
897.630249,1402
897.746582,1408
897.863098,1446
897.979431,1437
898.095886,1426
898.212341,1450
898.328674,1434
898.445129,1410
898.561462,1404
898.677795,1419
898.794312,1419
898.910645,1444
899.026978,1415
899.143433,1428
899.259766,1427
899.37616,1415
899.492493,1464
899.608765,1432
899.725159,1426
899.841553,1411
899.957947,1447
900.07428,1457
900.190552,1397
900.306946,1480
900.423157,1457
900.53949,1430
900.655884,1430
900.772156,1452
900.888489,1422
901.004822,1456
901.121033,1448
901.237366,1451
901.353699,1462
901.46991,1403
901.586304,1458
901.702515,1419
901.818787,1432
901.93512,1502
902.051331,1457
902.167603,1447
902.283875,1492
902.400085,1497
902.516418,1482
902.632629,1460
902.74884,1531
902.865112,1549
902.981384,1508
903.097595,1456
903.213867,1531
903.330017,1538
903.446289,1498
903.5625,1523
903.67865,1516
903.794922,1493
903.911072,1497
904.027344,1450
904.143494,1461
904.259705,1463
904.375916,1460
904.492065,1461
904.608215,1459
904.724426,1490
904.840576,1406
904.956726,1465
905.072876,1443
905.189087,1444
905.305176,1454
905.421387,1461
905.537537,1496
905.653687,1397
905.769775,1464
905.885925,1461
906.002014,1438
906.118164,1439
906.234314,1437
906.350403,1448
906.466492,1477
906.582642,1437
906.69873,1451
906.814758,1456
906.930908,1459
907.046936,1452
907.163086,1435
907.279175,1400
907.395264,1441
907.511353,1409
907.62738,1454
907.743408,1444
907.859497,1418
907.975525,1444
908.091553,1429
908.207703,1411
908.32373,1435
908.439758,1434
908.555786,1448
908.671814,1429
908.787842,1438
908.90387,1413
909.019775,1418
909.135864,1448
909.251892,1475
909.367859,1482
909.483826,1457
909.599854,1454
909.715881,1445
909.831848,1468
909.947815,1432
910.063782,1453
910.179749,1444
910.295776,1469
910.411743,1438
910.527649,1467
910.643616,1463
910.759583,1461
910.875488,1477
910.991455,1417
911.107361,1447
911.223267,1443
911.339294,1439
911.4552,1488
911.571106,1415
911.687073,1466
911.802979,1444
911.918823,1405
912.034729,1485
912.150635,1441
912.266602,1472
912.382446,1437
912.498352,1429
912.614197,1431
912.730103,1454
912.846008,1435
792.44574,2530
792.56488,2472
792.68396,2477
792.80304,2441
792.92218,2331
793.041199,2217
793.160339,2261
793.279419,2244
793.398499,2258
793.517578,2214
793.636658,2129
793.755737,2175
793.874817,2175
793.993896,2132
794.112976,2110
794.232056,2085
794.351074,2041
794.470215,2062
794.589233,2026
794.708313,2040
794.827393,1991
794.946411,1962
795.065552,1978
795.18457,1949
795.303589,1963
795.422668,1952
795.541687,1934
795.660767,1898
795.779846,1943
795.898865,1882
796.017883,1855
796.136963,1840
796.255981,1804
796.375061,1888
796.49408,1859
796.613037,1821
796.732117,1824
796.851135,1841
796.970154,1881
797.089233,1806
797.208191,1816
797.327271,1807
797.446228,1824
797.565186,1765
797.684265,1778
797.803223,1779
797.922241,1750
798.04126,1720
798.160278,1751
798.279297,1764
798.398315,1750
798.517273,1748
798.636292,1747
798.75531,1768
798.874268,1746
798.993286,1729
799.112244,1758
799.231323,1713
799.350281,1744
799.469238,1680
799.588257,1704
799.707153,1729
799.826111,1720
799.945129,1688
800.064087,1740
800.183044,1732
800.302063,1757
800.421021,1715
800.539978,1733
800.658936,1686
800.777893,1697
800.896912,1698
801.015747,1705
801.134705,1658
801.253723,1644
801.37262,1661
801.491638,1690
801.610535,1668
801.729492,1732
801.84845,1703
801.967407,1639
802.086243,1679
802.205261,1683
802.324158,1682
802.443115,1671
802.562073,1684
802.680969,1691
802.799927,1696
802.918762,1628
803.037659,1651
803.156677,1647
803.275574,1640
803.39447,1702
803.513428,1681
803.632263,1682
803.751221,1660
803.870117,1696
803.989014,1671
804.107971,1646
804.226746,1667
804.345642,1656
804.4646,1650
804.583496,1676
804.702393,1649
804.821228,1669
804.940125,1655
805.059021,1666
805.177917,1657
805.296814,1689
805.415649,1627
805.534546,1663
805.653442,1644
805.772278,1676
805.891113,1639
806.01001,1671
806.128906,1665
806.247742,1648
806.366577,1641
806.485413,1657
806.604309,1708
806.723145,1684
806.84198,1649
806.960876,1667
807.079712,1669
807.198486,1665
807.317383,1651
807.436218,1647
807.554993,1626
807.673889,1674
807.792725,1652
807.91156,1658
808.030396,1631
808.14917,1652
808.268005,1649
808.386841,1613
808.505676,1640
808.624451,1650
808.743286,1623
808.862122,1651
808.980896,1608
809.099731,1638
809.218506,1629
809.337341,1627
809.456116,1628
809.57489,1629
809.693726,1622
809.8125,1703
809.931274,1669
810.050049,1677
810.168884,1625
810.287659,1631
810.406372,1623
810.525269,1656
810.643982,1611
810.762756,1620
810.881531,1598
811.000305,1652
811.11908,1628
811.237854,1629
811.356567,1588
811.475403,1622
811.594116,1635
811.71283,1608
811.831604,1577
811.950378,1629
812.069153,1639
812.187927,1690
812.30658,1649
812.425415,1615
812.544128,1684
812.662781,1653
812.781616,1638
812.900269,1663
813.019043,1619
813.137756,1644
813.256531,1614
813.375244,1631
813.493896,1650
813.612671,1622
813.731384,1659
813.850037,1702
813.96875,1603
814.087524,1608
814.206238,1629
814.324951,1647
814.443604,1642
814.562256,1578
814.68103,1635
814.799683,1663
814.918335,1617
815.037109,1583
815.155762,1610
815.274475,1588
815.393188,1596
815.511841,1560
815.630554,1602
815.749146,1581
815.867859,1599
815.986572,1586
816.105164,1556
816.223877,1587
816.342529,1619
816.461182,1571
816.579895,1586
816.698486,1595
816.817139,1563
816.935791,1596
817.054504,1626
817.173096,1622
817.291748,1560
817.4104,1611
817.529053,1550
817.647644,1552
817.766235,1521
817.884949,1556
818.00354,1532
818.122192,1533
818.240845,1486
818.359436,1528
818.478088,1523
818.59668,1490
818.715271,1474
818.833923,1506
818.952515,1471
819.071106,1490
819.189758,1485
819.30835,1445
819.426941,1488
819.545532,1454
819.664124,1467
819.782715,1464
819.901306,1392
820.019897,1438
820.138489,1469
820.25708,1445
820.375671,1420
820.494202,1471
820.612732,1428
820.731384,1403
820.849915,1415
820.968506,1407
821.087097,1429
821.205627,1395
821.324158,1439
821.442749,1389
821.561279,1459
821.679871,1415
821.798401,1397
821.916931,1403
822.035461,1425
822.154053,1424
822.272583,1395
822.391174,1462
822.509583,1425
822.628174,1418
822.746704,1378
822.865234,1449
822.983765,1389
823.102295,1399
823.220825,1435
823.339294,1406
823.457825,1433
823.576355,1414
823.694824,1417
823.813354,1432
823.931885,1427
824.050354,1400
824.168884,1434
824.287354,1404
824.405823,1408
824.524353,1427
824.642822,1420
824.761353,1424
824.879822,1455
824.998291,1397
825.116699,1384
825.235291,1413
825.353699,1379
825.472168,1416
825.590637,1386
825.709106,1381
825.827576,1381
825.946045,1403
826.064453,1373
826.182983,1391
826.301392,1354
826.4198,1385
826.53833,1393
826.656738,1391
826.775208,1375
826.893677,1348
827.012024,1366
827.130493,1357
827.248962,1342
827.36731,1358
827.485779,1379
827.604248,1355
827.722595,1375
827.841064,1377
827.959412,1411
828.077942,1348
828.196289,1360
828.314636,1356
828.433105,1339
828.551514,1363
828.669861,1344
828.78833,1369
828.906677,1339
829.025085,1345
829.143433,1395
829.261841,1370
829.38031,1371
829.498657,1339
829.617004,1370
829.735413,1337
829.85376,1351
829.972107,1334
830.090515,1365
830.208862,1377
830.327209,1331
830.445557,1347
830.563904,1369
830.682312,1359
830.800659,1350
830.919006,1387
831.037354,1349
831.155701,1377
831.274048,1394
831.392395,1401
831.51062,1413
831.629028,1355
831.747314,1389
831.865662,1410
831.984009,1360
832.102356,1383
832.220642,1384
832.338928,1365
832.457275,1343
832.575623,1390
832.693909,1365
832.812134,1360
832.930481,1323
833.048828,1394
833.167114,1389
833.2854,1342
833.403687,1423
833.521973,1376
833.640259,1351
833.758545,1325
833.876831,1363
833.995056,1336
834.113281,1357
834.231628,1356
834.349915,1361
834.468201,1323
834.586426,1374
834.704651,1377
834.822998,1387
834.941162,1357
835.059448,1390
835.177673,1383
835.295959,1335
835.414246,1324
835.53241,1370
835.650635,1356
835.768921,1356
835.887146,1332
836.005371,1355
836.123596,1335
836.241821,1360
836.360046,1325
836.478271,1327
836.596497,1363
836.714722,1354
836.832886,1341
836.95105,1346
837.069336,1387
837.1875,1357
837.305725,1381
837.423889,1371
837.542053,1372
837.660339,1352
837.778503,1361
837.896667,1396
838.014832,1391
838.132996,1349
838.25116,1376
838.369385,1334
838.487488,1392
838.605713,1393
838.723877,1369
838.84198,1342
838.960205,1379
839.078308,1385
839.196472,1361
839.314636,1374
839.4328,1371
839.550964,1375
839.669067,1319
839.787231,1374
839.905396,1375
840.023499,1386
840.141602,1380
840.259766,1403
840.377869,1426
840.495972,1409
840.614136,1410
840.732239,1394
840.850342,1431
840.968445,1395
841.086548,1423
841.204651,1352
841.322754,1388
841.440918,1411
841.55896,1355
841.677002,1386
841.795166,1406
841.913208,1357
842.031311,1436
842.149353,1417
842.267456,1414
842.385498,1359
842.503601,1403
842.621643,1372
842.739746,1367
842.857788,1317
842.97583,1469
843.093933,1374
843.211975,1407
843.330017,1429
843.44812,1411
843.566101,1363
843.684204,1419
843.802246,1354
843.920227,1395
844.038269,1431
844.156311,1393
844.274292,1386
844.392395,1369
844.510376,1353
844.628357,1349
844.74646,1395
844.864441,1385
844.982422,1434
845.100403,1381
845.218384,1369
845.336426,1379
845.454468,1367
845.572449,1358
845.69043,1342
845.808411,1357
845.926453,1404
846.044373,1393
846.162354,1365
846.280396,1394
846.398315,1359
846.516296,1362
846.634216,1376
846.752197,1398
846.870178,1373
846.988098,1388
847.106079,1360
847.22406,1359
847.34198,1347
847.4599,1378
847.577881,1368
847.695801,1389
847.813782,1317
847.931641,1383
848.049561,1424
848.167603,1369
848.285461,1390
848.403381,1353
848.521362,1379
848.639221,1340
848.75708,1404
848.875,1377
848.99292,1411
849.110901,1406
849.22876,1393
849.34668,1384
849.464539,1394
849.582458,1357
849.700317,1422
849.818176,1336
849.936096,1353
850.053955,1418
850.171875,1385
850.289673,1418
850.407593,1375
850.525452,1386
850.643311,1368
850.761169,1373
850.878967,1366
850.996887,1432
851.114746,1380
851.232544,1369
851.350403,1383
851.468262,1377
851.58606,1408
851.703979,1362
851.821777,1368
851.939636,1420
852.057434,1409
852.175232,1399
852.293091,1395
852.410889,1413
852.528687,1437
852.646545,1429
852.764343,1439
852.88208,1421
852.999939,1447
853.117676,1408
853.235535,1362
853.353271,1433
853.471069,1410
853.588928,1384
853.706604,1392
853.824402,1408
853.9422,1406
854.059998,1365
854.177734,1352
854.295532,1403
854.413269,1385
854.531006,1380
854.648804,1380
854.766541,1376
854.884277,1349
855.002014,1374
855.119751,1387
855.237549,1378
855.355225,1393
855.473022,1414
855.590698,1433
855.708435,1386
855.826172,1351
855.943848,1371
856.061646,1384
856.179321,1391
856.296997,1400
856.414795,1408
856.53241,1453
856.650085,1394
856.767822,1434
856.885559,1418
857.003174,1434
857.120911,1440
857.238586,1382
857.356201,1415
857.473938,1432
857.591614,1386
857.709351,1435
857.826965,1421
857.944641,1425
858.062317,1399
858.179993,1396
858.297668,1411
858.415283,1438
858.532959,1454
858.650574,1417
858.768188,1389
858.885803,1413
859.003479,1390
859.121094,1380
859.23877,1411
859.356384,1393
859.473999,1418
859.591675,1404
859.709229,1395
859.826843,1360
859.944458,1395
860.062012,1427
860.179626,1358
860.297302,1392
860.414856,1337
860.532471,1331
860.650024,1369
860.767639,1383
860.885193,1359
861.002808,1383
861.120361,1390
861.237976,1358
861.35553,1387
861.473022,1364
861.590698,1375
861.708191,1389
861.825745,1379
861.943298,1371
862.060852,1367
862.178406,1357
862.295959,1369
862.413513,1393
862.531006,1385
862.64856,1372
862.766113,1373
862.883667,1425
863.00116,1370
863.118713,1350
863.236206,1380
863.353699,1385
863.471252,1363
863.588745,1387
863.706177,1340
863.82373,1390
863.941162,1389
864.058716,1371
864.176208,1396
864.29364,1392
864.411194,1395
864.528687,1370
864.646118,1360
864.763611,1363
864.881042,1415
864.998535,1393
865.116028,1394
865.233459,1388
865.350891,1377
865.468384,1348
865.585754,1371
865.703308,1377
865.820679,1386
865.938171,1357
866.055542,1396
866.173035,1349
866.290466,1368
866.407837,1354
866.52533,1364
866.6427,1384
866.760071,1373
866.877563,1381
866.994934,1403
867.112305,1400
867.229736,1370
867.347107,1382
867.464539,1373
867.58197,1373
867.699341,1415
867.81665,1384
867.934082,1383
868.051453,1408
868.168823,1399
868.286194,1423
868.403564,1370
868.520935,1399
868.638306,1377
868.755676,1360
868.872986,1400
868.990295,1454
869.107727,1437
869.225037,1382
869.342346,1420
869.459717,1409
869.577026,1416
869.694336,1425
869.811707,1439
869.929016,1412
870.046326,1394
870.163635,1402
870.280945,1468
870.398254,1440
870.515564,1444
870.632812,1465
870.750183,1425
870.867432,1427
870.984741,1399
871.102051,1487
871.219299,1400
871.336609,1447
871.453918,1462
871.571106,1444
871.688416,1476
871.805664,1424
871.922852,1469
872.040222,1454
872.157471,1456
872.274719,1458
872.391968,1476
872.509155,1436
872.626465,1491
872.743652,1416
872.860962,1428
872.978149,1400
873.095337,1422
873.212646,1403
873.329834,1483
873.44696,1427
873.564209,1447
873.681396,1422
873.798645,1419
873.915894,1424
874.03302,1406
874.150208,1449
874.267456,1427
874.384583,1433
874.501831,1487
874.618958,1459
874.736145,1510
874.853333,1465
874.970459,1425
875.087646,1469
875.204834,1448
875.32196,1450
875.439148,1440
875.556274,1417
875.673401,1430
875.790527,1392
875.907715,1471
876.024841,1394
876.141968,1421
876.259094,1431
876.376282,1439
876.493347,1381
876.610474,1470
876.7276,1440
876.844727,1394
876.961853,1432
877.078918,1428
877.195984,1460
877.313171,1401
877.430237,1431
877.547302,1443
877.664368,1416
877.781433,1408
877.898499,1415
878.015625,1446
878.13269,1408
878.249695,1417
878.366821,1395
878.483887,1404
878.600952,1386
878.717957,1386
878.834961,1426
878.952087,1371
879.069092,1418
879.186157,1409
879.303162,1377
879.420227,1446
879.537231,1379
879.654236,1422
879.77124,1402
879.888306,1393
880.005249,1384
880.122314,1383
880.239319,1406
880.356323,1380
880.473328,1392
880.590271,1420
880.707275,1395
880.824341,1387
880.941284,1434
881.058228,1389
881.175232,1397
881.292236,1419
881.40918,1387
881.526123,1398
881.643066,1418
881.760071,1324
881.877014,1411
881.993958,1369
882.11084,1402
882.227783,1367
882.344727,1389
882.46167,1392
882.578613,1422
882.695618,1417
882.812439,1380
882.929382,1377
883.046326,1392
883.163208,1401
883.280151,1409
883.397034,1370
883.513916,1439
883.630798,1405
883.747742,1375
883.864563,1435
883.981506,1384
884.098389,1377
884.21521,1428
884.332153,1438
884.448975,1411
884.565796,1428
884.682678,1456
884.7995,1433
884.916443,1497
885.033264,1493
885.150085,1528
885.266968,1533
885.383789,1506
885.500671,1556
885.617493,1553
885.734314,1578
885.851196,1535
885.967896,1558
886.084717,1516
886.201599,1580
886.318359,1530
886.435181,1572
886.552002,1536
886.668762,1527
886.785645,1556
886.902344,1484
887.019165,1505
887.135925,1521
887.252747,1483
887.369446,1547
887.486267,1458
887.603027,1451
887.719788,1448
887.836548,1455
887.953247,1431
888.070068,1455
888.186829,1421
888.303528,1435
888.420288,1443
888.536987,1451
888.653687,1410
888.770447,1421
888.887146,1380
889.003967,1421
889.120667,1422
889.237305,1400
889.354065,1399
889.470703,1443
889.587463,1421
889.704163,1416
889.820862,1406
889.937561,1381
890.054199,1404
890.170837,1382
890.287598,1468
890.404236,1418
890.520874,1382
890.637634,1432
890.754211,1403
890.87085,1403
890.987549,1409
891.104187,1414
891.220886,1430
891.337463,1439
891.454102,1434
891.57074,1438
891.687378,1413
891.804077,1426
891.920654,1408
892.037231,1431
892.15387,1395
892.270447,1463
892.387085,1399
892.503723,1406
892.6203,1378
892.736877,1453
892.853516,1403
892.970032,1444
893.08667,1409
893.203186,1408
893.319763,1400
893.43634,1468
893.552917,1425
893.669556,1425
893.786011,1410
893.902588,1418
894.019165,1426
894.135681,1415
894.252197,1401
894.368835,1420
894.485291,1376
894.601868,1418
894.718384,1444
894.8349,1431
894.951355,1401
895.067932,1400
895.184448,1415
895.300964,1422
895.417419,1407
895.533936,1376
895.650452,1431
895.766907,1395
895.883423,1423
895.999878,1404
896.116333,1445
896.232849,1410
896.349304,1444
896.465759,1443
896.582214,1395
896.698669,1443
896.815125,1394
896.931641,1422
897.048035,1446
897.164551,1407
897.280884,1427
897.397339,1413
897.513794,1410
897.630249,1419
897.746582,1418
897.863098,1445
897.979431,1447
898.095886,1425
898.212341,1412
898.328674,1431
898.445129,1447
898.561462,1416
898.677795,1456
898.794312,1402
898.910645,1413
899.026978,1441
899.143433,1428
899.259766,1420
899.37616,1438
899.492493,1417
899.608765,1437
899.725159,1440
899.841553,1410
899.957947,1449
900.07428,1437
900.190552,1471
900.306946,1440
900.423157,1465
900.53949,1462
900.655884,1426
900.772156,1476
900.888489,1442
901.004822,1452
901.121033,1439
901.237366,1480
901.353699,1439
901.46991,1450
901.586304,1464
901.702515,1430
901.818787,1436
901.93512,1419
902.051331,1500
902.167603,1445
902.283875,1506
902.400085,1504
902.516418,1554
902.632629,1502
902.74884,1521
902.865112,1514
902.981384,1503
903.097595,1502
903.213867,1548
903.330017,1491
903.446289,1523
903.5625,1491
903.67865,1455
903.794922,1499
903.911072,1494
904.027344,1507
904.143494,1501
904.259705,1490
904.375916,1513
904.492065,1514
904.608215,1493
904.724426,1509
904.840576,1412
904.956726,1442
905.072876,1498
905.189087,1427
905.305176,1486
905.421387,1469
905.537537,1455
905.653687,1494
905.769775,1486
905.885925,1444
906.002014,1480
906.118164,1461
906.234314,1462
906.350403,1445
906.466492,1437
906.582642,1480
906.69873,1437
906.814758,1453
906.930908,1500
907.046936,1400
907.163086,1472
907.279175,1474
907.395264,1488
907.511353,1473
907.62738,1481
907.743408,1421
907.859497,1465
907.975525,1410
908.091553,1465
908.207703,1443
908.32373,1467
908.439758,1415
908.555786,1453
908.671814,1457
908.787842,1454
908.90387,1487
909.019775,1483
909.135864,1456
909.251892,1463
909.367859,1482
909.483826,1460
909.599854,1449
909.715881,1494
909.831848,1452
909.947815,1440
910.063782,1475
910.179749,1490
910.295776,1485
910.411743,1474
910.527649,1448
910.643616,1489
910.759583,1454
910.875488,1454
910.991455,1461
911.107361,1462
911.223267,1461
911.339294,1461
911.4552,1460
911.571106,1414
911.687073,1456
911.802979,1479
911.918823,1441
912.034729,1430
912.150635,1430
912.266602,1437
912.382446,1492
912.498352,1416
912.614197,1464
912.730103,1435
912.846008,1420
