792.44574,2165
792.56488,2088
792.68396,2170
792.80304,2082
792.92218,2061
793.041199,2049
793.160339,2051
793.279419,2070
793.398499,2046
793.517578,2067
793.636658,2048
793.755737,2029
793.874817,2100
793.993896,2008
794.112976,2010
794.232056,1996
794.351074,1968
794.470215,1978
794.589233,1950
794.708313,2014
794.827393,1959
794.946411,1964
795.065552,1916
795.18457,1955
795.303589,1991
795.422668,1912
795.541687,1992
795.660767,1955
795.779846,1910
795.898865,1875
796.017883,1905
796.136963,1953
796.255981,1927
796.375061,1942
796.49408,1883
796.613037,1929
796.732117,1865
796.851135,1882
796.970154,1891
797.089233,1893
797.208191,1883
797.327271,1951
797.446228,1931
797.565186,1885
797.684265,1910
797.803223,1901
797.922241,1894
798.04126,1873
798.160278,1865
798.279297,1908
798.398315,1879
798.517273,1908
798.636292,1863
798.75531,1972
798.874268,1928
798.993286,1915
799.112244,1868
799.231323,1895
799.350281,1880
799.469238,1919
799.588257,1915
799.707153,1947
799.826111,1923
799.945129,1887
800.064087,1869
800.183044,1925
800.302063,1926
800.421021,1867
800.539978,1915
800.658936,1901
800.777893,1885
800.896912,1900
801.015747,1941
801.134705,1946
801.253723,1900
801.37262,1919
801.491638,1901
801.610535,1901
801.729492,1911
801.84845,1890
801.967407,1929
802.086243,1928
802.205261,1925
802.324158,1951
802.443115,1965
802.562073,1971
802.680969,1953
802.799927,1956
802.918762,1991
803.037659,1984
803.156677,1958
803.275574,1978
803.39447,1984
803.513428,2019
803.632263,1988
803.751221,2012
803.870117,1996
803.989014,1989
804.107971,1981
804.226746,2005
804.345642,2046
804.4646,2033
804.583496,2048
804.702393,2053
804.821228,2017
804.940125,2005
805.059021,2032
805.177917,2072
805.296814,2045
805.415649,2024
805.534546,2068
805.653442,2083
805.772278,2075
805.891113,2056
806.01001,2064
806.128906,2081
806.247742,2067
806.366577,2040
806.485413,2068
806.604309,2106
806.723145,2026
806.84198,2111
806.960876,2095
807.079712,2084
807.198486,2053
807.317383,2078
807.436218,2103
807.554993,2071
807.673889,2108
807.792725,2110
807.91156,2105
808.030396,2149
808.14917,2100
808.268005,2126
808.386841,2160
808.505676,2191
808.624451,2064
808.743286,2160
808.862122,2135
808.980896,2155
809.099731,2216
809.218506,2150
809.337341,2091
809.456116,2167
809.57489,2156
809.693726,2115
809.8125,2174
809.931274,2211
810.050049,2171
810.168884,2214
810.287659,2155
810.406372,2190
810.525269,2134
810.643982,2190
810.762756,2162
810.881531,2175
811.000305,2210
811.11908,2152
811.237854,2172
811.356567,2181
811.475403,2141
811.594116,2175
811.71283,2208
811.831604,2122
811.950378,2197
812.069153,2210
812.187927,2189
812.30658,2192
812.425415,2195
812.544128,2143
812.662781,2169
812.781616,2149
812.900269,2152
813.019043,2203
813.137756,2202
813.256531,2182
813.375244,2169
813.493896,2241
813.612671,2249
813.731384,2137
813.850037,2221
813.96875,2193
814.087524,2174
814.206238,2135
814.324951,2167
814.443604,2137
814.562256,2163
814.68103,2191
814.799683,2121
814.918335,2132
815.037109,2095
815.155762,2157
815.274475,2122
815.393188,2088
815.511841,2142
815.630554,2148
815.749146,2093
815.867859,2045
815.986572,2021
816.105164,2073
816.223877,2008
816.342529,2098
816.461182,2110
816.579895,2074
816.698486,2130
816.817139,2108
816.935791,2103
817.054504,2093
817.173096,2085
817.291748,2090
817.4104,2051
817.529053,2041
817.647644,2033
817.766235,1949
817.884949,1924
818.00354,1907
818.122192,1859
818.240845,1796
818.359436,1767
818.478088,1723
818.59668,1764
818.715271,1694
818.833923,1647
818.952515,1617
819.071106,1645
819.189758,1659
819.30835,1650
819.426941,1587
819.545532,1568
819.664124,1548
819.782715,1549
819.901306,1569
820.019897,1498
820.138489,1566
820.25708,1510
820.375671,1550
820.494202,1485
820.612732,1511
820.731384,1498
820.849915,1509
820.968506,1504
821.087097,1502
821.205627,1470
821.324158,1474
821.442749,1495
821.561279,1482
821.679871,1501
821.798401,1445
821.916931,1456
822.035461,1460
822.154053,1464
822.272583,1428
822.391174,1466
822.509583,1457
822.628174,1450
822.746704,1462
822.865234,1456
822.983765,1458
823.102295,1447
823.220825,1444
823.339294,1478
823.457825,1430
823.576355,1446
823.694824,1493
823.813354,1460
823.931885,1448
824.050354,1454
824.168884,1489
824.287354,1439
824.405823,1437
824.524353,1460
824.642822,1451
824.761353,1468
824.879822,1506
824.998291,1440
825.116699,1506
825.235291,1462
825.353699,1502
825.472168,1409
825.590637,1460
825.709106,1441
825.827576,1420
825.946045,1372
826.064453,1450
826.182983,1456
826.301392,1418
826.4198,1399
826.53833,1409
826.656738,1362
826.775208,1397
826.893677,1411
827.012024,1378
827.130493,1374
827.248962,1391
827.36731,1396
827.485779,1362
827.604248,1370
827.722595,1373
827.841064,1365
827.959412,1383
828.077942,1391
828.196289,1358
828.314636,1361
828.433105,1361
828.551514,1367
828.669861,1358
828.78833,1355
828.906677,1349
829.025085,1355
829.143433,1363
829.261841,1374
829.38031,1341
829.498657,1357
829.617004,1343
829.735413,1347
829.85376,1324
829.972107,1335
830.090515,1312
830.208862,1351
830.327209,1357
830.445557,1320
830.563904,1380
830.682312,1348
830.800659,1361
830.919006,1377
831.037354,1364
831.155701,1335
831.274048,1372
831.392395,1367
831.51062,1398
831.629028,1328
831.747314,1344
831.865662,1352
831.984009,1328
832.102356,1329
832.220642,1354
832.338928,1350
832.457275,1342
832.575623,1312
832.693909,1318
832.812134,1360
832.930481,1351
833.048828,1329
833.167114,1326
833.2854,1351
833.403687,1316
833.521973,1287
833.640259,1349
833.758545,1336
833.876831,1316
833.995056,1340
834.113281,1305
834.231628,1373
834.349915,1312
834.468201,1331
834.586426,1380
834.704651,1305
834.822998,1412
834.941162,1319
835.059448,1403
835.177673,1364
835.295959,1364
835.414246,1349
835.53241,1355
835.650635,1357
835.768921,1344
835.887146,1348
836.005371,1388
836.123596,1379
836.241821,1390
836.360046,1398
836.478271,1386
836.596497,1415
836.714722,1419
836.832886,1449
836.95105,1411
837.069336,1441
837.1875,1439
837.305725,1455
837.423889,1399
837.542053,1434
837.660339,1425
837.778503,1412
837.896667,1437
838.014832,1441
838.132996,1398
838.25116,1426
838.369385,1442
838.487488,1458
838.605713,1418
838.723877,1417
838.84198,1422
838.960205,1454
839.078308,1407
839.196472,1415
839.314636,1404
839.4328,1359
839.550964,1378
839.669067,1439
839.787231,1363
839.905396,1390
840.023499,1372
840.141602,1365
840.259766,1407
840.377869,1339
840.495972,1369
840.614136,1421
840.732239,1404
840.850342,1391
840.968445,1415
841.086548,1373
841.204651,1386
841.322754,1340
841.440918,1388
841.55896,1358
841.677002,1329
841.795166,1376
841.913208,1335
842.031311,1413
842.149353,1327
842.267456,1320
842.385498,1321
842.503601,1338
842.621643,1335
842.739746,1350
842.857788,1359
842.97583,1314
843.093933,1341
843.211975,1314
843.330017,1359
843.44812,1294
843.566101,1338
843.684204,1315
843.802246,1284
843.920227,1316
844.038269,1319
844.156311,1337
844.274292,1366
844.392395,1345
844.510376,1311
844.628357,1289
844.74646,1322
844.864441,1321
844.982422,1312
845.100403,1330
845.218384,1316
845.336426,1311
845.454468,1307
845.572449,1307
845.69043,1334
845.808411,1317
845.926453,1312
846.044373,1331
846.162354,1327
846.280396,1307
846.398315,1337
846.516296,1289
846.634216,1301
846.752197,1297
846.870178,1331
846.988098,1285
847.106079,1340
847.22406,1305
847.34198,1325
847.4599,1343
847.577881,1274
847.695801,1336
847.813782,1309
847.931641,1344
848.049561,1314
848.167603,1307
848.285461,1284
848.403381,1288
848.521362,1295
848.639221,1269
848.75708,1311
848.875,1326
848.99292,1315
849.110901,1291
849.22876,1327
849.34668,1286
849.464539,1325
849.582458,1326
849.700317,1298
849.818176,1338
849.936096,1318
850.053955,1349
850.171875,1312
850.289673,1286
850.407593,1335
850.525452,1321
850.643311,1302
850.761169,1330
850.878967,1321
850.996887,1314
851.114746,1316
851.232544,1290
851.350403,1289
851.468262,1321
851.58606,1298
851.703979,1301
851.821777,1320
851.939636,1300
852.057434,1330
852.175232,1318
852.293091,1316
852.410889,1320
852.528687,1337
852.646545,1329
852.764343,1335
852.88208,1357
852.999939,1325
853.117676,1349
853.235535,1317
853.353271,1325
853.471069,1341
853.588928,1361
853.706604,1343
853.824402,1322
853.9422,1326
854.059998,1316
854.177734,1320
854.295532,1325
854.413269,1357
854.531006,1348
854.648804,1357
854.766541,1352
854.884277,1336
855.002014,1397
855.119751,1356
855.237549,1311
855.355225,1374
855.473022,1383
855.590698,1378
855.708435,1399
855.826172,1334
855.943848,1325
856.061646,1377
856.179321,1356
856.296997,1372
856.414795,1392
856.53241,1371
856.650085,1425
856.767822,1360
856.885559,1383
857.003174,1399
857.120911,1371
857.238586,1405
857.356201,1390
857.473938,1324
857.591614,1372
857.709351,1367
857.826965,1362
857.944641,1387
858.062317,1390
858.179993,1344
858.297668,1370
858.415283,1360
858.532959,1359
858.650574,1336
858.768188,1340
858.885803,1354
859.003479,1323
859.121094,1344
859.23877,1357
859.356384,1342
859.473999,1329
859.591675,1351
859.709229,1346
859.826843,1339
859.944458,1317
860.062012,1351
860.179626,1337
860.297302,1343
860.414856,1337
860.532471,1355
860.650024,1336
860.767639,1334
860.885193,1393
861.002808,1354
861.120361,1334
861.237976,1381
861.35553,1360
861.473022,1380
861.590698,1340
861.708191,1328
861.825745,1353
861.943298,1369
862.060852,1383
862.178406,1349
862.295959,1365
862.413513,1283
862.531006,1321
862.64856,1352
862.766113,1354
862.883667,1370
863.00116,1338
863.118713,1363
863.236206,1382
863.353699,1365
863.471252,1345
863.588745,1404
863.706177,1383
863.82373,1376
863.941162,1351
864.058716,1416
864.176208,1359
864.29364,1363
864.411194,1390
864.528687,1361
864.646118,1404
864.763611,1333
864.881042,1383
864.998535,1346
865.116028,1377
865.233459,1329
865.350891,1379
865.468384,1409
865.585754,1345
865.703308,1406
865.820679,1357
865.938171,1359
866.055542,1331
866.173035,1403
866.290466,1420
866.407837,1386
866.52533,1378
866.6427,1394
866.760071,1384
866.877563,1376
866.994934,1352
867.112305,1444
867.229736,1366
867.347107,1392
867.464539,1379
867.58197,1429
867.699341,1378
867.81665,1393
867.934082,1361
868.051453,1425
868.168823,1340
868.286194,1373
868.403564,1373
868.520935,1371
868.638306,1378
868.755676,1396
868.872986,1387
868.990295,1364
869.107727,1420
869.225037,1378
869.342346,1365
869.459717,1368
869.577026,1366
869.694336,1397
869.811707,1370
869.929016,1388
870.046326,1337
870.163635,1387
870.280945,1369
870.398254,1368
870.515564,1418
870.632812,1353
870.750183,1363
870.867432,1337
870.984741,1394
871.102051,1386
871.219299,1349
871.336609,1387
871.453918,1398
871.571106,1333
871.688416,1413
871.805664,1404
871.922852,1403
872.040222,1380
872.157471,1409
872.274719,1356
872.391968,1358
872.509155,1399
872.626465,1388
872.743652,1374
872.860962,1363
872.978149,1408
873.095337,1393
873.212646,1395
873.329834,1389
873.44696,1414
873.564209,1401
873.681396,1392
873.798645,1400
873.915894,1361
874.03302,1371
874.150208,1401
874.267456,1373
874.384583,1327
874.501831,1353
874.618958,1366
874.736145,1417
874.853333,1398
874.970459,1379
875.087646,1413
875.204834,1361
875.32196,1438
875.439148,1365
875.556274,1395
875.673401,1427
875.790527,1373
875.907715,1426
876.024841,1400
876.141968,1398
876.259094,1385
876.376282,1400
876.493347,1374
876.610474,1388
876.7276,1414
876.844727,1363
876.961853,1364
877.078918,1404
877.195984,1398
877.313171,1426
877.430237,1421
877.547302,1394
877.664368,1414
877.781433,1380
877.898499,1441
878.015625,1430
878.13269,1366
878.249695,1413
878.366821,1360
878.483887,1428
878.600952,1375
878.717957,1401
878.834961,1386
878.952087,1368
879.069092,1415
879.186157,1443
879.303162,1405
879.420227,1428
879.537231,1381
879.654236,1408
879.77124,1416
879.888306,1360
880.005249,1436
880.122314,1418
880.239319,1396
880.356323,1423
880.473328,1426
880.590271,1399
880.707275,1381
880.824341,1428
880.941284,1427
881.058228,1407
881.175232,1448
881.292236,1396
881.40918,1389
881.526123,1452
881.643066,1384
881.760071,1424
881.877014,1406
881.993958,1462
882.11084,1406
882.227783,1421
882.344727,1410
882.46167,1418
882.578613,1398
882.695618,1401
882.812439,1430
882.929382,1430
883.046326,1425
883.163208,1426
883.280151,1400
883.397034,1398
883.513916,1448
883.630798,1410
883.747742,1426
883.864563,1408
883.981506,1423
884.098389,1403
884.21521,1454
884.332153,1418
884.448975,1410
884.565796,1416
884.682678,1400
884.7995,1463
884.916443,1406
885.033264,1419
885.150085,1421
885.266968,1437
885.383789,1449
885.500671,1430
885.617493,1399
885.734314,1430
885.851196,1419
885.967896,1406
886.084717,1443
886.201599,1456
886.318359,1464
886.435181,1459
886.552002,1378
886.668762,1481
886.785645,1444
886.902344,1435
887.019165,1450
887.135925,1399
887.252747,1449
887.369446,1422
887.486267,1439
887.603027,1415
887.719788,1467
887.836548,1419
887.953247,1406
888.070068,1432
888.186829,1444
888.303528,1455
888.420288,1453
888.536987,1451
888.653687,1468
888.770447,1413
888.887146,1464
889.003967,1423
889.120667,1463
889.237305,1443
889.354065,1484
889.470703,1435
889.587463,1459
889.704163,1432
889.820862,1427
889.937561,1471
890.054199,1461
890.170837,1441
890.287598,1405
890.404236,1409
890.520874,1487
890.637634,1442
890.754211,1477
890.87085,1451
890.987549,1465
891.104187,1462
891.220886,1463
891.337463,1431
891.454102,1479
891.57074,1453
891.687378,1446
891.804077,1494
891.920654,1468
892.037231,1460
892.15387,1448
892.270447,1453
892.387085,1438
892.503723,1477
892.6203,1493
892.736877,1445
892.853516,1450
892.970032,1461
893.08667,1422
893.203186,1467
893.319763,1466
893.43634,1503
893.552917,1478
893.669556,1456
893.786011,1460
893.902588,1477
894.019165,1434
894.135681,1469
894.252197,1473
894.368835,1513
894.485291,1526
894.601868,1473
894.718384,1509
894.8349,1441
894.951355,1480
895.067932,1451
895.184448,1462
895.300964,1487
895.417419,1466
895.533936,1487
895.650452,1481
895.766907,1495
895.883423,1481
895.999878,1504
896.116333,1473
896.232849,1522
896.349304,1457
896.465759,1483
896.582214,1528
896.698669,1505
896.815125,1510
896.931641,1500
897.048035,1502
897.164551,1499
897.280884,1476
897.397339,1486
897.513794,1534
897.630249,1465
897.746582,1494
897.863098,1497
897.979431,1514
898.095886,1502
898.212341,1460
898.328674,1509
898.445129,1437
898.561462,1513
898.677795,1494
898.794312,1479
898.910645,1423
899.026978,1478
899.143433,1524
899.259766,1495
899.37616,1511
899.492493,1502
899.608765,1511
899.725159,1496
899.841553,1490
899.957947,1508
900.07428,1478
900.190552,1503
900.306946,1530
900.423157,1498
900.53949,1488
900.655884,1492
900.772156,1499
900.888489,1549
901.004822,1497
901.121033,1532
901.237366,1486
901.353699,1503
901.46991,1532
901.586304,1491
901.702515,1487
901.818787,1497
901.93512,1509
902.051331,1511
902.167603,1509
902.283875,1493
902.400085,1512
902.516418,1486
902.632629,1528
902.74884,1517
902.865112,1545
902.981384,1549
903.097595,1479
903.213867,1488
903.330017,1517
903.446289,1530
903.5625,1512
903.67865,1475
903.794922,1517
903.911072,1497
904.027344,1523
904.143494,1491
904.259705,1525
904.375916,1503
904.492065,1512
904.608215,1508
904.724426,1515
904.840576,1535
904.956726,1531
905.072876,1499
905.189087,1504
905.305176,1539
905.421387,1586
905.537537,1527
905.653687,1512
905.769775,1513
905.885925,1518
906.002014,1562
906.118164,1524
906.234314,1554
906.350403,1534
906.466492,1515
906.582642,1511
906.69873,1547
906.814758,1549
906.930908,1563
907.046936,1543
907.163086,1546
907.279175,1546
907.395264,1522
907.511353,1532
907.62738,1530
907.743408,1580
907.859497,1475
907.975525,1507
908.091553,1581
908.207703,1551
908.32373,1556
908.439758,1568
908.555786,1497
908.671814,1581
908.787842,1547
908.90387,1537
909.019775,1549
909.135864,1527
909.251892,1519
909.367859,1530
909.483826,1572
909.599854,1506
909.715881,1555
909.831848,1537
909.947815,1513
910.063782,1524
910.179749,1553
910.295776,1578
910.411743,1568
910.527649,1563
910.643616,1542
910.759583,1554
910.875488,1562
910.991455,1507
911.107361,1511
911.223267,1514
911.339294,1498
911.4552,1516
911.571106,1573
911.687073,1527
911.802979,1539
911.918823,1514
912.034729,1566
912.150635,1513
912.266602,1497
912.382446,1569
912.498352,1526
912.614197,1542
912.730103,1526
912.846008,1553
792.44574,2162
792.56488,2210
792.68396,2185
792.80304,2145
792.92218,2093
793.041199,2068
793.160339,2080
793.279419,2082
793.398499,2078
793.517578,2060
793.636658,2072
793.755737,2062
793.874817,2065
793.993896,2069
794.112976,2048
794.232056,2038
794.351074,2004
794.470215,2008
794.589233,1988
794.708313,2007
794.827393,1958
794.946411,1951
795.065552,2025
795.18457,1927
795.303589,2043
795.422668,1986
795.541687,1950
795.660767,1974
795.779846,1991
795.898865,1967
796.017883,1962
796.136963,1985
796.255981,1989
796.375061,1955
796.49408,1957
796.613037,1946
796.732117,1967
796.851135,1951
796.970154,1948
797.089233,1912
797.208191,1942
797.327271,1884
797.446228,1949
797.565186,1914
797.684265,1938
797.803223,1978
797.922241,1924
798.04126,1913
798.160278,1899
798.279297,1935
798.398315,1943
798.517273,1971
798.636292,1961
798.75531,1902
798.874268,1961
798.993286,1970
799.112244,1882
799.231323,1969
799.350281,1935
799.469238,1926
799.588257,2001
799.707153,1948
799.826111,1955
799.945129,1958
800.064087,1924
800.183044,1958
800.302063,1936
800.421021,1918
800.539978,1933
800.658936,1952
800.777893,1961
800.896912,1924
801.015747,1928
801.134705,1948
801.253723,1947
801.37262,1997
801.491638,1981
801.610535,1993
801.729492,1930
801.84845,1956
801.967407,2001
802.086243,1976
802.205261,2027
802.324158,2010
802.443115,2018
802.562073,2008
802.680969,2029
802.799927,2024
802.918762,2026
803.037659,2004
803.156677,2009
803.275574,2024
803.39447,2072
803.513428,2011
803.632263,1997
803.751221,1997
803.870117,2015
803.989014,2044
804.107971,2003
804.226746,2019
804.345642,2038
804.4646,2083
804.583496,2080
804.702393,2072
804.821228,2063
804.940125,2036
805.059021,2120
805.177917,2041
805.296814,2091
805.415649,2069
805.534546,2102
805.653442,2060
805.772278,2120
805.891113,2072
806.01001,2105
806.128906,2107
806.247742,2129
806.366577,2092
806.485413,2078
806.604309,2133
806.723145,2086
806.84198,2064
806.960876,2087
807.079712,2105
807.198486,2134
807.317383,2108
807.436218,2094
807.554993,2117
807.673889,2129
807.792725,2119
807.91156,2122
808.030396,2178
808.14917,2149
808.268005,2211
808.386841,2171
808.505676,2167
808.624451,2183
808.743286,2169
808.862122,2149
808.980896,2133
809.099731,2176
809.218506,2180
809.337341,2150
809.456116,2175
809.57489,2181
809.693726,2122
809.8125,2223
809.931274,2165
810.050049,2222
810.168884,2195
810.287659,2200
810.406372,2210
810.525269,2239
810.643982,2207
810.762756,2235
810.881531,2224
811.000305,2184
811.11908,2163
811.237854,2206
811.356567,2149
811.475403,2203
811.594116,2162
811.71283,2261
811.831604,2270
811.950378,2232
812.069153,2213
812.187927,2190
812.30658,2232
812.425415,2201
812.544128,2247
812.662781,2139
812.781616,2268
812.900269,2220
813.019043,2166
813.137756,2240
813.256531,2206
813.375244,2239
813.493896,2197
813.612671,2208
813.731384,2203
813.850037,2216
813.96875,2206
814.087524,2220
814.206238,2208
814.324951,2236
814.443604,2174
814.562256,2179
814.68103,2166
814.799683,2208
814.918335,2167
815.037109,2194
815.155762,2167
815.274475,2144
815.393188,2185
815.511841,2160
815.630554,2147
815.749146,2147
815.867859,2147
815.986572,2146
816.105164,2049
816.223877,2056
816.342529,2113
816.461182,2157
816.579895,2140
816.698486,2176
816.817139,2133
816.935791,2178
817.054504,2137
817.173096,2115
817.291748,2134
817.4104,2092
817.529053,2032
817.647644,2094
817.766235,2017
817.884949,1984
818.00354,1891
818.122192,1849
818.240845,1866
818.359436,1779
818.478088,1793
818.59668,1790
818.715271,1751
818.833923,1729
818.952515,1710
819.071106,1672
819.189758,1627
819.30835,1669
819.426941,1633
819.545532,1630
819.664124,1625
819.782715,1583
819.901306,1575
820.019897,1580
820.138489,1571
820.25708,1606
820.375671,1566
820.494202,1552
820.612732,1547
820.731384,1535
820.849915,1480
820.968506,1524
821.087097,1561
821.205627,1544
821.324158,1545
821.442749,1548
821.561279,1512
821.679871,1494
821.798401,1484
821.916931,1521
822.035461,1491
822.154053,1505
822.272583,1420
822.391174,1468
822.509583,1480
822.628174,1494
822.746704,1490
822.865234,1498
822.983765,1478
823.102295,1452
823.220825,1470
823.339294,1463
823.457825,1493
823.576355,1459
823.694824,1462
823.813354,1460
823.931885,1492
824.050354,1487
824.168884,1499
824.287354,1569
824.405823,1462
824.524353,1518
824.642822,1505
824.761353,1512
824.879822,1535
824.998291,1514
825.116699,1508
825.235291,1511
825.353699,1495
825.472168,1459
825.590637,1514
825.709106,1467
825.827576,1487
825.946045,1442
826.064453,1472
826.182983,1450
826.301392,1455
826.4198,1422
826.53833,1404
826.656738,1426
826.775208,1350
826.893677,1422
827.012024,1402
827.130493,1392
827.248962,1353
827.36731,1412
827.485779,1412
827.604248,1409
827.722595,1426
827.841064,1402
827.959412,1408
828.077942,1428
828.196289,1360
828.314636,1391
828.433105,1376
828.551514,1410
828.669861,1374
828.78833,1386
828.906677,1361
829.025085,1411
829.143433,1386
829.261841,1409
829.38031,1376
829.498657,1383
829.617004,1383
829.735413,1395
829.85376,1410
829.972107,1370
830.090515,1345
830.208862,1372
830.327209,1421
830.445557,1358
830.563904,1351
830.682312,1348
830.800659,1348
830.919006,1380
831.037354,1352
831.155701,1376
831.274048,1382
831.392395,1352
831.51062,1373
831.629028,1360
831.747314,1323
831.865662,1382
831.984009,1362
832.102356,1351
832.220642,1358
832.338928,1393
832.457275,1384
832.575623,1369
832.693909,1357
832.812134,1388
832.930481,1355
833.048828,1398
833.167114,1368
833.2854,1390
833.403687,1391
833.521973,1387
833.640259,1392
833.758545,1393
833.876831,1367
833.995056,1357
834.113281,1363
834.231628,1374
834.349915,1380
834.468201,1365
834.586426,1352
834.704651,1366
834.822998,1378
834.941162,1371
835.059448,1341
835.177673,1412
835.295959,1390
835.414246,1403
835.53241,1401
835.650635,1388
835.768921,1363
835.887146,1337
836.005371,1434
836.123596,1405
836.241821,1399
836.360046,1419
836.478271,1408
836.596497,1453
836.714722,1440
836.832886,1431
836.95105,1431
837.069336,1484
837.1875,1425
837.305725,1496
837.423889,1472
837.542053,1450
837.660339,1462
837.778503,1493
837.896667,1427
838.014832,1481
838.132996,1435
838.25116,1449
838.369385,1483
838.487488,1480
838.605713,1445
838.723877,1435
838.84198,1455
838.960205,1441
839.078308,1431
839.196472,1445
839.314636,1448
839.4328,1462
839.550964,1421
839.669067,1453
839.787231,1418
839.905396,1456
840.023499,1400
840.141602,1464
840.259766,1462
840.377869,1443
840.495972,1419
840.614136,1444
840.732239,1428
840.850342,1342
840.968445,1417
841.086548,1419
841.204651,1405
841.322754,1422
841.440918,1337
841.55896,1397
841.677002,1376
841.795166,1345
841.913208,1348
842.031311,1358
842.149353,1392
842.267456,1372
842.385498,1407
842.503601,1339
842.621643,1378
842.739746,1374
842.857788,1357
842.97583,1329
843.093933,1360
843.211975,1354
843.330017,1357
843.44812,1349
843.566101,1322
843.684204,1371
843.802246,1333
843.920227,1349
844.038269,1367
844.156311,1345
844.274292,1349
844.392395,1349
844.510376,1329
844.628357,1316
844.74646,1327
844.864441,1348
844.982422,1358
845.100403,1358
845.218384,1322
845.336426,1311
845.454468,1355
845.572449,1348
845.69043,1336
845.808411,1381
845.926453,1364
846.044373,1323
846.162354,1316
846.280396,1331
846.398315,1318
846.516296,1360
846.634216,1377
846.752197,1328
846.870178,1352
846.988098,1357
847.106079,1337
847.22406,1347
847.34198,1346
847.4599,1359
847.577881,1306
847.695801,1317
847.813782,1337
847.931641,1359
848.049561,1337
848.167603,1339
848.285461,1346
848.403381,1361
848.521362,1370
848.639221,1298
848.75708,1371
848.875,1323
848.99292,1338
849.110901,1333
849.22876,1289
849.34668,1381
849.464539,1346
849.582458,1331
849.700317,1365
849.818176,1337
849.936096,1336
850.053955,1343
850.171875,1313
850.289673,1336
850.407593,1360
850.525452,1340
850.643311,1340
850.761169,1304
850.878967,1330
850.996887,1378
851.114746,1316
851.232544,1371
851.350403,1336
851.468262,1313
851.58606,1335
851.703979,1405
851.821777,1354
851.939636,1365
852.057434,1334
852.175232,1394
852.293091,1298
852.410889,1383
852.528687,1345
852.646545,1385
852.764343,1361
852.88208,1388
852.999939,1373
853.117676,1379
853.235535,1407
853.353271,1342
853.471069,1367
853.588928,1369
853.706604,1376
853.824402,1384
853.9422,1385
854.059998,1372
854.177734,1347
854.295532,1400
854.413269,1386
854.531006,1372
854.648804,1339
854.766541,1398
854.884277,1363
855.002014,1376
855.119751,1358
855.237549,1368
855.355225,1402
855.473022,1338
855.590698,1357
855.708435,1394
855.826172,1428
855.943848,1403
856.061646,1392
856.179321,1417
856.296997,1371
856.414795,1404
856.53241,1377
856.650085,1377
856.767822,1373
856.885559,1389
857.003174,1403
857.120911,1389
857.238586,1402
857.356201,1392
857.473938,1369
857.591614,1393
857.709351,1365
857.826965,1416
857.944641,1391
858.062317,1375
858.179993,1411
858.297668,1356
858.415283,1417
858.532959,1364
858.650574,1424
858.768188,1408
858.885803,1367
859.003479,1367
859.121094,1374
859.23877,1401
859.356384,1391
859.473999,1375
859.591675,1416
859.709229,1385
859.826843,1356
859.944458,1403
860.062012,1401
860.179626,1388
860.297302,1361
860.414856,1402
860.532471,1363
860.650024,1320
860.767639,1375
860.885193,1381
861.002808,1366
861.120361,1372
861.237976,1389
861.35553,1385
861.473022,1353
861.590698,1357
861.708191,1392
861.825745,1382
861.943298,1381
862.060852,1355
862.178406,1410
862.295959,1371
862.413513,1408
862.531006,1368
862.64856,1407
862.766113,1407
862.883667,1424
863.00116,1398
863.118713,1375
863.236206,1379
863.353699,1407
863.471252,1398
863.588745,1389
863.706177,1419
863.82373,1396
863.941162,1371
864.058716,1396
864.176208,1370
864.29364,1391
864.411194,1381
864.528687,1391
864.646118,1397
864.763611,1406
864.881042,1422
864.998535,1394
865.116028,1419
865.233459,1408
865.350891,1357
865.468384,1394
865.585754,1476
865.703308,1378
865.820679,1469
865.938171,1398
866.055542,1370
866.173035,1446
866.290466,1426
866.407837,1400
866.52533,1410
866.6427,1434
866.760071,1407
866.877563,1437
866.994934,1419
867.112305,1429
867.229736,1380
867.347107,1417
867.464539,1409
867.58197,1404
867.699341,1398
867.81665,1393
867.934082,1404
868.051453,1418
868.168823,1418
868.286194,1401
868.403564,1415
868.520935,1399
868.638306,1399
868.755676,1386
868.872986,1466
868.990295,1374
869.107727,1382
869.225037,1440
869.342346,1411
869.459717,1410
869.577026,1390
869.694336,1434
869.811707,1403
869.929016,1408
870.046326,1423
870.163635,1436
870.280945,1428
870.398254,1401
870.515564,1448
870.632812,1412
870.750183,1405
870.867432,1442
870.984741,1420
871.102051,1381
871.219299,1419
871.336609,1404
871.453918,1399
871.571106,1459
871.688416,1387
871.805664,1407
871.922852,1437
872.040222,1392
872.157471,1434
872.274719,1417
872.391968,1448
872.509155,1401
872.626465,1396
872.743652,1411
872.860962,1464
872.978149,1422
873.095337,1408
873.212646,1429
873.329834,1363
873.44696,1405
873.564209,1383
873.681396,1401
873.798645,1374
873.915894,1430
874.03302,1391
874.150208,1395
874.267456,1417
874.384583,1420
874.501831,1376
874.618958,1386
874.736145,1409
874.853333,1414
874.970459,1442
875.087646,1450
875.204834,1420
875.32196,1407
875.439148,1444
875.556274,1394
875.673401,1425
875.790527,1412
875.907715,1413
876.024841,1436
876.141968,1449
876.259094,1400
876.376282,1409
876.493347,1447
876.610474,1427
876.7276,1446
876.844727,1431
876.961853,1444
877.078918,1409
877.195984,1462
877.313171,1434
877.430237,1440
877.547302,1449
877.664368,1409
877.781433,1441
877.898499,1414
878.015625,1455
878.13269,1380
878.249695,1438
878.366821,1416
878.483887,1409
878.600952,1406
878.717957,1424
878.834961,1472
878.952087,1427
879.069092,1441
879.186157,1454
879.303162,1429
879.420227,1438
879.537231,1429
879.654236,1419
879.77124,1396
879.888306,1423
880.005249,1421
880.122314,1458
880.239319,1443
880.356323,1448
880.473328,1430
880.590271,1401
880.707275,1435
880.824341,1411
880.941284,1457
881.058228,1413
881.175232,1434
881.292236,1464
881.40918,1447
881.526123,1419
881.643066,1467
881.760071,1442
881.877014,1460
881.993958,1434
882.11084,1429
882.227783,1420
882.344727,1466
882.46167,1485
882.578613,1438
882.695618,1458
882.812439,1408
882.929382,1445
883.046326,1437
883.163208,1458
883.280151,1484
883.397034,1489
883.513916,1447
883.630798,1475
883.747742,1422
883.864563,1427
883.981506,1469
884.098389,1429
884.21521,1468
884.332153,1459
884.448975,1435
884.565796,1464
884.682678,1444
884.7995,1421
884.916443,1472
885.033264,1486
885.150085,1445
885.266968,1482
885.383789,1438
885.500671,1490
885.617493,1488
885.734314,1476
885.851196,1444
885.967896,1449
886.084717,1457
886.201599,1483
886.318359,1477
886.435181,1484
886.552002,1433
886.668762,1511
886.785645,1500
886.902344,1477
887.019165,1460
887.135925,1472
887.252747,1492
887.369446,1509
887.486267,1516
887.603027,1454
887.719788,1488
887.836548,1454
887.953247,1481
888.070068,1463
888.186829,1480
888.303528,1470
888.420288,1478
888.536987,1476
888.653687,1436
888.770447,1432
888.887146,1486
889.003967,1476
889.120667,1469
889.237305,1451
889.354065,1456
889.470703,1486
889.587463,1488
889.704163,1489
889.820862,1450
889.937561,1450
890.054199,1462
890.170837,1507
890.287598,1445
890.404236,1490
890.520874,1503
890.637634,1496
890.754211,1511
890.87085,1487
890.987549,1490
891.104187,1468
891.220886,1480
891.337463,1471
891.454102,1561
891.57074,1504
891.687378,1481
891.804077,1523
891.920654,1487
892.037231,1492
892.15387,1474
892.270447,1465
892.387085,1516
892.503723,1493
892.6203,1483
892.736877,1549
892.853516,1507
892.970032,1474
893.08667,1513
893.203186,1529
893.319763,1504
893.43634,1503
893.552917,1497
893.669556,1490
893.786011,1499
893.902588,1493
894.019165,1531
894.135681,1520
894.252197,1515
894.368835,1535
894.485291,1513
894.601868,1475
894.718384,1490
894.8349,1538
894.951355,1497
895.067932,1488
895.184448,1513
895.300964,1521
895.417419,1494
895.533936,1523
895.650452,1510
895.766907,1535
895.883423,1496
895.999878,1495
896.116333,1521
896.232849,1512
896.349304,1509
896.465759,1496
896.582214,1495
896.698669,1526
896.815125,1518
896.931641,1509
897.048035,1551
897.164551,1507
897.280884,1560
897.397339,1543
897.513794,1482
897.630249,1537
897.746582,1472
897.863098,1540
897.979431,1511
898.095886,1509
898.212341,1541
898.328674,1526
898.445129,1515
898.561462,1550
898.677795,1501
898.794312,1523
898.910645,1514
899.026978,1535
899.143433,1553
899.259766,1532
899.37616,1534
899.492493,1534
899.608765,1562
899.725159,1580
899.841553,1527
899.957947,1547
900.07428,1550
900.190552,1555
900.306946,1503
900.423157,1573
900.53949,1524
900.655884,1583
900.772156,1543
900.888489,1560
901.004822,1553
901.121033,1530
901.237366,1531
901.353699,1531
901.46991,1543
901.586304,1566
901.702515,1509
901.818787,1551
901.93512,1498
902.051331,1561
902.167603,1572
902.283875,1541
902.400085,1564
902.516418,1562
902.632629,1549
902.74884,1556
902.865112,1538
902.981384,1555
903.097595,1557
903.213867,1530
903.330017,1486
903.446289,1587
903.5625,1524
903.67865,1585
903.794922,1545
903.911072,1568
904.027344,1582
904.143494,1580
904.259705,1584
904.375916,1593
904.492065,1549
904.608215,1570
904.724426,1512
904.840576,1599
904.956726,1572
905.072876,1545
905.189087,1541
905.305176,1537
905.421387,1592
905.537537,1542
905.653687,1547
905.769775,1530
905.885925,1598
906.002014,1588
906.118164,1550
906.234314,1592
906.350403,1583
906.466492,1602
906.582642,1528
906.69873,1551
906.814758,1581
906.930908,1562
907.046936,1593
907.163086,1516
907.279175,1537
907.395264,1634
907.511353,1520
907.62738,1575
907.743408,1527
907.859497,1560
907.975525,1611
908.091553,1580
908.207703,1560
908.32373,1586
908.439758,1561
908.555786,1611
908.671814,1619
908.787842,1610
908.90387,1565
909.019775,1541
909.135864,1556
909.251892,1530
909.367859,1569
909.483826,1593
909.599854,1573
909.715881,1563
909.831848,1543
909.947815,1578
910.063782,1535
910.179749,1616
910.295776,1537
910.411743,1567
910.527649,1568
910.643616,1619
910.759583,1591
910.875488,1575
910.991455,1589
911.107361,1553
911.223267,1593
911.339294,1612
911.4552,1579
911.571106,1565
911.687073,1602
911.802979,1594
911.918823,1572
912.034729,1580
912.150635,1576
912.266602,1569
912.382446,1536
912.498352,1605
912.614197,1585
912.730103,1600
912.846008,1554
792.44574,2206
792.56488,2178
792.68396,2240
792.80304,2177
792.92218,2112
793.041199,2143
793.160339,2105
793.279419,2104
793.398499,2068
793.517578,2100
793.636658,2063
793.755737,2104
793.874817,2072
793.993896,2076
794.112976,2042
794.232056,2078
794.351074,2087
794.470215,2041
794.589233,2085
794.708313,1992
794.827393,2046
794.946411,2007
795.065552,2048
795.18457,1990
795.303589,2064
795.422668,2009
795.541687,2043
795.660767,1987
795.779846,1950
795.898865,1977
796.017883,1980
796.136963,2028
796.255981,1993
796.375061,1979
796.49408,1973
796.613037,1992
796.732117,2011
796.851135,1980
796.970154,1969
797.089233,1950
797.208191,1945
797.327271,1951
797.446228,1947
797.565186,1951
797.684265,1933
797.803223,1960
797.922241,1951
798.04126,1970
798.160278,1982
798.279297,1968
798.398315,1933
798.517273,1908
798.636292,1966
798.75531,1920
798.874268,1916
798.993286,1997
799.112244,1882
799.231323,1980
799.350281,1892
799.469238,1975
799.588257,1958
799.707153,1973
799.826111,1959
799.945129,1953
800.064087,1993
800.183044,1974
800.302063,1981
800.421021,1974
800.539978,1978
800.658936,1991
800.777893,1959
800.896912,1911
801.015747,1980
801.134705,2006
801.253723,2027
801.37262,1929
801.491638,1997
801.610535,1964
801.729492,1988
801.84845,1939
801.967407,2001
802.086243,1957
802.205261,1968
802.324158,1974
802.443115,2068
802.562073,1996
802.680969,2058
802.799927,2039
802.918762,2024
803.037659,2033
803.156677,2057
803.275574,2030
803.39447,2035
803.513428,2022
803.632263,2086
803.751221,2006
803.870117,2047
803.989014,2008
804.107971,2053
804.226746,2063
804.345642,2031
804.4646,2058
804.583496,2102
804.702393,2120
804.821228,2075
804.940125,2088
805.059021,2120
805.177917,2070
805.296814,2112
805.415649,2099
805.534546,2057
805.653442,2086
805.772278,2121
805.891113,2079
806.01001,2102
806.128906,2171
806.247742,2164
806.366577,2107
806.485413,2125
806.604309,2123
806.723145,2113
806.84198,2076
806.960876,2099
807.079712,2145
807.198486,2175
807.317383,2185
807.436218,2097
807.554993,2130
807.673889,2183
807.792725,2168
807.91156,2148
808.030396,2148
808.14917,2137
808.268005,2160
808.386841,2175
808.505676,2181
808.624451,2222
808.743286,2204
808.862122,2180
808.980896,2198
809.099731,2173
809.218506,2126
809.337341,2165
809.456116,2202
809.57489,2251
809.693726,2163
809.8125,2198
809.931274,2224
810.050049,2249
810.168884,2266
810.287659,2190
810.406372,2217
810.525269,2200
810.643982,2205
810.762756,2252
810.881531,2229
811.000305,2194
811.11908,2247
811.237854,2228
811.356567,2221
811.475403,2225
811.594116,2251
811.71283,2221
811.831604,2244
811.950378,2205
812.069153,2225
812.187927,2237
812.30658,2254
812.425415,2249
812.544128,2145
812.662781,2261
812.781616,2200
812.900269,2224
813.019043,2229
813.137756,2217
813.256531,2238
813.375244,2201
813.493896,2214
813.612671,2250
813.731384,2215
813.850037,2162
813.96875,2227
814.087524,2202
814.206238,2227
814.324951,2273
814.443604,2218
814.562256,2177
814.68103,2203
814.799683,2230
814.918335,2147
815.037109,2183
815.155762,2205
815.274475,2114
815.393188,2110
815.511841,2165
815.630554,2161
815.749146,2113
815.867859,2102
815.986572,2102
816.105164,2093
816.223877,2137
816.342529,2166
816.461182,2135
816.579895,2142
816.698486,2183
816.817139,2208
816.935791,2155
817.054504,2150
817.173096,2104
817.291748,2101
817.4104,2071
817.529053,2031
817.647644,2063
817.766235,2002
817.884949,2001
818.00354,1890
818.122192,1912
818.240845,1866
818.359436,1820
818.478088,1853
818.59668,1768
818.715271,1766
818.833923,1700
818.952515,1698
819.071106,1676
819.189758,1713
819.30835,1637
819.426941,1603
819.545532,1678
819.664124,1609
819.782715,1594
819.901306,1616
820.019897,1556
820.138489,1573
820.25708,1561
820.375671,1570
820.494202,1542
820.612732,1552
820.731384,1560
820.849915,1499
820.968506,1541
821.087097,1521
821.205627,1525
821.324158,1512
821.442749,1511
821.561279,1542
821.679871,1498
821.798401,1516
821.916931,1493
822.035461,1489
822.154053,1508
822.272583,1477
822.391174,1503
822.509583,1481
822.628174,1504
822.746704,1486
822.865234,1477
822.983765,1474
823.102295,1481
823.220825,1466
823.339294,1489
823.457825,1538
823.576355,1475
823.694824,1504
823.813354,1534
823.931885,1515
824.050354,1517
824.168884,1558
824.287354,1529
824.405823,1500
824.524353,1521
824.642822,1510
824.761353,1491
824.879822,1537
824.998291,1501
825.116699,1510
825.235291,1464
825.353699,1537
825.472168,1462
825.590637,1515
825.709106,1485
825.827576,1457
825.946045,1483
826.064453,1481
826.182983,1463
826.301392,1465
826.4198,1474
826.53833,1432
826.656738,1406
826.775208,1454
826.893677,1418
827.012024,1421
827.130493,1428
827.248962,1413
827.36731,1405
827.485779,1388
827.604248,1421
827.722595,1377
827.841064,1420
827.959412,1437
828.077942,1413
828.196289,1426
828.314636,1401
828.433105,1373
828.551514,1387
828.669861,1416
828.78833,1380
828.906677,1381
829.025085,1400
829.143433,1410
829.261841,1396
829.38031,1397
829.498657,1402
829.617004,1380
829.735413,1383
829.85376,1414
829.972107,1415
830.090515,1364
830.208862,1416
830.327209,1384
830.445557,1401
830.563904,1426
830.682312,1390
830.800659,1371
830.919006,1367
831.037354,1398
831.155701,1374
831.274048,1363
831.392395,1374
831.51062,1379
831.629028,1358
831.747314,1430
831.865662,1398
831.984009,1375
832.102356,1369
832.220642,1367
832.338928,1359
832.457275,1351
832.575623,1377
832.693909,1384
832.812134,1384
832.930481,1399
833.048828,1354
833.167114,1425
833.2854,1386
833.403687,1380
833.521973,1375
833.640259,1331
833.758545,1339
833.876831,1428
833.995056,1338
834.113281,1365
834.231628,1385
834.349915,1373
834.468201,1385
834.586426,1370
834.704651,1394
834.822998,1407
834.941162,1383
835.059448,1370
835.177673,1389
835.295959,1375
835.414246,1388
835.53241,1383
835.650635,1376
835.768921,1366
835.887146,1399
836.005371,1393
836.123596,1422
836.241821,1424
836.360046,1467
836.478271,1415
836.596497,1427
836.714722,1495
836.832886,1471
836.95105,1443
837.069336,1435
837.1875,1495
837.305725,1489
837.423889,1446
837.542053,1467
837.660339,1470
837.778503,1521
837.896667,1474
838.014832,1451
838.132996,1510
838.25116,1422
838.369385,1468
838.487488,1480
838.605713,1439
838.723877,1457
838.84198,1468
838.960205,1482
839.078308,1480
839.196472,1438
839.314636,1462
839.4328,1459
839.550964,1471
839.669067,1390
839.787231,1457
839.905396,1436
840.023499,1414
840.141602,1386
840.259766,1427
840.377869,1435
840.495972,1444
840.614136,1424
840.732239,1406
840.850342,1392
840.968445,1430
841.086548,1412
841.204651,1422
841.322754,1418
841.440918,1419
841.55896,1404
841.677002,1411
841.795166,1377
841.913208,1393
842.031311,1397
842.149353,1373
842.267456,1385
842.385498,1385
842.503601,1376
842.621643,1377
842.739746,1385
842.857788,1346
842.97583,1353
843.093933,1346
843.211975,1333
843.330017,1356
843.44812,1347
843.566101,1358
843.684204,1392
843.802246,1338
843.920227,1355
844.038269,1371
844.156311,1371
844.274292,1412
844.392395,1385
844.510376,1324
844.628357,1348
844.74646,1363
844.864441,1398
844.982422,1368
845.100403,1355
845.218384,1340
845.336426,1352
845.454468,1365
845.572449,1363
845.69043,1365
845.808411,1344
845.926453,1401
846.044373,1333
846.162354,1369
846.280396,1382
846.398315,1350
846.516296,1376
846.634216,1382
846.752197,1347
846.870178,1344
846.988098,1335
847.106079,1410
847.22406,1352
847.34198,1361
847.4599,1352
847.577881,1317
847.695801,1354
847.813782,1394
847.931641,1372
848.049561,1332
848.167603,1316
848.285461,1360
848.403381,1393
848.521362,1387
848.639221,1327
848.75708,1336
848.875,1374
848.99292,1356
849.110901,1371
849.22876,1330
849.34668,1342
849.464539,1365
849.582458,1354
849.700317,1320
849.818176,1382
849.936096,1392
850.053955,1362
850.171875,1376
850.289673,1317
850.407593,1359
850.525452,1374
850.643311,1377
850.761169,1353
850.878967,1351
850.996887,1327
851.114746,1356
851.232544,1334
851.350403,1391
851.468262,1349
851.58606,1321
851.703979,1406
851.821777,1381
851.939636,1334
852.057434,1343
852.175232,1407
852.293091,1331
852.410889,1367
852.528687,1405
852.646545,1376
852.764343,1346
852.88208,1377
852.999939,1354
853.117676,1378
853.235535,1370
853.353271,1429
853.471069,1373
853.588928,1374
853.706604,1420
853.824402,1403
853.9422,1404
854.059998,1374
854.177734,1393
854.295532,1420
854.413269,1354
854.531006,1389
854.648804,1360
854.766541,1382
854.884277,1364
855.002014,1433
855.119751,1362
855.237549,1437
855.355225,1395
855.473022,1402
855.590698,1442
855.708435,1363
855.826172,1393
855.943848,1419
856.061646,1372
856.179321,1379
856.296997,1380
856.414795,1429
856.53241,1403
856.650085,1443
856.767822,1411
856.885559,1438
857.003174,1382
857.120911,1374
857.238586,1402
857.356201,1414
857.473938,1422
857.591614,1396
857.709351,1422
857.826965,1400
857.944641,1421
858.062317,1375
858.179993,1419
858.297668,1362
858.415283,1397
858.532959,1386
858.650574,1369
858.768188,1393
858.885803,1450
859.003479,1441
859.121094,1409
859.23877,1411
859.356384,1375
859.473999,1391
859.591675,1355
859.709229,1397
859.826843,1399
859.944458,1371
860.062012,1336
860.179626,1387
860.297302,1375
860.414856,1419
860.532471,1359
860.650024,1367
860.767639,1396
860.885193,1372
861.002808,1374
861.120361,1406
861.237976,1394
861.35553,1389
861.473022,1349
861.590698,1401
861.708191,1404
861.825745,1361
861.943298,1410
862.060852,1372
862.178406,1388
862.295959,1416
862.413513,1352
862.531006,1361
862.64856,1424
862.766113,1373
862.883667,1389
863.00116,1384
863.118713,1403
863.236206,1387
863.353699,1419
863.471252,1384
863.588745,1405
863.706177,1443
863.82373,1373
863.941162,1412
864.058716,1365
864.176208,1368
864.29364,1412
864.411194,1398
864.528687,1409
864.646118,1403
864.763611,1451
864.881042,1418
864.998535,1405
865.116028,1350
865.233459,1436
865.350891,1376
865.468384,1435
865.585754,1444
865.703308,1390
865.820679,1406
865.938171,1408
866.055542,1386
866.173035,1418
866.290466,1399
866.407837,1403
866.52533,1424
866.6427,1424
866.760071,1441
866.877563,1422
866.994934,1456
867.112305,1414
867.229736,1429
867.347107,1422
867.464539,1402
867.58197,1449
867.699341,1415
867.81665,1429
867.934082,1446
868.051453,1438
868.168823,1448
868.286194,1386
868.403564,1463
868.520935,1429
868.638306,1460
868.755676,1381
868.872986,1422
868.990295,1481
869.107727,1423
869.225037,1402
869.342346,1447
869.459717,1431
869.577026,1382
869.694336,1474
869.811707,1421
869.929016,1432
870.046326,1447
870.163635,1411
870.280945,1444
870.398254,1437
870.515564,1441
870.632812,1415
870.750183,1450
870.867432,1423
870.984741,1446
871.102051,1431
871.219299,1382
871.336609,1434
871.453918,1437
871.571106,1446
871.688416,1415
871.805664,1421
871.922852,1401
872.040222,1467
872.157471,1456
872.274719,1387
872.391968,1447
872.509155,1413
872.626465,1405
872.743652,1399
872.860962,1400
872.978149,1448
873.095337,1432
873.212646,1457
873.329834,1417
873.44696,1418
873.564209,1398
873.681396,1418
873.798645,1414
873.915894,1443
874.03302,1431
874.150208,1428
874.267456,1437
874.384583,1417
874.501831,1400
874.618958,1397
874.736145,1454
874.853333,1446
874.970459,1395
875.087646,1433
875.204834,1428
875.32196,1438
875.439148,1423
875.556274,1422
875.673401,1436
875.790527,1403
875.907715,1450
876.024841,1415
876.141968,1437
876.259094,1389
876.376282,1388
876.493347,1424
876.610474,1415
876.7276,1464
876.844727,1448
876.961853,1407
877.078918,1475
877.195984,1410
877.313171,1429
877.430237,1449
877.547302,1432
877.664368,1429
877.781433,1451
877.898499,1436
878.015625,1465
878.13269,1424
878.249695,1454
878.366821,1470
878.483887,1468
878.600952,1392
878.717957,1457
878.834961,1447
878.952087,1435
879.069092,1467
879.186157,1487
879.303162,1470
879.420227,1411
879.537231,1470
879.654236,1454
879.77124,1403
879.888306,1451
880.005249,1404
880.122314,1430
880.239319,1465
880.356323,1449
880.473328,1468
880.590271,1439
880.707275,1424
880.824341,1469
880.941284,1436
881.058228,1429
881.175232,1419
881.292236,1499
881.40918,1413
881.526123,1478
881.643066,1457
881.760071,1457
881.877014,1431
881.993958,1457
882.11084,1448
882.227783,1485
882.344727,1449
882.46167,1455
882.578613,1466
882.695618,1435
882.812439,1511
882.929382,1496
883.046326,1420
883.163208,1455
883.280151,1516
883.397034,1432
883.513916,1361
883.630798,1437
883.747742,1449
883.864563,1480
883.981506,1427
884.098389,1459
884.21521,1452
884.332153,1470
884.448975,1460
884.565796,1494
884.682678,1502
884.7995,1450
884.916443,1467
885.033264,1467
885.150085,1473
885.266968,1471
885.383789,1461
885.500671,1454
885.617493,1462
885.734314,1510
885.851196,1454
885.967896,1482
886.084717,1465
886.201599,1512
886.318359,1475
886.435181,1453
886.552002,1532
886.668762,1457
886.785645,1511
886.902344,1494
887.019165,1477
887.135925,1459
887.252747,1524
887.369446,1426
887.486267,1500
887.603027,1492
887.719788,1489
887.836548,1490
887.953247,1465
888.070068,1470
888.186829,1482
888.303528,1469
888.420288,1499
888.536987,1451
888.653687,1490
888.770447,1479
888.887146,1516
889.003967,1481
889.120667,1482
889.237305,1497
889.354065,1483
889.470703,1481
889.587463,1513
889.704163,1525
889.820862,1489
889.937561,1489
890.054199,1510
890.170837,1495
890.287598,1496
890.404236,1455
890.520874,1500
890.637634,1504
890.754211,1541
890.87085,1463
890.987549,1493
891.104187,1480
891.220886,1510
891.337463,1522
891.454102,1511
891.57074,1569
891.687378,1537
891.804077,1506
891.920654,1535
892.037231,1487
892.15387,1494
892.270447,1490
892.387085,1537
892.503723,1531
892.6203,1496
892.736877,1532
892.853516,1509
892.970032,1537
893.08667,1506
893.203186,1560
893.319763,1513
893.43634,1531
893.552917,1503
893.669556,1542
893.786011,1537
893.902588,1547
894.019165,1495
894.135681,1498
894.252197,1504
894.368835,1549
894.485291,1526
894.601868,1482
894.718384,1529
894.8349,1522
894.951355,1520
895.067932,1554
895.184448,1525
895.300964,1528
895.417419,1540
895.533936,1521
895.650452,1530
895.766907,1519
895.883423,1556
895.999878,1570
896.116333,1553
896.232849,1504
896.349304,1514
896.465759,1560
896.582214,1510
896.698669,1513
896.815125,1558
896.931641,1522
897.048035,1532
897.164551,1498
897.280884,1563
897.397339,1536
897.513794,1524
897.630249,1557
897.746582,1472
897.863098,1554
897.979431,1522
898.095886,1501
898.212341,1542
898.328674,1552
898.445129,1553
898.561462,1507
898.677795,1570
898.794312,1525
898.910645,1505
899.026978,1534
899.143433,1548
899.259766,1530
899.37616,1558
899.492493,1562
899.608765,1591
899.725159,1592
899.841553,1554
899.957947,1551
900.07428,1574
900.190552,1526
900.306946,1552
900.423157,1580
900.53949,1567
900.655884,1549
900.772156,1603
900.888489,1537
901.004822,1574
901.121033,1592
901.237366,1521
901.353699,1515
901.46991,1583
901.586304,1534
901.702515,1499
901.818787,1564
901.93512,1537
902.051331,1565
902.167603,1539
902.283875,1542
902.400085,1568
902.516418,1555
902.632629,1596
902.74884,1577
902.865112,1614
902.981384,1557
903.097595,1565
903.213867,1574
903.330017,1533
903.446289,1537
903.5625,1565
903.67865,1557
903.794922,1580
903.911072,1571
904.027344,1557
904.143494,1549
904.259705,1566
904.375916,1525
904.492065,1618
904.608215,1582
904.724426,1571
904.840576,1567
904.956726,1576
905.072876,1533
905.189087,1568
905.305176,1559
905.421387,1599
905.537537,1580
905.653687,1581
905.769775,1584
905.885925,1597
906.002014,1554
906.118164,1561
906.234314,1618
906.350403,1632
906.466492,1591
906.582642,1587
906.69873,1586
906.814758,1590
906.930908,1583
907.046936,1599
907.163086,1595
907.279175,1617
907.395264,1626
907.511353,1591
907.62738,1576
907.743408,1599
907.859497,1625
907.975525,1623
908.091553,1606
908.207703,1572
908.32373,1600
908.439758,1616
908.555786,1553
908.671814,1599
908.787842,1600
908.90387,1601
909.019775,1576
909.135864,1616
909.251892,1572
909.367859,1585
909.483826,1581
909.599854,1603
909.715881,1609
909.831848,1571
909.947815,1593
910.063782,1545
910.179749,1549
910.295776,1590
910.411743,1643
910.527649,1649
910.643616,1611
910.759583,1529
910.875488,1605
910.991455,1623
911.107361,1608
911.223267,1601
911.339294,1598
911.4552,1612
911.571106,1590
911.687073,1625
911.802979,1603
911.918823,1625
912.034729,1572
912.150635,1606
912.266602,1602
912.382446,1618
912.498352,1579
912.614197,1593
912.730103,1591
912.846008,1609
