792.44574,1774
792.56488,1763
792.68396,1795
792.80304,1752
792.92218,1716
793.041199,1680
793.160339,1719
793.279419,1678
793.398499,1660
793.517578,1691
793.636658,1642
793.755737,1645
793.874817,1643
793.993896,1620
794.112976,1634
794.232056,1631
794.351074,1646
794.470215,1589
794.589233,1565
794.708313,1583
794.827393,1606
794.946411,1564
795.065552,1644
795.18457,1589
795.303589,1577
795.422668,1534
795.541687,1599
795.660767,1583
795.779846,1558
795.898865,1569
796.017883,1566
796.136963,1502
796.255981,1543
796.375061,1505
796.49408,1531
796.613037,1560
796.732117,1531
796.851135,1554
796.970154,1534
797.089233,1548
797.208191,1494
797.327271,1517
797.446228,1534
797.565186,1548
797.684265,1536
797.803223,1502
797.922241,1494
798.04126,1537
798.160278,1494
798.279297,1535
798.398315,1517
798.517273,1510
798.636292,1512
798.75531,1510
798.874268,1486
798.993286,1535
799.112244,1466
799.231323,1473
799.350281,1491
799.469238,1490
799.588257,1492
799.707153,1492
799.826111,1497
799.945129,1491
800.064087,1496
800.183044,1457
800.302063,1496
800.421021,1465
800.539978,1484
800.658936,1482
800.777893,1505
800.896912,1468
801.015747,1477
801.134705,1482
801.253723,1481
801.37262,1492
801.491638,1434
801.610535,1451
801.729492,1499
801.84845,1520
801.967407,1435
802.086243,1482
802.205261,1483
802.324158,1480
802.443115,1494
802.562073,1506
802.680969,1466
802.799927,1485
802.918762,1497
803.037659,1475
803.156677,1494
803.275574,1441
803.39447,1503
803.513428,1463
803.632263,1451
803.751221,1447
803.870117,1491
803.989014,1488
804.107971,1476
804.226746,1481
804.345642,1453
804.4646,1494
804.583496,1455
804.702393,1424
804.821228,1515
804.940125,1469
805.059021,1462
805.177917,1452
805.296814,1467
805.415649,1477
805.534546,1431
805.653442,1470
805.772278,1457
805.891113,1506
806.01001,1498
806.128906,1453
806.247742,1484
806.366577,1450
806.485413,1447
806.604309,1452
806.723145,1472
806.84198,1522
806.960876,1449
807.079712,1451
807.198486,1479
807.317383,1435
807.436218,1480
807.554993,1463
807.673889,1484
807.792725,1485
807.91156,1451
808.030396,1464
808.14917,1425
808.268005,1434
808.386841,1468
808.505676,1442
808.624451,1396
808.743286,1448
808.862122,1484
808.980896,1478
809.099731,1444
809.218506,1468
809.337341,1463
809.456116,1481
809.57489,1440
809.693726,1456
809.8125,1419
809.931274,1474
810.050049,1465
810.168884,1469
810.287659,1437
810.406372,1432
810.525269,1465
810.643982,1463
810.762756,1484
810.881531,1447
811.000305,1474
811.11908,1480
811.237854,1484
811.356567,1419
811.475403,1453
811.594116,1429
811.71283,1438
811.831604,1460
811.950378,1403
812.069153,1423
812.187927,1456
812.30658,1428
812.425415,1474
812.544128,1435
812.662781,1484
812.781616,1478
812.900269,1434
813.019043,1473
813.137756,1409
813.256531,1422
813.375244,1462
813.493896,1449
813.612671,1478
813.731384,1406
813.850037,1432
813.96875,1438
814.087524,1424
814.206238,1451
814.324951,1414
814.443604,1445
814.562256,1436
814.68103,1448
814.799683,1384
814.918335,1427
815.037109,1454
815.155762,1418
815.274475,1384
815.393188,1447
815.511841,1456
815.630554,1427
815.749146,1406
815.867859,1428
815.986572,1423
816.105164,1424
816.223877,1375
816.342529,1430
816.461182,1416
816.579895,1449
816.698486,1447
816.817139,1420
816.935791,1441
817.054504,1414
817.173096,1441
817.291748,1406
817.4104,1435
817.529053,1400
817.647644,1441
817.766235,1399
817.884949,1366
818.00354,1405
818.122192,1356
818.240845,1406
818.359436,1377
818.478088,1375
818.59668,1357
818.715271,1362
818.833923,1371
818.952515,1382
819.071106,1374
819.189758,1345
819.30835,1379
819.426941,1335
819.545532,1388
819.664124,1382
819.782715,1348
819.901306,1372
820.019897,1317
820.138489,1342
820.25708,1372
820.375671,1383
820.494202,1355
820.612732,1347
820.731384,1355
820.849915,1376
820.968506,1348
821.087097,1323
821.205627,1375
821.324158,1381
821.442749,1357
821.561279,1341
821.679871,1312
821.798401,1331
821.916931,1282
822.035461,1350
822.154053,1315
822.272583,1316
822.391174,1310
822.509583,1318
822.628174,1340
822.746704,1358
822.865234,1336
822.983765,1266
823.102295,1332
823.220825,1313
823.339294,1300
823.457825,1352
823.576355,1329
823.694824,1313
823.813354,1337
823.931885,1305
824.050354,1329
824.168884,1337
824.287354,1356
824.405823,1338
824.524353,1311
824.642822,1340
824.761353,1332
824.879822,1351
824.998291,1306
825.116699,1282
825.235291,1332
825.353699,1289
825.472168,1297
825.590637,1360
825.709106,1317
825.827576,1332
825.946045,1298
826.064453,1308
826.182983,1342
826.301392,1292
826.4198,1306
826.53833,1318
826.656738,1317
826.775208,1291
826.893677,1321
827.012024,1325
827.130493,1294
827.248962,1300
827.36731,1298
827.485779,1296
827.604248,1307
827.722595,1291
827.841064,1303
827.959412,1268
828.077942,1260
828.196289,1278
828.314636,1290
828.433105,1301
828.551514,1308
828.669861,1307
828.78833,1286
828.906677,1351
829.025085,1286
829.143433,1274
829.261841,1306
829.38031,1301
829.498657,1282
829.617004,1308
829.735413,1309
829.85376,1281
829.972107,1314
830.090515,1311
830.208862,1292
830.327209,1264
830.445557,1315
830.563904,1293
830.682312,1280
830.800659,1306
830.919006,1306
831.037354,1273
831.155701,1278
831.274048,1310
831.392395,1273
831.51062,1302
831.629028,1273
831.747314,1262
831.865662,1293
831.984009,1258
832.102356,1293
832.220642,1243
832.338928,1316
832.457275,1291
832.575623,1312
832.693909,1287
832.812134,1286
832.930481,1327
833.048828,1299
833.167114,1294
833.2854,1342
833.403687,1291
833.521973,1291
833.640259,1289
833.758545,1259
833.876831,1281
833.995056,1268
834.113281,1317
834.231628,1322
834.349915,1272
834.468201,1306
834.586426,1320
834.704651,1244
834.822998,1265
834.941162,1256
835.059448,1273
835.177673,1299
835.295959,1253
835.414246,1264
835.53241,1249
835.650635,1255
835.768921,1289
835.887146,1300
836.005371,1311
836.123596,1308
836.241821,1299
836.360046,1294
836.478271,1289
836.596497,1265
836.714722,1279
836.832886,1319
836.95105,1274
837.069336,1292
837.1875,1298
837.305725,1333
837.423889,1308
837.542053,1300
837.660339,1241
837.778503,1283
837.896667,1267
838.014832,1298
838.132996,1262
838.25116,1284
838.369385,1325
838.487488,1260
838.605713,1271
838.723877,1271
838.84198,1279
838.960205,1361
839.078308,1271
839.196472,1271
839.314636,1272
839.4328,1309
839.550964,1259
839.669067,1290
839.787231,1267
839.905396,1294
840.023499,1291
840.141602,1291
840.259766,1316
840.377869,1328
840.495972,1284
840.614136,1249
840.732239,1278
840.850342,1288
840.968445,1305
841.086548,1283
841.204651,1288
841.322754,1307
841.440918,1283
841.55896,1316
841.677002,1291
841.795166,1278
841.913208,1252
842.031311,1321
842.149353,1304
842.267456,1246
842.385498,1311
842.503601,1257
842.621643,1307
842.739746,1295
842.857788,1264
842.97583,1275
843.093933,1287
843.211975,1296
843.330017,1289
843.44812,1302
843.566101,1260
843.684204,1314
843.802246,1297
843.920227,1283
844.038269,1314
844.156311,1290
844.274292,1304
844.392395,1294
844.510376,1339
844.628357,1281
844.74646,1313
844.864441,1279
844.982422,1287
845.100403,1268
845.218384,1313
845.336426,1260
845.454468,1278
845.572449,1268
845.69043,1220
845.808411,1301
845.926453,1280
846.044373,1269
846.162354,1267
846.280396,1280
846.398315,1265
846.516296,1339
846.634216,1278
846.752197,1274
846.870178,1266
846.988098,1327
847.106079,1271
847.22406,1277
847.34198,1300
847.4599,1274
847.577881,1280
847.695801,1269
847.813782,1286
847.931641,1265
848.049561,1303
848.167603,1253
848.285461,1305
848.403381,1270
848.521362,1273
848.639221,1308
848.75708,1283
848.875,1293
848.99292,1279
849.110901,1305
849.22876,1261
849.34668,1296
849.464539,1278
849.582458,1284
849.700317,1280
849.818176,1301
849.936096,1277
850.053955,1301
850.171875,1289
850.289673,1349
850.407593,1289
850.525452,1304
850.643311,1305
850.761169,1303
850.878967,1307
850.996887,1313
851.114746,1294
851.232544,1319
851.350403,1266
851.468262,1282
851.58606,1283
851.703979,1290
851.821777,1312
851.939636,1288
852.057434,1299
852.175232,1262
852.293091,1313
852.410889,1307
852.528687,1296
852.646545,1271
852.764343,1265
852.88208,1270
852.999939,1281
853.117676,1255
853.235535,1312
853.353271,1270
853.471069,1285
853.588928,1277
853.706604,1253
853.824402,1324
853.9422,1229
854.059998,1278
854.177734,1320
854.295532,1267
854.413269,1273
854.531006,1254
854.648804,1281
854.766541,1310
854.884277,1248
855.002014,1300
855.119751,1289
855.237549,1280
855.355225,1277
855.473022,1275
855.590698,1292
855.708435,1293
855.826172,1299
855.943848,1337
856.061646,1281
856.179321,1254
856.296997,1305
856.414795,1260
856.53241,1315
856.650085,1306
856.767822,1236
856.885559,1307
857.003174,1272
857.120911,1296
857.238586,1279
857.356201,1353
857.473938,1276
857.591614,1316
857.709351,1291
857.826965,1268
857.944641,1311
858.062317,1284
858.179993,1313
858.297668,1310
858.415283,1271
858.532959,1297
858.650574,1250
858.768188,1334
858.885803,1282
859.003479,1306
859.121094,1275
859.23877,1278
859.356384,1283
859.473999,1310
859.591675,1285
859.709229,1287
859.826843,1316
859.944458,1265
860.062012,1355
860.179626,1264
860.297302,1324
860.414856,1258
860.532471,1284
860.650024,1306
860.767639,1268
860.885193,1290
861.002808,1262
861.120361,1304
861.237976,1281
861.35553,1336
861.473022,1321
861.590698,1259
861.708191,1296
861.825745,1307
861.943298,1277
862.060852,1298
862.178406,1273
862.295959,1280
862.413513,1271
862.531006,1318
862.64856,1284
862.766113,1309
862.883667,1267
863.00116,1265
863.118713,1283
863.236206,1309
863.353699,1256
863.471252,1296
863.588745,1229
863.706177,1287
863.82373,1321
863.941162,1290
864.058716,1278
864.176208,1304
864.29364,1268
864.411194,1285
864.528687,1296
864.646118,1310
864.763611,1263
864.881042,1300
864.998535,1271
865.116028,1261
865.233459,1298
865.350891,1285
865.468384,1321
865.585754,1311
865.703308,1315
865.820679,1267
865.938171,1317
866.055542,1302
866.173035,1295
866.290466,1294
866.407837,1291
866.52533,1322
866.6427,1285
866.760071,1288
866.877563,1291
866.994934,1273
867.112305,1273
867.229736,1288
867.347107,1301
867.464539,1279
867.58197,1300
867.699341,1306
867.81665,1325
867.934082,1294
868.051453,1278
868.168823,1272
868.286194,1296
868.403564,1314
868.520935,1303
868.638306,1289
868.755676,1267
868.872986,1278
868.990295,1262
869.107727,1290
869.225037,1293
869.342346,1333
869.459717,1297
869.577026,1310
869.694336,1268
869.811707,1301
869.929016,1325
870.046326,1318
870.163635,1321
870.280945,1341
870.398254,1335
870.515564,1277
870.632812,1344
870.750183,1330
870.867432,1289
870.984741,1279
871.102051,1347
871.219299,1282
871.336609,1324
871.453918,1317
871.571106,1290
871.688416,1272
871.805664,1304
871.922852,1317
872.040222,1323
872.157471,1343
872.274719,1327
872.391968,1320
872.509155,1332
872.626465,1296
872.743652,1351
872.860962,1302
872.978149,1317
873.095337,1309
873.212646,1306
873.329834,1296
873.44696,1341
873.564209,1286
873.681396,1307
873.798645,1304
873.915894,1299
874.03302,1330
874.150208,1302
874.267456,1326
874.384583,1302
874.501831,1311
874.618958,1274
874.736145,1327
874.853333,1284
874.970459,1329
875.087646,1350
875.204834,1362
875.32196,1304
875.439148,1326
875.556274,1332
875.673401,1330
875.790527,1349
875.907715,1291
876.024841,1296
876.141968,1301
876.259094,1299
876.376282,1288
876.493347,1323
876.610474,1311
876.7276,1325
876.844727,1307
876.961853,1293
877.078918,1308
877.195984,1336
877.313171,1334
877.430237,1331
877.547302,1284
877.664368,1300
877.781433,1336
877.898499,1351
878.015625,1275
878.13269,1342
878.249695,1306
878.366821,1321
878.483887,1345
878.600952,1341
878.717957,1311
878.834961,1288
878.952087,1319
879.069092,1317
879.186157,1300
879.303162,1294
879.420227,1284
879.537231,1319
879.654236,1298
879.77124,1292
879.888306,1320
880.005249,1322
880.122314,1267
880.239319,1327
880.356323,1302
880.473328,1315
880.590271,1351
880.707275,1288
880.824341,1303
880.941284,1301
881.058228,1335
881.175232,1287
881.292236,1298
881.40918,1316
881.526123,1300
881.643066,1328
881.760071,1309
881.877014,1317
881.993958,1330
882.11084,1277
882.227783,1301
882.344727,1276
882.46167,1312
882.578613,1317
882.695618,1343
882.812439,1329
882.929382,1312
883.046326,1314
883.163208,1311
883.280151,1353
883.397034,1278
883.513916,1322
883.630798,1315
883.747742,1312
883.864563,1346
883.981506,1318
884.098389,1326
884.21521,1306
884.332153,1344
884.448975,1306
884.565796,1327
884.682678,1314
884.7995,1370
884.916443,1363
885.033264,1340
885.150085,1364
885.266968,1361
885.383789,1366
885.500671,1343
885.617493,1406
885.734314,1325
885.851196,1361
885.967896,1355
886.084717,1380
886.201599,1375
886.318359,1387
886.435181,1378
886.552002,1355
886.668762,1329
886.785645,1363
886.902344,1312
887.019165,1344
887.135925,1339
887.252747,1338
887.369446,1324
887.486267,1341
887.603027,1334
887.719788,1352
887.836548,1326
887.953247,1360
888.070068,1357
888.186829,1311
888.303528,1359
888.420288,1331
888.536987,1357
888.653687,1358
888.770447,1323
888.887146,1339
889.003967,1317
889.120667,1331
889.237305,1377
889.354065,1339
889.470703,1304
889.587463,1333
889.704163,1364
889.820862,1284
889.937561,1348
890.054199,1333
890.170837,1304
890.287598,1327
890.404236,1296
890.520874,1353
890.637634,1349
890.754211,1331
890.87085,1362
890.987549,1328
891.104187,1325
891.220886,1360
891.337463,1341
891.454102,1361
891.57074,1338
891.687378,1344
891.804077,1340
891.920654,1347
892.037231,1324
892.15387,1355
892.270447,1332
892.387085,1388
892.503723,1344
892.6203,1361
892.736877,1359
892.853516,1331
892.970032,1362
893.08667,1354
893.203186,1344
893.319763,1362
893.43634,1356
893.552917,1362
893.669556,1345
893.786011,1350
893.902588,1359
894.019165,1337
894.135681,1343
894.252197,1352
894.368835,1343
894.485291,1328
894.601868,1348
894.718384,1348
894.8349,1329
894.951355,1347
895.067932,1354
895.184448,1343
895.300964,1379
895.417419,1386
895.533936,1338
895.650452,1349
895.766907,1338
895.883423,1299
895.999878,1365
896.116333,1352
896.232849,1366
896.349304,1371
896.465759,1374
896.582214,1382
896.698669,1360
896.815125,1327
896.931641,1336
897.048035,1345
897.164551,1331
897.280884,1342
897.397339,1334
897.513794,1346
897.630249,1368
897.746582,1360
897.863098,1360
897.979431,1340
898.095886,1399
898.212341,1345
898.328674,1334
898.445129,1384
898.561462,1354
898.677795,1317
898.794312,1391
898.910645,1355
899.026978,1403
899.143433,1334
899.259766,1350
899.37616,1321
899.492493,1381
899.608765,1375
899.725159,1388
899.841553,1364
899.957947,1390
900.07428,1368
900.190552,1409
900.306946,1330
900.423157,1363
900.53949,1372
900.655884,1385
900.772156,1347
900.888489,1352
901.004822,1362
901.121033,1352
901.237366,1350
901.353699,1432
901.46991,1344
901.586304,1378
901.702515,1359
901.818787,1361
901.93512,1356
902.051331,1378
902.167603,1369
902.283875,1387
902.400085,1414
902.516418,1387
902.632629,1414
902.74884,1358
902.865112,1399
902.981384,1381
903.097595,1398
903.213867,1365
903.330017,1416
903.446289,1372
903.5625,1391
903.67865,1397
903.794922,1417
903.911072,1377
904.027344,1369
904.143494,1421
904.259705,1426
904.375916,1351
904.492065,1399
904.608215,1375
904.724426,1379
904.840576,1404
904.956726,1399
905.072876,1359
905.189087,1375
905.305176,1406
905.421387,1388
905.537537,1389
905.653687,1375
905.769775,1388
905.885925,1398
906.002014,1340
906.118164,1335
906.234314,1396
906.350403,1394
906.466492,1347
906.582642,1395
906.69873,1363
906.814758,1364
906.930908,1391
907.046936,1395
907.163086,1388
907.279175,1346
907.395264,1367
907.511353,1362
907.62738,1359
907.743408,1405
907.859497,1373
907.975525,1414
908.091553,1350
908.207703,1377
908.32373,1417
908.439758,1401
908.555786,1425
908.671814,1407
908.787842,1360
908.90387,1413
909.019775,1367
909.135864,1374
909.251892,1396
909.367859,1420
909.483826,1412
909.599854,1371
909.715881,1403
909.831848,1406
909.947815,1399
910.063782,1396
910.179749,1419
910.295776,1388
910.411743,1354
910.527649,1364
910.643616,1419
910.759583,1403
910.875488,1386
910.991455,1388
911.107361,1406
911.223267,1450
911.339294,1401
911.4552,1404
911.571106,1378
911.687073,1395
911.802979,1382
911.918823,1398
912.034729,1395
912.150635,1403
912.266602,1407
912.382446,1388
912.498352,1400
912.614197,1358
912.730103,1407
912.846008,1341
792.44574,1900
792.56488,1820
792.68396,1797
792.80304,1841
792.92218,1749
793.041199,1741
793.160339,1703
793.279419,1718
793.398499,1724
793.517578,1695
793.636658,1699
793.755737,1715
793.874817,1685
793.993896,1716
794.112976,1654
794.232056,1653
794.351074,1635
794.470215,1617
794.589233,1641
794.708313,1666
794.827393,1601
794.946411,1633
795.065552,1591
795.18457,1607
795.303589,1622
795.422668,1600
795.541687,1638
795.660767,1641
795.779846,1595
795.898865,1556
796.017883,1574
796.136963,1592
796.255981,1582
796.375061,1623
796.49408,1598
796.613037,1583
796.732117,1574
796.851135,1585
796.970154,1569
797.089233,1556
797.208191,1589
797.327271,1556
797.446228,1561
797.565186,1530
797.684265,1555
797.803223,1598
797.922241,1521
798.04126,1549
798.160278,1574
798.279297,1538
798.398315,1580
798.517273,1538
798.636292,1484
798.75531,1541
798.874268,1555
798.993286,1552
799.112244,1518
799.231323,1511
799.350281,1517
799.469238,1488
799.588257,1485
799.707153,1532
799.826111,1485
799.945129,1503
800.064087,1553
800.183044,1507
800.302063,1508
800.421021,1501
800.539978,1555
800.658936,1544
800.777893,1517
800.896912,1527
801.015747,1473
801.134705,1474
801.253723,1540
801.37262,1515
801.491638,1547
801.610535,1533
801.729492,1503
801.84845,1510
801.967407,1510
802.086243,1523
802.205261,1501
802.324158,1478
802.443115,1487
802.562073,1479
802.680969,1565
802.799927,1533
802.918762,1503
803.037659,1503
803.156677,1468
803.275574,1510
803.39447,1475
803.513428,1506
803.632263,1508
803.751221,1432
803.870117,1470
803.989014,1556
804.107971,1514
804.226746,1464
804.345642,1510
804.4646,1466
804.583496,1444
804.702393,1529
804.821228,1514
804.940125,1500
805.059021,1450
805.177917,1511
805.296814,1518
805.415649,1492
805.534546,1511
805.653442,1522
805.772278,1514
805.891113,1514
806.01001,1470
806.128906,1509
806.247742,1529
806.366577,1491
806.485413,1489
806.604309,1461
806.723145,1477
806.84198,1480
806.960876,1501
807.079712,1506
807.198486,1512
807.317383,1471
807.436218,1520
807.554993,1500
807.673889,1531
807.792725,1493
807.91156,1512
808.030396,1514
808.14917,1490
808.268005,1479
808.386841,1509
808.505676,1490
808.624451,1487
808.743286,1511
808.862122,1490
808.980896,1455
809.099731,1510
809.218506,1495
809.337341,1481
809.456116,1510
809.57489,1501
809.693726,1493
809.8125,1483
809.931274,1484
810.050049,1491
810.168884,1483
810.287659,1471
810.406372,1508
810.525269,1485
810.643982,1493
810.762756,1496
810.881531,1475
811.000305,1487
811.11908,1476
811.237854,1473
811.356567,1464
811.475403,1498
811.594116,1466
811.71283,1455
811.831604,1495
811.950378,1506
812.069153,1491
812.187927,1505
812.30658,1453
812.425415,1485
812.544128,1507
812.662781,1487
812.781616,1475
812.900269,1482
813.019043,1495
813.137756,1470
813.256531,1470
813.375244,1456
813.493896,1465
813.612671,1469
813.731384,1485
813.850037,1461
813.96875,1473
814.087524,1438
814.206238,1441
814.324951,1476
814.443604,1477
814.562256,1439
814.68103,1479
814.799683,1469
814.918335,1468
815.037109,1469
815.155762,1473
815.274475,1477
815.393188,1455
815.511841,1471
815.630554,1445
815.749146,1449
815.867859,1457
815.986572,1435
816.105164,1448
816.223877,1419
816.342529,1421
816.461182,1417
816.579895,1455
816.698486,1443
816.817139,1443
816.935791,1500
817.054504,1427
817.173096,1470
817.291748,1471
817.4104,1462
817.529053,1409
817.647644,1413
817.766235,1465
817.884949,1411
818.00354,1430
818.122192,1404
818.240845,1412
818.359436,1419
818.478088,1407
818.59668,1432
818.715271,1418
818.833923,1439
818.952515,1438
819.071106,1420
819.189758,1358
819.30835,1386
819.426941,1402
819.545532,1373
819.664124,1389
819.782715,1363
819.901306,1400
820.019897,1406
820.138489,1360
820.25708,1353
820.375671,1394
820.494202,1359
820.612732,1399
820.731384,1413
820.849915,1368
820.968506,1366
821.087097,1391
821.205627,1434
821.324158,1390
821.442749,1362
821.561279,1368
821.679871,1346
821.798401,1341
821.916931,1385
822.035461,1353
822.154053,1405
822.272583,1361
822.391174,1342
822.509583,1356
822.628174,1379
822.746704,1358
822.865234,1326
822.983765,1370
823.102295,1367
823.220825,1326
823.339294,1335
823.457825,1359
823.576355,1319
823.694824,1409
823.813354,1333
823.931885,1378
824.050354,1393
824.168884,1332
824.287354,1377
824.405823,1336
824.524353,1384
824.642822,1336
824.761353,1385
824.879822,1339
824.998291,1367
825.116699,1365
825.235291,1317
825.353699,1348
825.472168,1384
825.590637,1308
825.709106,1380
825.827576,1381
825.946045,1349
826.064453,1368
826.182983,1355
826.301392,1330
826.4198,1336
826.53833,1317
826.656738,1350
826.775208,1337
826.893677,1337
827.012024,1337
827.130493,1350
827.248962,1320
827.36731,1338
827.485779,1364
827.604248,1335
827.722595,1329
827.841064,1331
827.959412,1321
828.077942,1344
828.196289,1325
828.314636,1301
828.433105,1382
828.551514,1388
828.669861,1359
828.78833,1310
828.906677,1314
829.025085,1302
829.143433,1318
829.261841,1346
829.38031,1316
829.498657,1312
829.617004,1367
829.735413,1348
829.85376,1346
829.972107,1312
830.090515,1291
830.208862,1295
830.327209,1306
830.445557,1316
830.563904,1289
830.682312,1328
830.800659,1294
830.919006,1357
831.037354,1330
831.155701,1334
831.274048,1319
831.392395,1317
831.51062,1310
831.629028,1316
831.747314,1316
831.865662,1341
831.984009,1331
832.102356,1320
832.220642,1300
832.338928,1310
832.457275,1329
832.575623,1284
832.693909,1324
832.812134,1299
832.930481,1319
833.048828,1303
833.167114,1312
833.2854,1314
833.403687,1315
833.521973,1301
833.640259,1307
833.758545,1332
833.876831,1311
833.995056,1324
834.113281,1291
834.231628,1317
834.349915,1300
834.468201,1293
834.586426,1368
834.704651,1333
834.822998,1302
834.941162,1285
835.059448,1351
835.177673,1354
835.295959,1323
835.414246,1304
835.53241,1315
835.650635,1334
835.768921,1317
835.887146,1297
836.005371,1341
836.123596,1336
836.241821,1314
836.360046,1312
836.478271,1306
836.596497,1317
836.714722,1307
836.832886,1337
836.95105,1283
837.069336,1300
837.1875,1325
837.305725,1342
837.423889,1330
837.542053,1305
837.660339,1325
837.778503,1304
837.896667,1336
838.014832,1332
838.132996,1303
838.25116,1299
838.369385,1318
838.487488,1321
838.605713,1344
838.723877,1286
838.84198,1330
838.960205,1292
839.078308,1329
839.196472,1304
839.314636,1312
839.4328,1309
839.550964,1296
839.669067,1279
839.787231,1308
839.905396,1332
840.023499,1329
840.141602,1330
840.259766,1344
840.377869,1274
840.495972,1309
840.614136,1274
840.732239,1323
840.850342,1305
840.968445,1304
841.086548,1290
841.204651,1329
841.322754,1300
841.440918,1293
841.55896,1327
841.677002,1287
841.795166,1334
841.913208,1291
842.031311,1306
842.149353,1313
842.267456,1312
842.385498,1341
842.503601,1318
842.621643,1328
842.739746,1317
842.857788,1287
842.97583,1284
843.093933,1303
843.211975,1301
843.330017,1334
843.44812,1315
843.566101,1316
843.684204,1321
843.802246,1316
843.920227,1309
844.038269,1333
844.156311,1331
844.274292,1333
844.392395,1280
844.510376,1328
844.628357,1262
844.74646,1276
844.864441,1342
844.982422,1337
845.100403,1333
845.218384,1307
845.336426,1318
845.454468,1304
845.572449,1322
845.69043,1323
845.808411,1263
845.926453,1296
846.044373,1255
846.162354,1320
846.280396,1297
846.398315,1295
846.516296,1264
846.634216,1292
846.752197,1293
846.870178,1283
846.988098,1267
847.106079,1238
847.22406,1293
847.34198,1347
847.4599,1312
847.577881,1266
847.695801,1303
847.813782,1298
847.931641,1285
848.049561,1338
848.167603,1342
848.285461,1331
848.403381,1275
848.521362,1288
848.639221,1332
848.75708,1287
848.875,1323
848.99292,1321
849.110901,1302
849.22876,1297
849.34668,1330
849.464539,1342
849.582458,1314
849.700317,1352
849.818176,1319
849.936096,1316
850.053955,1325
850.171875,1337
850.289673,1349
850.407593,1305
850.525452,1347
850.643311,1325
850.761169,1317
850.878967,1319
850.996887,1309
851.114746,1314
851.232544,1327
851.350403,1273
851.468262,1315
851.58606,1297
851.703979,1323
851.821777,1317
851.939636,1330
852.057434,1305
852.175232,1302
852.293091,1326
852.410889,1331
852.528687,1309
852.646545,1333
852.764343,1289
852.88208,1318
852.999939,1314
853.117676,1323
853.235535,1328
853.353271,1280
853.471069,1343
853.588928,1297
853.706604,1363
853.824402,1295
853.9422,1295
854.059998,1306
854.177734,1326
854.295532,1359
854.413269,1333
854.531006,1296
854.648804,1336
854.766541,1283
854.884277,1313
855.002014,1350
855.119751,1295
855.237549,1323
855.355225,1312
855.473022,1352
855.590698,1298
855.708435,1347
855.826172,1323
855.943848,1356
856.061646,1324
856.179321,1319
856.296997,1340
856.414795,1323
856.53241,1308
856.650085,1358
856.767822,1320
856.885559,1310
857.003174,1333
857.120911,1321
857.238586,1302
857.356201,1333
857.473938,1320
857.591614,1311
857.709351,1333
857.826965,1293
857.944641,1331
858.062317,1337
858.179993,1299
858.297668,1320
858.415283,1357
858.532959,1328
858.650574,1301
858.768188,1351
858.885803,1378
859.003479,1327
859.121094,1313
859.23877,1333
859.356384,1333
859.473999,1287
859.591675,1314
859.709229,1378
859.826843,1336
859.944458,1322
860.062012,1354
860.179626,1331
860.297302,1297
860.414856,1282
860.532471,1344
860.650024,1330
860.767639,1379
860.885193,1309
861.002808,1270
861.120361,1330
861.237976,1323
861.35553,1334
861.473022,1310
861.590698,1288
861.708191,1325
861.825745,1295
861.943298,1319
862.060852,1279
862.178406,1300
862.295959,1301
862.413513,1319
862.531006,1275
862.64856,1296
862.766113,1312
862.883667,1320
863.00116,1337
863.118713,1287
863.236206,1347
863.353699,1294
863.471252,1330
863.588745,1319
863.706177,1340
863.82373,1295
863.941162,1306
864.058716,1322
864.176208,1300
864.29364,1290
864.411194,1310
864.528687,1301
864.646118,1322
864.763611,1308
864.881042,1299
864.998535,1302
865.116028,1347
865.233459,1388
865.350891,1293
865.468384,1315
865.585754,1312
865.703308,1303
865.820679,1343
865.938171,1311
866.055542,1324
866.173035,1343
866.290466,1299
866.407837,1339
866.52533,1302
866.6427,1368
866.760071,1295
866.877563,1335
866.994934,1330
867.112305,1300
867.229736,1292
867.347107,1345
867.464539,1307
867.58197,1313
867.699341,1332
867.81665,1330
867.934082,1328
868.051453,1298
868.168823,1332
868.286194,1331
868.403564,1329
868.520935,1284
868.638306,1333
868.755676,1326
868.872986,1312
868.990295,1335
869.107727,1332
869.225037,1317
869.342346,1351
869.459717,1348
869.577026,1329
869.694336,1351
869.811707,1335
869.929016,1363
870.046326,1332
870.163635,1324
870.280945,1348
870.398254,1348
870.515564,1335
870.632812,1343
870.750183,1327
870.867432,1336
870.984741,1313
871.102051,1360
871.219299,1345
871.336609,1383
871.453918,1348
871.571106,1343
871.688416,1346
871.805664,1348
871.922852,1343
872.040222,1314
872.157471,1352
872.274719,1400
872.391968,1339
872.509155,1336
872.626465,1354
872.743652,1353
872.860962,1309
872.978149,1360
873.095337,1335
873.212646,1361
873.329834,1334
873.44696,1374
873.564209,1342
873.681396,1326
873.798645,1350
873.915894,1334
874.03302,1348
874.150208,1364
874.267456,1361
874.384583,1310
874.501831,1333
874.618958,1341
874.736145,1350
874.853333,1371
874.970459,1315
875.087646,1355
875.204834,1331
875.32196,1341
875.439148,1346
875.556274,1307
875.673401,1346
875.790527,1336
875.907715,1335
876.024841,1336
876.141968,1354
876.259094,1364
876.376282,1344
876.493347,1366
876.610474,1383
876.7276,1331
876.844727,1317
876.961853,1306
877.078918,1373
877.195984,1343
877.313171,1367
877.430237,1380
877.547302,1410
877.664368,1317
877.781433,1351
877.898499,1340
878.015625,1320
878.13269,1341
878.249695,1356
878.366821,1358
878.483887,1332
878.600952,1349
878.717957,1338
878.834961,1340
878.952087,1336
879.069092,1353
879.186157,1378
879.303162,1333
879.420227,1330
879.537231,1369
879.654236,1338
879.77124,1322
879.888306,1341
880.005249,1334
880.122314,1336
880.239319,1353
880.356323,1360
880.473328,1340
880.590271,1372
880.707275,1320
880.824341,1354
880.941284,1382
881.058228,1355
881.175232,1346
881.292236,1372
881.40918,1310
881.526123,1309
881.643066,1348
881.760071,1331
881.877014,1353
881.993958,1375
882.11084,1333
882.227783,1325
882.344727,1358
882.46167,1377
882.578613,1329
882.695618,1377
882.812439,1352
882.929382,1382
883.046326,1329
883.163208,1338
883.280151,1370
883.397034,1377
883.513916,1395
883.630798,1323
883.747742,1345
883.864563,1364
883.981506,1329
884.098389,1378
884.21521,1371
884.332153,1328
884.448975,1351
884.565796,1365
884.682678,1387
884.7995,1419
884.916443,1364
885.033264,1349
885.150085,1375
885.266968,1353
885.383789,1385
885.500671,1368
885.617493,1416
885.734314,1393
885.851196,1397
885.967896,1328
886.084717,1379
886.201599,1362
886.318359,1371
886.435181,1401
886.552002,1360
886.668762,1395
886.785645,1392
886.902344,1338
887.019165,1433
887.135925,1355
887.252747,1379
887.369446,1405
887.486267,1422
887.603027,1376
887.719788,1382
887.836548,1322
887.953247,1357
888.070068,1371
888.186829,1357
888.303528,1384
888.420288,1380
888.536987,1333
888.653687,1384
888.770447,1346
888.887146,1373
889.003967,1393
889.120667,1349
889.237305,1366
889.354065,1415
889.470703,1390
889.587463,1334
889.704163,1386
889.820862,1358
889.937561,1349
890.054199,1396
890.170837,1344
890.287598,1368
890.404236,1365
890.520874,1371
890.637634,1373
890.754211,1368
890.87085,1376
890.987549,1361
891.104187,1413
891.220886,1384
891.337463,1328
891.454102,1392
891.57074,1394
891.687378,1347
891.804077,1371
891.920654,1335
892.037231,1349
892.15387,1356
892.270447,1343
892.387085,1373
892.503723,1384
892.6203,1385
892.736877,1390
892.853516,1368
892.970032,1404
893.08667,1380
893.203186,1379
893.319763,1391
893.43634,1360
893.552917,1434
893.669556,1355
893.786011,1413
893.902588,1409
894.019165,1361
894.135681,1376
894.252197,1416
894.368835,1379
894.485291,1368
894.601868,1407
894.718384,1389
894.8349,1372
894.951355,1392
895.067932,1386
895.184448,1379
895.300964,1374
895.417419,1410
895.533936,1384
895.650452,1384
895.766907,1404
895.883423,1405
895.999878,1428
896.116333,1421
896.232849,1364
896.349304,1398
896.465759,1336
896.582214,1361
896.698669,1408
896.815125,1423
896.931641,1400
897.048035,1373
897.164551,1464
897.280884,1326
897.397339,1384
897.513794,1359
897.630249,1361
897.746582,1371
897.863098,1434
897.979431,1437
898.095886,1340
898.212341,1426
898.328674,1392
898.445129,1393
898.561462,1430
898.677795,1401
898.794312,1402
898.910645,1365
899.026978,1413
899.143433,1404
899.259766,1368
899.37616,1434
899.492493,1328
899.608765,1408
899.725159,1401
899.841553,1412
899.957947,1410
900.07428,1397
900.190552,1409
900.306946,1341
900.423157,1402
900.53949,1393
900.655884,1410
900.772156,1427
900.888489,1399
901.004822,1424
901.121033,1411
901.237366,1428
901.353699,1423
901.46991,1402
901.586304,1416
901.702515,1400
901.818787,1401
901.93512,1407
902.051331,1453
902.167603,1434
902.283875,1383
902.400085,1407
902.516418,1443
902.632629,1447
902.74884,1424
902.865112,1412
902.981384,1433
903.097595,1406
903.213867,1395
903.330017,1417
903.446289,1442
903.5625,1464
903.67865,1419
903.794922,1408
903.911072,1418
904.027344,1418
904.143494,1438
904.259705,1427
904.375916,1454
904.492065,1416
904.608215,1412
904.724426,1424
904.840576,1370
904.956726,1404
905.072876,1475
905.189087,1373
905.305176,1399
905.421387,1431
905.537537,1446
905.653687,1431
905.769775,1420
905.885925,1411
906.002014,1385
906.118164,1428
906.234314,1402
906.350403,1464
906.466492,1437
906.582642,1446
906.69873,1426
906.814758,1382
906.930908,1433
907.046936,1432
907.163086,1450
907.279175,1436
907.395264,1388
907.511353,1406
907.62738,1452
907.743408,1420
907.859497,1435
907.975525,1380
908.091553,1473
908.207703,1442
908.32373,1418
908.439758,1414
908.555786,1458
908.671814,1416
908.787842,1437
908.90387,1439
909.019775,1412
909.135864,1421
909.251892,1402
909.367859,1449
909.483826,1420
909.599854,1422
909.715881,1368
909.831848,1470
909.947815,1455
910.063782,1378
910.179749,1466
910.295776,1420
910.411743,1414
910.527649,1443
910.643616,1400
910.759583,1479
910.875488,1395
910.991455,1427
911.107361,1463
911.223267,1402
911.339294,1418
911.4552,1421
911.571106,1424
911.687073,1442
911.802979,1429
911.918823,1432
912.034729,1419
912.150635,1418
912.266602,1442
912.382446,1424
912.498352,1424
912.614197,1385
912.730103,1437
912.846008,1410
792.44574,1843
792.56488,1817
792.68396,1796
792.80304,1787
792.92218,1703
793.041199,1765
793.160339,1701
793.279419,1770
793.398499,1742
793.517578,1714
793.636658,1699
793.755737,1718
793.874817,1783
793.993896,1719
794.112976,1673
794.232056,1625
794.351074,1717
794.470215,1673
794.589233,1627
794.708313,1585
794.827393,1654
794.946411,1618
795.065552,1629
795.18457,1655
795.303589,1657
795.422668,1623
795.541687,1644
795.660767,1615
795.779846,1616
795.898865,1660
796.017883,1622
796.136963,1610
796.255981,1624
796.375061,1614
796.49408,1614
796.613037,1592
796.732117,1597
796.851135,1616
796.970154,1599
797.089233,1613
797.208191,1582
797.327271,1536
797.446228,1575
797.565186,1579
797.684265,1561
797.803223,1546
797.922241,1574
798.04126,1545
798.160278,1558
798.279297,1564
798.398315,1559
798.517273,1564
798.636292,1555
798.75531,1562
798.874268,1565
798.993286,1536
799.112244,1540
799.231323,1546
799.350281,1564
799.469238,1573
799.588257,1576
799.707153,1541
799.826111,1553
799.945129,1515
800.064087,1523
800.183044,1526
800.302063,1520
800.421021,1512
800.539978,1535
800.658936,1548
800.777893,1548
800.896912,1530
801.015747,1537
801.134705,1511
801.253723,1513
801.37262,1525
801.491638,1536
801.610535,1536
801.729492,1529
801.84845,1533
801.967407,1507
802.086243,1541
802.205261,1518
802.324158,1537
802.443115,1475
802.562073,1569
802.680969,1534
802.799927,1496
802.918762,1535
803.037659,1482
803.156677,1547
803.275574,1560
803.39447,1506
803.513428,1493
803.632263,1451
803.751221,1512
803.870117,1510
803.989014,1522
804.107971,1484
804.226746,1532
804.345642,1541
804.4646,1517
804.583496,1495
804.702393,1546
804.821228,1528
804.940125,1473
805.059021,1529
805.177917,1510
805.296814,1539
805.415649,1521
805.534546,1498
805.653442,1526
805.772278,1551
805.891113,1510
806.01001,1547
806.128906,1483
806.247742,1506
806.366577,1497
806.485413,1538
806.604309,1536
806.723145,1487
806.84198,1495
806.960876,1483
807.079712,1518
807.198486,1542
807.317383,1517
807.436218,1482
807.554993,1508
807.673889,1518
807.792725,1529
807.91156,1518
808.030396,1545
808.14917,1520
808.268005,1546
808.386841,1502
808.505676,1448
808.624451,1531
808.743286,1497
808.862122,1490
808.980896,1470
809.099731,1492
809.218506,1506
809.337341,1504
809.456116,1518
809.57489,1538
809.693726,1463
809.8125,1515
809.931274,1498
810.050049,1517
810.168884,1538
810.287659,1465
810.406372,1517
810.525269,1490
810.643982,1480
810.762756,1480
810.881531,1502
811.000305,1509
811.11908,1467
811.237854,1506
811.356567,1498
811.475403,1473
811.594116,1493
811.71283,1480
811.831604,1489
811.950378,1488
812.069153,1504
812.187927,1519
812.30658,1499
812.425415,1499
812.544128,1487
812.662781,1464
812.781616,1447
812.900269,1493
813.019043,1463
813.137756,1492
813.256531,1493
813.375244,1528
813.493896,1519
813.612671,1485
813.731384,1471
813.850037,1515
813.96875,1485
814.087524,1474
814.206238,1454
814.324951,1536
814.443604,1488
814.562256,1447
814.68103,1485
814.799683,1486
814.918335,1478
815.037109,1478
815.155762,1485
815.274475,1448
815.393188,1455
815.511841,1483
815.630554,1447
815.749146,1482
815.867859,1467
815.986572,1486
816.105164,1421
816.223877,1483
816.342529,1478
816.461182,1454
816.579895,1454
816.698486,1443
816.817139,1479
816.935791,1434
817.054504,1472
817.173096,1459
817.291748,1535
817.4104,1441
817.529053,1434
817.647644,1467
817.766235,1467
817.884949,1417
818.00354,1408
818.122192,1432
818.240845,1408
818.359436,1413
818.478088,1400
818.59668,1377
818.715271,1377
818.833923,1381
818.952515,1415
819.071106,1419
819.189758,1402
819.30835,1400
819.426941,1421
819.545532,1393
819.664124,1400
819.782715,1355
819.901306,1415
820.019897,1434
820.138489,1409
820.25708,1430
820.375671,1415
820.494202,1429
820.612732,1409
820.731384,1374
820.849915,1376
820.968506,1351
821.087097,1369
821.205627,1375
821.324158,1408
821.442749,1396
821.561279,1389
821.679871,1357
821.798401,1324
821.916931,1416
822.035461,1376
822.154053,1378
822.272583,1358
822.391174,1384
822.509583,1360
822.628174,1390
822.746704,1376
822.865234,1373
822.983765,1349
823.102295,1367
823.220825,1363
823.339294,1394
823.457825,1346
823.576355,1356
823.694824,1355
823.813354,1339
823.931885,1370
824.050354,1368
824.168884,1365
824.287354,1356
824.405823,1348
824.524353,1365
824.642822,1341
824.761353,1395
824.879822,1369
824.998291,1372
825.116699,1373
825.235291,1381
825.353699,1331
825.472168,1337
825.590637,1403
825.709106,1378
825.827576,1309
825.946045,1352
826.064453,1352
826.182983,1342
826.301392,1314
826.4198,1341
826.53833,1348
826.656738,1344
826.775208,1372
826.893677,1335
827.012024,1335
827.130493,1342
827.248962,1305
827.36731,1339
827.485779,1358
827.604248,1333
827.722595,1333
827.841064,1356
827.959412,1341
828.077942,1338
828.196289,1347
828.314636,1357
828.433105,1307
828.551514,1300
828.669861,1327
828.78833,1317
828.906677,1362
829.025085,1308
829.143433,1368
829.261841,1365
829.38031,1333
829.498657,1315
829.617004,1272
829.735413,1368
829.85376,1320
829.972107,1305
830.090515,1330
830.208862,1336
830.327209,1309
830.445557,1307
830.563904,1366
830.682312,1362
830.800659,1305
830.919006,1339
831.037354,1334
831.155701,1331
831.274048,1291
831.392395,1302
831.51062,1338
831.629028,1322
831.747314,1345
831.865662,1339
831.984009,1309
832.102356,1331
832.220642,1330
832.338928,1320
832.457275,1303
832.575623,1347
832.693909,1277
832.812134,1307
832.930481,1309
833.048828,1310
833.167114,1340
833.2854,1281
833.403687,1339
833.521973,1313
833.640259,1356
833.758545,1304
833.876831,1318
833.995056,1302
834.113281,1333
834.231628,1294
834.349915,1329
834.468201,1324
834.586426,1316
834.704651,1314
834.822998,1298
834.941162,1318
835.059448,1358
835.177673,1352
835.295959,1317
835.414246,1332
835.53241,1318
835.650635,1324
835.768921,1312
835.887146,1347
836.005371,1325
836.123596,1305
836.241821,1321
836.360046,1261
836.478271,1342
836.596497,1318
836.714722,1311
836.832886,1337
836.95105,1334
837.069336,1364
837.1875,1297
837.305725,1303
837.423889,1372
837.542053,1365
837.660339,1321
837.778503,1304
837.896667,1305
838.014832,1311
838.132996,1308
838.25116,1314
838.369385,1321
838.487488,1330
838.605713,1327
838.723877,1293
838.84198,1309
838.960205,1346
839.078308,1335
839.196472,1308
839.314636,1283
839.4328,1343
839.550964,1319
839.669067,1307
839.787231,1349
839.905396,1366
840.023499,1302
840.141602,1362
840.259766,1334
840.377869,1355
840.495972,1328
840.614136,1314
840.732239,1303
840.850342,1322
840.968445,1319
841.086548,1310
841.204651,1361
841.322754,1312
841.440918,1312
841.55896,1327
841.677002,1276
841.795166,1334
841.913208,1346
842.031311,1306
842.149353,1316
842.267456,1305
842.385498,1363
842.503601,1333
842.621643,1323
842.739746,1355
842.857788,1346
842.97583,1279
843.093933,1318
843.211975,1321
843.330017,1333
843.44812,1345
843.566101,1308
843.684204,1319
843.802246,1286
843.920227,1324
844.038269,1350
844.156311,1342
844.274292,1297
844.392395,1305
844.510376,1337
844.628357,1336
844.74646,1333
844.864441,1330
844.982422,1336
845.100403,1285
845.218384,1294
845.336426,1303
845.454468,1338
845.572449,1317
845.69043,1337
845.808411,1324
845.926453,1295
846.044373,1304
846.162354,1273
846.280396,1312
846.398315,1309
846.516296,1299
846.634216,1310
846.752197,1298
846.870178,1316
846.988098,1308
847.106079,1293
847.22406,1319
847.34198,1306
847.4599,1334
847.577881,1329
847.695801,1312
847.813782,1297
847.931641,1321
848.049561,1293
848.167603,1312
848.285461,1329
848.403381,1343
848.521362,1343
848.639221,1340
848.75708,1320
848.875,1306
848.99292,1315
849.110901,1316
849.22876,1339
849.34668,1333
849.464539,1322
849.582458,1363
849.700317,1299
849.818176,1382
849.936096,1365
850.053955,1390
850.171875,1326
850.289673,1339
850.407593,1273
850.525452,1351
850.643311,1332
850.761169,1342
850.878967,1304
850.996887,1335
851.114746,1351
851.232544,1332
851.350403,1317
851.468262,1311
851.58606,1325
851.703979,1332
851.821777,1340
851.939636,1325
852.057434,1349
852.175232,1316
852.293091,1352
852.410889,1335
852.528687,1345
852.646545,1319
852.764343,1325
852.88208,1290
852.999939,1279
853.117676,1314
853.235535,1300
853.353271,1349
853.471069,1342
853.588928,1309
853.706604,1343
853.824402,1311
853.9422,1349
854.059998,1326
854.177734,1302
854.295532,1311
854.413269,1331
854.531006,1366
854.648804,1327
854.766541,1327
854.884277,1325
855.002014,1338
855.119751,1305
855.237549,1329
855.355225,1289
855.473022,1361
855.590698,1327
855.708435,1316
855.826172,1313
855.943848,1332
856.061646,1325
856.179321,1348
856.296997,1351
856.414795,1336
856.53241,1365
856.650085,1315
856.767822,1307
856.885559,1319
857.003174,1332
857.120911,1348
857.238586,1297
857.356201,1350
857.473938,1337
857.591614,1383
857.709351,1334
857.826965,1314
857.944641,1340
858.062317,1322
858.179993,1301
858.297668,1320
858.415283,1311
858.532959,1305
858.650574,1348
858.768188,1363
858.885803,1319
859.003479,1289
859.121094,1305
859.23877,1329
859.356384,1310
859.473999,1351
859.591675,1327
859.709229,1346
859.826843,1348
859.944458,1350
860.062012,1336
860.179626,1350
860.297302,1332
860.414856,1294
860.532471,1324
860.650024,1342
860.767639,1349
860.885193,1329
861.002808,1313
861.120361,1360
861.237976,1359
861.35553,1356
861.473022,1310
861.590698,1336
861.708191,1316
861.825745,1346
861.943298,1321
862.060852,1350
862.178406,1339
862.295959,1297
862.413513,1308
862.531006,1347
862.64856,1337
862.766113,1337
862.883667,1343
863.00116,1321
863.118713,1309
863.236206,1345
863.353699,1340
863.471252,1335
863.588745,1339
863.706177,1298
863.82373,1325
863.941162,1318
864.058716,1335
864.176208,1324
864.29364,1373
864.411194,1292
864.528687,1274
864.646118,1355
864.763611,1323
864.881042,1306
864.998535,1345
865.116028,1330
865.233459,1317
865.350891,1318
865.468384,1353
865.585754,1346
865.703308,1360
865.820679,1315
865.938171,1314
866.055542,1311
866.173035,1338
866.290466,1343
866.407837,1289
866.52533,1368
866.6427,1352
866.760071,1327
866.877563,1332
866.994934,1323
867.112305,1326
867.229736,1343
867.347107,1307
867.464539,1350
867.58197,1331
867.699341,1337
867.81665,1293
867.934082,1361
868.051453,1324
868.168823,1319
868.286194,1317
868.403564,1309
868.520935,1321
868.638306,1346
868.755676,1366
868.872986,1336
868.990295,1332
869.107727,1308
869.225037,1293
869.342346,1330
869.459717,1308
869.577026,1348
869.694336,1324
869.811707,1323
869.929016,1303
870.046326,1332
870.163635,1366
870.280945,1337
870.398254,1320
870.515564,1348
870.632812,1350
870.750183,1294
870.867432,1313
870.984741,1338
871.102051,1322
871.219299,1351
871.336609,1370
871.453918,1342
871.571106,1365
871.688416,1328
871.805664,1361
871.922852,1352
872.040222,1361
872.157471,1363
872.274719,1351
872.391968,1332
872.509155,1326
872.626465,1362
872.743652,1333
872.860962,1338
872.978149,1356
873.095337,1338
873.212646,1335
873.329834,1322
873.44696,1350
873.564209,1342
873.681396,1350
873.798645,1348
873.915894,1322
874.03302,1316
874.150208,1392
874.267456,1334
874.384583,1376
874.501831,1361
874.618958,1366
874.736145,1341
874.853333,1361
874.970459,1343
875.087646,1362
875.204834,1338
875.32196,1384
875.439148,1331
875.556274,1341
875.673401,1333
875.790527,1329
875.907715,1342
876.024841,1347
876.141968,1332
876.259094,1376
876.376282,1363
876.493347,1338
876.610474,1356
876.7276,1320
876.844727,1355
876.961853,1363
877.078918,1378
877.195984,1325
877.313171,1354
877.430237,1350
877.547302,1363
877.664368,1320
877.781433,1349
877.898499,1361
878.015625,1322
878.13269,1369
878.249695,1327
878.366821,1376
878.483887,1362
878.600952,1391
878.717957,1324
878.834961,1342
878.952087,1387
879.069092,1356
879.186157,1359
879.303162,1319
879.420227,1328
879.537231,1346
879.654236,1350
879.77124,1352
879.888306,1350
880.005249,1306
880.122314,1325
880.239319,1361
880.356323,1341
880.473328,1413
880.590271,1320
880.707275,1359
880.824341,1345
880.941284,1326
881.058228,1329
881.175232,1385
881.292236,1311
881.40918,1365
881.526123,1330
881.643066,1342
881.760071,1347
881.877014,1344
881.993958,1375
882.11084,1323
882.227783,1338
882.344727,1319
882.46167,1358
882.578613,1350
882.695618,1356
882.812439,1350
882.929382,1359
883.046326,1361
883.163208,1378
883.280151,1360
883.397034,1295
883.513916,1369
883.630798,1336
883.747742,1355
883.864563,1360
883.981506,1378
884.098389,1404
884.21521,1360
884.332153,1368
884.448975,1376
884.565796,1372
884.682678,1360
884.7995,1370
884.916443,1372
885.033264,1373
885.150085,1388
885.266968,1397
885.383789,1410
885.500671,1417
885.617493,1394
885.734314,1406
885.851196,1363
885.967896,1349
886.084717,1372
886.201599,1370
886.318359,1363
886.435181,1387
886.552002,1384
886.668762,1377
886.785645,1416
886.902344,1408
887.019165,1375
887.135925,1406
887.252747,1380
887.369446,1413
887.486267,1381
887.603027,1391
887.719788,1403
887.836548,1401
887.953247,1373
888.070068,1385
888.186829,1372
888.303528,1416
888.420288,1425
888.536987,1371
888.653687,1423
888.770447,1337
888.887146,1392
889.003967,1354
889.120667,1409
889.237305,1364
889.354065,1353
889.470703,1366
889.587463,1383
889.704163,1394
889.820862,1349
889.937561,1411
890.054199,1375
890.170837,1405
890.287598,1364
890.404236,1361
890.520874,1401
890.637634,1399
890.754211,1371
890.87085,1378
890.987549,1383
891.104187,1408
891.220886,1407
891.337463,1359
891.454102,1407
891.57074,1399
891.687378,1359
891.804077,1419
891.920654,1374
892.037231,1403
892.15387,1414
892.270447,1434
892.387085,1371
892.503723,1379
892.6203,1355
892.736877,1372
892.853516,1373
892.970032,1401
893.08667,1408
893.203186,1408
893.319763,1413
893.43634,1400
893.552917,1401
893.669556,1407
893.786011,1371
893.902588,1433
894.019165,1376
894.135681,1420
894.252197,1394
894.368835,1379
894.485291,1405
894.601868,1403
894.718384,1387
894.8349,1370
894.951355,1401
895.067932,1412
895.184448,1411
895.300964,1397
895.417419,1419
895.533936,1418
895.650452,1371
895.766907,1369
895.883423,1382
895.999878,1383
896.116333,1364
896.232849,1378
896.349304,1395
896.465759,1395
896.582214,1421
896.698669,1373
896.815125,1391
896.931641,1401
897.048035,1384
897.164551,1431
897.280884,1419
897.397339,1417
897.513794,1386
897.630249,1421
897.746582,1361
897.863098,1429
897.979431,1395
898.095886,1445
898.212341,1401
898.328674,1417
898.445129,1440
898.561462,1378
898.677795,1373
898.794312,1404
898.910645,1377
899.026978,1417
899.143433,1396
899.259766,1410
899.37616,1396
899.492493,1378
899.608765,1396
899.725159,1401
899.841553,1387
899.957947,1403
900.07428,1428
900.190552,1394
900.306946,1385
900.423157,1428
900.53949,1411
900.655884,1441
900.772156,1406
900.888489,1397
901.004822,1428
901.121033,1407
901.237366,1396
901.353699,1404
901.46991,1425
901.586304,1396
901.702515,1423
901.818787,1413
901.93512,1418
902.051331,1395
902.167603,1425
902.283875,1396
902.400085,1436
902.516418,1399
902.632629,1454
902.74884,1406
902.865112,1497
902.981384,1440
903.097595,1415
903.213867,1465
903.330017,1459
903.446289,1467
903.5625,1458
903.67865,1450
903.794922,1436
903.911072,1434
904.027344,1408
904.143494,1448
904.259705,1431
904.375916,1431
904.492065,1406
904.608215,1442
904.724426,1411
904.840576,1434
904.956726,1482
905.072876,1443
905.189087,1432
905.305176,1436
905.421387,1446
905.537537,1413
905.653687,1420
905.769775,1416
905.885925,1463
906.002014,1460
906.118164,1416
906.234314,1474
906.350403,1418
906.466492,1445
906.582642,1437
906.69873,1431
906.814758,1461
906.930908,1453
907.046936,1427
907.163086,1422
907.279175,1450
907.395264,1416
907.511353,1361
907.62738,1459
907.743408,1476
907.859497,1461
907.975525,1393
908.091553,1435
908.207703,1407
908.32373,1465
908.439758,1410
908.555786,1479
908.671814,1415
908.787842,1463
908.90387,1400
909.019775,1429
909.135864,1412
909.251892,1448
909.367859,1423
909.483826,1435
909.599854,1449
909.715881,1433
909.831848,1435
909.947815,1425
910.063782,1429
910.179749,1435
910.295776,1448
910.411743,1461
910.527649,1420
910.643616,1430
910.759583,1401
910.875488,1446
910.991455,1420
911.107361,1457
911.223267,1420
911.339294,1476
911.4552,1397
911.571106,1435
911.687073,1418
911.802979,1423
911.918823,1448
912.034729,1457
912.150635,1416
912.266602,1448
912.382446,1451
912.498352,1422
912.614197,1417
912.730103,1424
912.846008,1427
