792.44574,1769
792.56488,1752
792.68396,1738
792.80304,1756
792.92218,1681
793.041199,1685
793.160339,1657
793.279419,1672
793.398499,1651
793.517578,1647
793.636658,1608
793.755737,1613
793.874817,1656
793.993896,1636
794.112976,1591
794.232056,1614
794.351074,1605
794.470215,1591
794.589233,1596
794.708313,1581
794.827393,1533
794.946411,1538
795.065552,1546
795.18457,1594
795.303589,1549
795.422668,1555
795.541687,1510
795.660767,1623
795.779846,1495
795.898865,1527
796.017883,1552
796.136963,1497
796.255981,1536
796.375061,1533
796.49408,1572
796.613037,1566
796.732117,1545
796.851135,1522
796.970154,1530
797.089233,1505
797.208191,1495
797.327271,1499
797.446228,1518
797.565186,1499
797.684265,1544
797.803223,1516
797.922241,1526
798.04126,1484
798.160278,1483
798.279297,1496
798.398315,1483
798.517273,1484
798.636292,1505
798.75531,1533
798.874268,1479
798.993286,1536
799.112244,1512
799.231323,1515
799.350281,1510
799.469238,1491
799.588257,1464
799.707153,1433
799.826111,1453
799.945129,1481
800.064087,1480
800.183044,1507
800.302063,1444
800.421021,1500
800.539978,1495
800.658936,1468
800.777893,1462
800.896912,1483
801.015747,1512
801.134705,1436
801.253723,1464
801.37262,1443
801.491638,1473
801.610535,1468
801.729492,1488
801.84845,1448
801.967407,1457
802.086243,1518
802.205261,1461
802.324158,1490
802.443115,1465
802.562073,1473
802.680969,1473
802.799927,1466
802.918762,1487
803.037659,1469
803.156677,1468
803.275574,1480
803.39447,1452
803.513428,1490
803.632263,1421
803.751221,1495
803.870117,1427
803.989014,1503
804.107971,1474
804.226746,1478
804.345642,1484
804.4646,1468
804.583496,1457
804.702393,1463
804.821228,1421
804.940125,1470
805.059021,1467
805.177917,1461
805.296814,1443
805.415649,1474
805.534546,1447
805.653442,1460
805.772278,1479
805.891113,1516
806.01001,1459
806.128906,1418
806.247742,1516
806.366577,1418
806.485413,1476
806.604309,1486
806.723145,1457
806.84198,1476
806.960876,1426
807.079712,1390
807.198486,1445
807.317383,1486
807.436218,1439
807.554993,1418
807.673889,1471
807.792725,1465
807.91156,1446
808.030396,1457
808.14917,1456
808.268005,1460
808.386841,1450
808.505676,1467
808.624451,1433
808.743286,1410
808.862122,1437
808.980896,1444
809.099731,1451
809.218506,1443
809.337341,1449
809.456116,1451
809.57489,1454
809.693726,1427
809.8125,1453
809.931274,1471
810.050049,1520
810.168884,1418
810.287659,1462
810.406372,1453
810.525269,1442
810.643982,1430
810.762756,1450
810.881531,1407
811.000305,1451
811.11908,1425
811.237854,1429
811.356567,1442
811.475403,1434
811.594116,1465
811.71283,1465
811.831604,1443
811.950378,1462
812.069153,1469
812.187927,1481
812.30658,1433
812.425415,1478
812.544128,1393
812.662781,1473
812.781616,1407
812.900269,1430
813.019043,1453
813.137756,1413
813.256531,1441
813.375244,1398
813.493896,1434
813.612671,1449
813.731384,1428
813.850037,1419
813.96875,1463
814.087524,1419
814.206238,1460
814.324951,1418
814.443604,1432
814.562256,1476
814.68103,1406
814.799683,1416
814.918335,1438
815.037109,1431
815.155762,1415
815.274475,1464
815.393188,1403
815.511841,1416
815.630554,1404
815.749146,1441
815.867859,1410
815.986572,1444
816.105164,1417
816.223877,1397
816.342529,1417
816.461182,1416
816.579895,1461
816.698486,1408
816.817139,1423
816.935791,1437
817.054504,1392
817.173096,1431
817.291748,1392
817.4104,1427
817.529053,1360
817.647644,1337
817.766235,1422
817.884949,1395
818.00354,1363
818.122192,1373
818.240845,1368
818.359436,1355
818.478088,1375
818.59668,1368
818.715271,1352
818.833923,1339
818.952515,1376
819.071106,1363
819.189758,1350
819.30835,1384
819.426941,1355
819.545532,1340
819.664124,1385
819.782715,1338
819.901306,1367
820.019897,1348
820.138489,1353
820.25708,1359
820.375671,1331
820.494202,1291
820.612732,1340
820.731384,1346
820.849915,1342
820.968506,1335
821.087097,1319
821.205627,1350
821.324158,1350
821.442749,1342
821.561279,1352
821.679871,1371
821.798401,1325
821.916931,1352
822.035461,1317
822.154053,1350
822.272583,1293
822.391174,1348
822.509583,1278
822.628174,1322
822.746704,1364
822.865234,1347
822.983765,1325
823.102295,1327
823.220825,1342
823.339294,1363
823.457825,1329
823.576355,1338
823.694824,1333
823.813354,1355
823.931885,1351
824.050354,1339
824.168884,1327
824.287354,1329
824.405823,1315
824.524353,1347
824.642822,1337
824.761353,1328
824.879822,1338
824.998291,1316
825.116699,1347
825.235291,1311
825.353699,1314
825.472168,1296
825.590637,1323
825.709106,1307
825.827576,1342
825.946045,1259
826.064453,1316
826.182983,1276
826.301392,1297
826.4198,1291
826.53833,1302
826.656738,1303
826.775208,1304
826.893677,1308
827.012024,1312
827.130493,1319
827.248962,1335
827.36731,1291
827.485779,1294
827.604248,1278
827.722595,1305
827.841064,1289
827.959412,1269
828.077942,1313
828.196289,1331
828.314636,1308
828.433105,1276
828.551514,1316
828.669861,1256
828.78833,1295
828.906677,1291
829.025085,1310
829.143433,1298
829.261841,1294
829.38031,1275
829.498657,1255
829.617004,1315
829.735413,1325
829.85376,1254
829.972107,1269
830.090515,1295
830.208862,1300
830.327209,1314
830.445557,1265
830.563904,1272
830.682312,1297
830.800659,1310
830.919006,1288
831.037354,1288
831.155701,1299
831.274048,1294
831.392395,1295
831.51062,1293
831.629028,1291
831.747314,1289
831.865662,1294
831.984009,1269
832.102356,1330
832.220642,1303
832.338928,1253
832.457275,1282
832.575623,1278
832.693909,1314
832.812134,1294
832.930481,1281
833.048828,1260
833.167114,1290
833.2854,1303
833.403687,1290
833.521973,1295
833.640259,1295
833.758545,1269
833.876831,1262
833.995056,1247
834.113281,1318
834.231628,1278
834.349915,1279
834.468201,1283
834.586426,1290
834.704651,1275
834.822998,1283
834.941162,1311
835.059448,1262
835.177673,1291
835.295959,1301
835.414246,1309
835.53241,1326
835.650635,1233
835.768921,1267
835.887146,1292
836.005371,1279
836.123596,1255
836.241821,1335
836.360046,1273
836.478271,1299
836.596497,1294
836.714722,1312
836.832886,1267
836.95105,1309
837.069336,1287
837.1875,1270
837.305725,1297
837.423889,1314
837.542053,1297
837.660339,1319
837.778503,1273
837.896667,1272
838.014832,1301
838.132996,1272
838.25116,1266
838.369385,1295
838.487488,1304
838.605713,1319
838.723877,1293
838.84198,1293
838.960205,1314
839.078308,1298
839.196472,1274
839.314636,1276
839.4328,1295
839.550964,1274
839.669067,1213
839.787231,1304
839.905396,1308
840.023499,1317
840.141602,1286
840.259766,1316
840.377869,1288
840.495972,1312
840.614136,1261
840.732239,1317
840.850342,1311
840.968445,1304
841.086548,1327
841.204651,1272
841.322754,1267
841.440918,1323
841.55896,1274
841.677002,1262
841.795166,1306
841.913208,1254
842.031311,1262
842.149353,1275
842.267456,1283
842.385498,1262
842.503601,1329
842.621643,1224
842.739746,1291
842.857788,1306
842.97583,1278
843.093933,1262
843.211975,1297
843.330017,1288
843.44812,1299
843.566101,1316
843.684204,1250
843.802246,1322
843.920227,1264
844.038269,1330
844.156311,1261
844.274292,1264
844.392395,1272
844.510376,1290
844.628357,1249
844.74646,1244
844.864441,1278
844.982422,1281
845.100403,1273
845.218384,1291
845.336426,1270
845.454468,1282
845.572449,1319
845.69043,1272
845.808411,1274
845.926453,1263
846.044373,1278
846.162354,1294
846.280396,1252
846.398315,1283
846.516296,1230
846.634216,1290
846.752197,1247
846.870178,1271
846.988098,1253
847.106079,1298
847.22406,1272
847.34198,1228
847.4599,1296
847.577881,1290
847.695801,1248
847.813782,1311
847.931641,1242
848.049561,1283
848.167603,1245
848.285461,1285
848.403381,1289
848.521362,1246
848.639221,1297
848.75708,1278
848.875,1305
848.99292,1323
849.110901,1281
849.22876,1286
849.34668,1292
849.464539,1300
849.582458,1260
849.700317,1257
849.818176,1283
849.936096,1271
850.053955,1305
850.171875,1285
850.289673,1288
850.407593,1266
850.525452,1270
850.643311,1281
850.761169,1287
850.878967,1274
850.996887,1316
851.114746,1232
851.232544,1288
851.350403,1283
851.468262,1281
851.58606,1247
851.703979,1260
851.821777,1264
851.939636,1259
852.057434,1249
852.175232,1298
852.293091,1308
852.410889,1290
852.528687,1333
852.646545,1250
852.764343,1366
852.88208,1319
852.999939,1278
853.117676,1294
853.235535,1285
853.353271,1313
853.471069,1301
853.588928,1267
853.706604,1267
853.824402,1292
853.9422,1272
854.059998,1285
854.177734,1319
854.295532,1297
854.413269,1312
854.531006,1247
854.648804,1312
854.766541,1287
854.884277,1285
855.002014,1302
855.119751,1260
855.237549,1296
855.355225,1293
855.473022,1303
855.590698,1271
855.708435,1306
855.826172,1264
855.943848,1278
856.061646,1310
856.179321,1260
856.296997,1285
856.414795,1342
856.53241,1298
856.650085,1339
856.767822,1278
856.885559,1306
857.003174,1344
857.120911,1267
857.238586,1292
857.356201,1283
857.473938,1279
857.591614,1262
857.709351,1277
857.826965,1318
857.944641,1291
858.062317,1281
858.179993,1290
858.297668,1303
858.415283,1293
858.532959,1285
858.650574,1271
858.768188,1249
858.885803,1335
859.003479,1300
859.121094,1306
859.23877,1308
859.356384,1353
859.473999,1266
859.591675,1287
859.709229,1270
859.826843,1298
859.944458,1283
860.062012,1305
860.179626,1301
860.297302,1231
860.414856,1261
860.532471,1287
860.650024,1317
860.767639,1268
860.885193,1281
861.002808,1252
861.120361,1294
861.237976,1257
861.35553,1280
861.473022,1290
861.590698,1286
861.708191,1272
861.825745,1284
861.943298,1287
862.060852,1289
862.178406,1253
862.295959,1281
862.413513,1323
862.531006,1259
862.64856,1288
862.766113,1274
862.883667,1329
863.00116,1284
863.118713,1268
863.236206,1274
863.353699,1300
863.471252,1315
863.588745,1264
863.706177,1261
863.82373,1269
863.941162,1271
864.058716,1270
864.176208,1287
864.29364,1272
864.411194,1288
864.528687,1299
864.646118,1286
864.763611,1327
864.881042,1300
864.998535,1283
865.116028,1293
865.233459,1307
865.350891,1278
865.468384,1271
865.585754,1300
865.703308,1259
865.820679,1248
865.938171,1315
866.055542,1306
866.173035,1278
866.290466,1287
866.407837,1277
866.52533,1288
866.6427,1308
866.760071,1293
866.877563,1303
866.994934,1270
867.112305,1274
867.229736,1278
867.347107,1318
867.464539,1285
867.58197,1290
867.699341,1331
867.81665,1300
867.934082,1281
868.051453,1302
868.168823,1302
868.286194,1311
868.403564,1318
868.520935,1289
868.638306,1321
868.755676,1270
868.872986,1273
868.990295,1301
869.107727,1320
869.225037,1267
869.342346,1283
869.459717,1305
869.577026,1291
869.694336,1333
869.811707,1294
869.929016,1320
870.046326,1263
870.163635,1323
870.280945,1339
870.398254,1321
870.515564,1300
870.632812,1276
870.750183,1302
870.867432,1294
870.984741,1257
871.102051,1318
871.219299,1299
871.336609,1313
871.453918,1323
871.571106,1332
871.688416,1315
871.805664,1311
871.922852,1303
872.040222,1336
872.157471,1333
872.274719,1304
872.391968,1341
872.509155,1304
872.626465,1309
872.743652,1293
872.860962,1322
872.978149,1283
873.095337,1322
873.212646,1316
873.329834,1303
873.44696,1321
873.564209,1276
873.681396,1308
873.798645,1286
873.915894,1315
874.03302,1283
874.150208,1343
874.267456,1286
874.384583,1309
874.501831,1298
874.618958,1349
874.736145,1314
874.853333,1294
874.970459,1310
875.087646,1293
875.204834,1314
875.32196,1354
875.439148,1348
875.556274,1315
875.673401,1295
875.790527,1289
875.907715,1295
876.024841,1322
876.141968,1313
876.259094,1304
876.376282,1291
876.493347,1333
876.610474,1335
876.7276,1315
876.844727,1335
876.961853,1329
877.078918,1293
877.195984,1267
877.313171,1336
877.430237,1302
877.547302,1323
877.664368,1298
877.781433,1307
877.898499,1322
878.015625,1317
878.13269,1290
878.249695,1315
878.366821,1307
878.483887,1314
878.600952,1306
878.717957,1281
878.834961,1320
878.952087,1337
879.069092,1305
879.186157,1269
879.303162,1348
879.420227,1321
879.537231,1289
879.654236,1269
879.77124,1314
879.888306,1334
880.005249,1341
880.122314,1330
880.239319,1290
880.356323,1340
880.473328,1306
880.590271,1302
880.707275,1342
880.824341,1353
880.941284,1355
881.058228,1283
881.175232,1319
881.292236,1288
881.40918,1324
881.526123,1328
881.643066,1303
881.760071,1317
881.877014,1307
881.993958,1338
882.11084,1352
882.227783,1297
882.344727,1327
882.46167,1322
882.578613,1295
882.695618,1363
882.812439,1288
882.929382,1324
883.046326,1358
883.163208,1335
883.280151,1295
883.397034,1294
883.513916,1341
883.630798,1284
883.747742,1339
883.864563,1298
883.981506,1271
884.098389,1312
884.21521,1341
884.332153,1335
884.448975,1340
884.565796,1332
884.682678,1335
884.7995,1309
884.916443,1355
885.033264,1377
885.150085,1325
885.266968,1362
885.383789,1356
885.500671,1321
885.617493,1371
885.734314,1374
885.851196,1364
885.967896,1387
886.084717,1341
886.201599,1356
886.318359,1339
886.435181,1358
886.552002,1368
886.668762,1363
886.785645,1391
886.902344,1370
887.019165,1369
887.135925,1359
887.252747,1351
887.369446,1354
887.486267,1358
887.603027,1354
887.719788,1336
887.836548,1380
887.953247,1337
888.070068,1327
888.186829,1380
888.303528,1372
888.420288,1356
888.536987,1347
888.653687,1363
888.770447,1335
888.887146,1338
889.003967,1365
889.120667,1313
889.237305,1347
889.354065,1309
889.470703,1306
889.587463,1348
889.704163,1359
889.820862,1322
889.937561,1325
890.054199,1330
890.170837,1331
890.287598,1308
890.404236,1334
890.520874,1301
890.637634,1300
890.754211,1367
890.87085,1324
890.987549,1331
891.104187,1349
891.220886,1304
891.337463,1329
891.454102,1369
891.57074,1325
891.687378,1344
891.804077,1357
891.920654,1303
892.037231,1339
892.15387,1367
892.270447,1349
892.387085,1343
892.503723,1331
892.6203,1318
892.736877,1377
892.853516,1327
892.970032,1373
893.08667,1387
893.203186,1353
893.319763,1342
893.43634,1334
893.552917,1312
893.669556,1314
893.786011,1338
893.902588,1387
894.019165,1362
894.135681,1390
894.252197,1364
894.368835,1422
894.485291,1412
894.601868,1357
894.718384,1364
894.8349,1335
894.951355,1414
895.067932,1357
895.184448,1368
895.300964,1369
895.417419,1380
895.533936,1360
895.650452,1371
895.766907,1308
895.883423,1350
895.999878,1336
896.116333,1370
896.232849,1347
896.349304,1360
896.465759,1307
896.582214,1379
896.698669,1332
896.815125,1363
896.931641,1319
897.048035,1356
897.164551,1346
897.280884,1327
897.397339,1404
897.513794,1355
897.630249,1358
897.746582,1367
897.863098,1351
897.979431,1399
898.095886,1348
898.212341,1375
898.328674,1399
898.445129,1371
898.561462,1372
898.677795,1373
898.794312,1383
898.910645,1371
899.026978,1382
899.143433,1319
899.259766,1333
899.37616,1383
899.492493,1401
899.608765,1402
899.725159,1345
899.841553,1364
899.957947,1359
900.07428,1405
900.190552,1375
900.306946,1381
900.423157,1353
900.53949,1366
900.655884,1343
900.772156,1359
900.888489,1355
901.004822,1365
901.121033,1370
901.237366,1314
901.353699,1345
901.46991,1391
901.586304,1371
901.702515,1367
901.818787,1405
901.93512,1406
902.051331,1367
902.167603,1401
902.283875,1350
902.400085,1378
902.516418,1398
902.632629,1366
902.74884,1373
902.865112,1408
902.981384,1399
903.097595,1385
903.213867,1387
903.330017,1428
903.446289,1369
903.5625,1403
903.67865,1401
903.794922,1335
903.911072,1393
904.027344,1384
904.143494,1371
904.259705,1389
904.375916,1351
904.492065,1356
904.608215,1378
904.724426,1387
904.840576,1404
904.956726,1352
905.072876,1394
905.189087,1353
905.305176,1382
905.421387,1394
905.537537,1352
905.653687,1372
905.769775,1357
905.885925,1388
906.002014,1370
906.118164,1378
906.234314,1364
906.350403,1402
906.466492,1304
906.582642,1402
906.69873,1379
906.814758,1353
906.930908,1367
907.046936,1390
907.163086,1372
907.279175,1390
907.395264,1340
907.511353,1399
907.62738,1423
907.743408,1402
907.859497,1388
907.975525,1383
908.091553,1388
908.207703,1364
908.32373,1398
908.439758,1335
908.555786,1330
908.671814,1415
908.787842,1375
908.90387,1413
909.019775,1351
909.135864,1400
909.251892,1391
909.367859,1374
909.483826,1416
909.599854,1394
909.715881,1391
909.831848,1391
909.947815,1368
910.063782,1381
910.179749,1409
910.295776,1407
910.411743,1420
910.527649,1395
910.643616,1411
910.759583,1413
910.875488,1387
910.991455,1366
911.107361,1394
911.223267,1363
911.339294,1403
911.4552,1366
911.571106,1401
911.687073,1431
911.802979,1380
911.918823,1404
912.034729,1377
912.150635,1366
912.266602,1372
912.382446,1385
912.498352,1362
912.614197,1394
912.730103,1418
912.846008,1382
792.44574,1765
792.56488,1766
792.68396,1822
792.80304,1727
792.92218,1677
793.041199,1725
793.160339,1681
793.279419,1705
793.398499,1666
793.517578,1703
793.636658,1670
793.755737,1646
793.874817,1644
793.993896,1671
794.112976,1633
794.232056,1634
794.351074,1606
794.470215,1665
794.589233,1661
794.708313,1618
794.827393,1576
794.946411,1579
795.065552,1633
795.18457,1590
795.303589,1578
795.422668,1598
795.541687,1594
795.660767,1590
795.779846,1580
795.898865,1596
796.017883,1571
796.136963,1593
796.255981,1545
796.375061,1556
796.49408,1556
796.613037,1603
796.732117,1562
796.851135,1563
796.970154,1551
797.089233,1535
797.208191,1549
797.327271,1567
797.446228,1549
797.565186,1527
797.684265,1590
797.803223,1536
797.922241,1531
798.04126,1526
798.160278,1558
798.279297,1503
798.398315,1547
798.517273,1516
798.636292,1501
798.75531,1514
798.874268,1529
798.993286,1527
799.112244,1537
799.231323,1511
799.350281,1516
799.469238,1519
799.588257,1511
799.707153,1539
799.826111,1482
799.945129,1537
800.064087,1523
800.183044,1500
800.302063,1548
800.421021,1517
800.539978,1498
800.658936,1530
800.777893,1524
800.896912,1495
801.015747,1523
801.134705,1494
801.253723,1506
801.37262,1541
801.491638,1486
801.610535,1521
801.729492,1566
801.84845,1494
801.967407,1478
802.086243,1504
802.205261,1523
802.324158,1498
802.443115,1499
802.562073,1521
802.680969,1515
802.799927,1462
802.918762,1487
803.037659,1491
803.156677,1519
803.275574,1459
803.39447,1531
803.513428,1483
803.632263,1506
803.751221,1486
803.870117,1502
803.989014,1512
804.107971,1456
804.226746,1511
804.345642,1470
804.4646,1523
804.583496,1489
804.702393,1511
804.821228,1440
804.940125,1484
805.059021,1502
805.177917,1516
805.296814,1480
805.415649,1493
805.534546,1466
805.653442,1475
805.772278,1494
805.891113,1498
806.01001,1504
806.128906,1499
806.247742,1495
806.366577,1474
806.485413,1509
806.604309,1502
806.723145,1500
806.84198,1510
806.960876,1504
807.079712,1499
807.198486,1473
807.317383,1483
807.436218,1487
807.554993,1442
807.673889,1516
807.792725,1487
807.91156,1480
808.030396,1508
808.14917,1477
808.268005,1490
808.386841,1468
808.505676,1515
808.624451,1450
808.743286,1461
808.862122,1510
808.980896,1459
809.099731,1500
809.218506,1461
809.337341,1481
809.456116,1448
809.57489,1472
809.693726,1525
809.8125,1464
809.931274,1509
810.050049,1491
810.168884,1490
810.287659,1516
810.406372,1494
810.525269,1435
810.643982,1462
810.762756,1468
810.881531,1460
811.000305,1444
811.11908,1459
811.237854,1477
811.356567,1466
811.475403,1487
811.594116,1521
811.71283,1475
811.831604,1473
811.950378,1491
812.069153,1545
812.187927,1495
812.30658,1526
812.425415,1510
812.544128,1460
812.662781,1438
812.781616,1478
812.900269,1470
813.019043,1506
813.137756,1443
813.256531,1448
813.375244,1448
813.493896,1471
813.612671,1466
813.731384,1441
813.850037,1468
813.96875,1449
814.087524,1421
814.206238,1440
814.324951,1447
814.443604,1431
814.562256,1434
814.68103,1485
814.799683,1424
814.918335,1455
815.037109,1469
815.155762,1458
815.274475,1491
815.393188,1469
815.511841,1453
815.630554,1399
815.749146,1449
815.867859,1417
815.986572,1428
816.105164,1416
816.223877,1433
816.342529,1441
816.461182,1460
816.579895,1440
816.698486,1395
816.817139,1407
816.935791,1508
817.054504,1458
817.173096,1435
817.291748,1403
817.4104,1464
817.529053,1443
817.647644,1409
817.766235,1389
817.884949,1445
818.00354,1378
818.122192,1417
818.240845,1422
818.359436,1387
818.478088,1386
818.59668,1416
818.715271,1413
818.833923,1380
818.952515,1430
819.071106,1428
819.189758,1405
819.30835,1390
819.426941,1400
819.545532,1366
819.664124,1358
819.782715,1360
819.901306,1363
820.019897,1355
820.138489,1366
820.25708,1387
820.375671,1368
820.494202,1372
820.612732,1359
820.731384,1385
820.849915,1400
820.968506,1324
821.087097,1374
821.205627,1344
821.324158,1375
821.442749,1395
821.561279,1358
821.679871,1342
821.798401,1379
821.916931,1317
822.035461,1340
822.154053,1375
822.272583,1346
822.391174,1373
822.509583,1358
822.628174,1358
822.746704,1358
822.865234,1379
822.983765,1329
823.102295,1391
823.220825,1304
823.339294,1397
823.457825,1361
823.576355,1324
823.694824,1352
823.813354,1352
823.931885,1374
824.050354,1367
824.168884,1354
824.287354,1339
824.405823,1348
824.524353,1392
824.642822,1377
824.761353,1380
824.879822,1358
824.998291,1335
825.116699,1333
825.235291,1348
825.353699,1381
825.472168,1348
825.590637,1356
825.709106,1373
825.827576,1354
825.946045,1321
826.064453,1342
826.182983,1321
826.301392,1322
826.4198,1322
826.53833,1338
826.656738,1357
826.775208,1356
826.893677,1346
827.012024,1284
827.130493,1360
827.248962,1358
827.36731,1344
827.485779,1337
827.604248,1344
827.722595,1296
827.841064,1313
827.959412,1322
828.077942,1366
828.196289,1317
828.314636,1352
828.433105,1332
828.551514,1329
828.669861,1321
828.78833,1320
828.906677,1338
829.025085,1308
829.143433,1282
829.261841,1370
829.38031,1328
829.498657,1313
829.617004,1307
829.735413,1340
829.85376,1308
829.972107,1328
830.090515,1314
830.208862,1291
830.327209,1281
830.445557,1282
830.563904,1296
830.682312,1355
830.800659,1287
830.919006,1287
831.037354,1308
831.155701,1308
831.274048,1308
831.392395,1301
831.51062,1338
831.629028,1344
831.747314,1313
831.865662,1334
831.984009,1341
832.102356,1312
832.220642,1333
832.338928,1330
832.457275,1351
832.575623,1311
832.693909,1315
832.812134,1353
832.930481,1313
833.048828,1354
833.167114,1270
833.2854,1283
833.403687,1308
833.521973,1330
833.640259,1324
833.758545,1305
833.876831,1290
833.995056,1326
834.113281,1297
834.231628,1302
834.349915,1301
834.468201,1321
834.586426,1333
834.704651,1361
834.822998,1347
834.941162,1336
835.059448,1327
835.177673,1334
835.295959,1306
835.414246,1345
835.53241,1344
835.650635,1292
835.768921,1287
835.887146,1295
836.005371,1302
836.123596,1278
836.241821,1299
836.360046,1315
836.478271,1278
836.596497,1304
836.714722,1303
836.832886,1306
836.95105,1318
837.069336,1309
837.1875,1275
837.305725,1333
837.423889,1308
837.542053,1303
837.660339,1329
837.778503,1285
837.896667,1297
838.014832,1298
838.132996,1312
838.25116,1310
838.369385,1283
838.487488,1335
838.605713,1313
838.723877,1309
838.84198,1350
838.960205,1300
839.078308,1290
839.196472,1326
839.314636,1303
839.4328,1353
839.550964,1302
839.669067,1285
839.787231,1312
839.905396,1323
840.023499,1323
840.141602,1293
840.259766,1392
840.377869,1293
840.495972,1334
840.614136,1319
840.732239,1293
840.850342,1331
840.968445,1312
841.086548,1302
841.204651,1306
841.322754,1334
841.440918,1330
841.55896,1341
841.677002,1290
841.795166,1338
841.913208,1265
842.031311,1336
842.149353,1311
842.267456,1299
842.385498,1325
842.503601,1291
842.621643,1316
842.739746,1294
842.857788,1321
842.97583,1282
843.093933,1323
843.211975,1295
843.330017,1259
843.44812,1343
843.566101,1296
843.684204,1282
843.802246,1295
843.920227,1337
844.038269,1293
844.156311,1287
844.274292,1316
844.392395,1344
844.510376,1292
844.628357,1261
844.74646,1347
844.864441,1309
844.982422,1363
845.100403,1295
845.218384,1273
845.336426,1272
845.454468,1280
845.572449,1320
845.69043,1293
845.808411,1300
845.926453,1279
846.044373,1281
846.162354,1292
846.280396,1293
846.398315,1297
846.516296,1295
846.634216,1321
846.752197,1279
846.870178,1300
846.988098,1316
847.106079,1292
847.22406,1301
847.34198,1316
847.4599,1273
847.577881,1309
847.695801,1270
847.813782,1311
847.931641,1293
848.049561,1274
848.167603,1351
848.285461,1289
848.403381,1325
848.521362,1292
848.639221,1315
848.75708,1326
848.875,1280
848.99292,1334
849.110901,1284
849.22876,1300
849.34668,1272
849.464539,1308
849.582458,1304
849.700317,1307
849.818176,1294
849.936096,1296
850.053955,1272
850.171875,1289
850.289673,1303
850.407593,1300
850.525452,1305
850.643311,1330
850.761169,1333
850.878967,1332
850.996887,1325
851.114746,1303
851.232544,1282
851.350403,1315
851.468262,1292
851.58606,1303
851.703979,1317
851.821777,1339
851.939636,1333
852.057434,1283
852.175232,1281
852.293091,1281
852.410889,1289
852.528687,1301
852.646545,1321
852.764343,1291
852.88208,1330
852.999939,1330
853.117676,1303
853.235535,1298
853.353271,1317
853.471069,1283
853.588928,1287
853.706604,1299
853.824402,1340
853.9422,1340
854.059998,1319
854.177734,1336
854.295532,1291
854.413269,1324
854.531006,1292
854.648804,1291
854.766541,1316
854.884277,1332
855.002014,1307
855.119751,1269
855.237549,1349
855.355225,1280
855.473022,1321
855.590698,1290
855.708435,1331
855.826172,1292
855.943848,1327
856.061646,1306
856.179321,1295
856.296997,1286
856.414795,1300
856.53241,1327
856.650085,1332
856.767822,1351
856.885559,1303
857.003174,1326
857.120911,1328
857.238586,1323
857.356201,1341
857.473938,1300
857.591614,1329
857.709351,1316
857.826965,1311
857.944641,1320
858.062317,1296
858.179993,1351
858.297668,1301
858.415283,1351
858.532959,1310
858.650574,1285
858.768188,1320
858.885803,1347
859.003479,1346
859.121094,1305
859.23877,1299
859.356384,1337
859.473999,1312
859.591675,1305
859.709229,1285
859.826843,1312
859.944458,1352
860.062012,1294
860.179626,1346
860.297302,1329
860.414856,1294
860.532471,1295
860.650024,1257
860.767639,1280
860.885193,1305
861.002808,1308
861.120361,1320
861.237976,1313
861.35553,1321
861.473022,1296
861.590698,1311
861.708191,1346
861.825745,1330
861.943298,1324
862.060852,1309
862.178406,1306
862.295959,1314
862.413513,1297
862.531006,1318
862.64856,1348
862.766113,1352
862.883667,1323
863.00116,1311
863.118713,1327
863.236206,1333
863.353699,1266
863.471252,1303
863.588745,1340
863.706177,1316
863.82373,1291
863.941162,1358
864.058716,1321
864.176208,1333
864.29364,1333
864.411194,1334
864.528687,1311
864.646118,1319
864.763611,1260
864.881042,1316
864.998535,1335
865.116028,1284
865.233459,1357
865.350891,1302
865.468384,1305
865.585754,1320
865.703308,1322
865.820679,1350
865.938171,1321
866.055542,1322
866.173035,1316
866.290466,1300
866.407837,1317
866.52533,1331
866.6427,1315
866.760071,1336
866.877563,1325
866.994934,1336
867.112305,1300
867.229736,1342
867.347107,1362
867.464539,1341
867.58197,1330
867.699341,1326
867.81665,1303
867.934082,1324
868.051453,1290
868.168823,1325
868.286194,1353
868.403564,1304
868.520935,1290
868.638306,1347
868.755676,1301
868.872986,1343
868.990295,1373
869.107727,1315
869.225037,1368
869.342346,1325
869.459717,1341
869.577026,1298
869.694336,1339
869.811707,1334
869.929016,1342
870.046326,1318
870.163635,1308
870.280945,1381
870.398254,1346
870.515564,1337
870.632812,1333
870.750183,1368
870.867432,1319
870.984741,1349
871.102051,1339
871.219299,1328
871.336609,1324
871.453918,1305
871.571106,1332
871.688416,1338
871.805664,1313
871.922852,1359
872.040222,1336
872.157471,1325
872.274719,1355
872.391968,1338
872.509155,1345
872.626465,1330
872.743652,1358
872.860962,1347
872.978149,1329
873.095337,1349
873.212646,1325
873.329834,1352
873.44696,1329
873.564209,1295
873.681396,1331
873.798645,1340
873.915894,1327
874.03302,1353
874.150208,1330
874.267456,1325
874.384583,1373
874.501831,1318
874.618958,1370
874.736145,1362
874.853333,1333
874.970459,1328
875.087646,1358
875.204834,1357
875.32196,1377
875.439148,1368
875.556274,1335
875.673401,1364
875.790527,1334
875.907715,1313
876.024841,1316
876.141968,1368
876.259094,1349
876.376282,1372
876.493347,1336
876.610474,1358
876.7276,1337
876.844727,1367
876.961853,1304
877.078918,1337
877.195984,1313
877.313171,1348
877.430237,1318
877.547302,1350
877.664368,1366
877.781433,1362
877.898499,1332
878.015625,1324
878.13269,1361
878.249695,1356
878.366821,1358
878.483887,1358
878.600952,1323
878.717957,1339
878.834961,1344
878.952087,1329
879.069092,1334
879.186157,1343
879.303162,1397
879.420227,1318
879.537231,1343
879.654236,1388
879.77124,1328
879.888306,1356
880.005249,1323
880.122314,1343
880.239319,1337
880.356323,1324
880.473328,1346
880.590271,1307
880.707275,1359
880.824341,1340
880.941284,1355
881.058228,1335
881.175232,1401
881.292236,1358
881.40918,1316
881.526123,1306
881.643066,1396
881.760071,1318
881.877014,1337
881.993958,1335
882.11084,1341
882.227783,1340
882.344727,1322
882.46167,1350
882.578613,1361
882.695618,1326
882.812439,1351
882.929382,1344
883.046326,1360
883.163208,1348
883.280151,1353
883.397034,1304
883.513916,1339
883.630798,1383
883.747742,1355
883.864563,1344
883.981506,1361
884.098389,1349
884.21521,1360
884.332153,1362
884.448975,1374
884.565796,1346
884.682678,1334
884.7995,1389
884.916443,1384
885.033264,1391
885.150085,1389
885.266968,1390
885.383789,1398
885.500671,1363
885.617493,1383
885.734314,1441
885.851196,1407
885.967896,1396
886.084717,1370
886.201599,1394
886.318359,1387
886.435181,1388
886.552002,1406
886.668762,1371
886.785645,1378
886.902344,1393
887.019165,1412
887.135925,1351
887.252747,1358
887.369446,1420
887.486267,1358
887.603027,1351
887.719788,1358
887.836548,1350
887.953247,1363
888.070068,1367
888.186829,1369
888.303528,1359
888.420288,1363
888.536987,1397
888.653687,1346
888.770447,1364
888.887146,1349
889.003967,1398
889.120667,1347
889.237305,1356
889.354065,1376
889.470703,1355
889.587463,1367
889.704163,1370
889.820862,1390
889.937561,1381
890.054199,1355
890.170837,1357
890.287598,1358
890.404236,1367
890.520874,1384
890.637634,1333
890.754211,1363
890.87085,1345
890.987549,1377
891.104187,1379
891.220886,1363
891.337463,1375
891.454102,1368
891.57074,1388
891.687378,1405
891.804077,1390
891.920654,1341
892.037231,1395
892.15387,1365
892.270447,1367
892.387085,1393
892.503723,1423
892.6203,1395
892.736877,1353
892.853516,1394
892.970032,1386
893.08667,1399
893.203186,1389
893.319763,1375
893.43634,1396
893.552917,1359
893.669556,1354
893.786011,1390
893.902588,1356
894.019165,1381
894.135681,1381
894.252197,1389
894.368835,1407
894.485291,1388
894.601868,1346
894.718384,1441
894.8349,1365
894.951355,1415
895.067932,1413
895.184448,1359
895.300964,1379
895.417419,1403
895.533936,1389
895.650452,1367
895.766907,1374
895.883423,1384
895.999878,1377
896.116333,1377
896.232849,1380
896.349304,1410
896.465759,1421
896.582214,1364
896.698669,1382
896.815125,1373
896.931641,1437
897.048035,1380
897.164551,1412
897.280884,1374
897.397339,1380
897.513794,1432
897.630249,1412
897.746582,1371
897.863098,1375
897.979431,1389
898.095886,1386
898.212341,1398
898.328674,1377
898.445129,1413
898.561462,1436
898.677795,1398
898.794312,1406
898.910645,1351
899.026978,1411
899.143433,1401
899.259766,1410
899.37616,1410
899.492493,1362
899.608765,1386
899.725159,1393
899.841553,1388
899.957947,1424
900.07428,1393
900.190552,1427
900.306946,1366
900.423157,1391
900.53949,1391
900.655884,1394
900.772156,1367
900.888489,1390
901.004822,1411
901.121033,1410
901.237366,1378
901.353699,1364
901.46991,1388
901.586304,1416
901.702515,1406
901.818787,1412
901.93512,1444
902.051331,1395
902.167603,1392
902.283875,1441
902.400085,1412
902.516418,1426
902.632629,1375
902.74884,1427
902.865112,1427
902.981384,1418
903.097595,1430
903.213867,1399
903.330017,1425
903.446289,1441
903.5625,1429
903.67865,1364
903.794922,1403
903.911072,1435
904.027344,1415
904.143494,1408
904.259705,1447
904.375916,1406
904.492065,1392
904.608215,1414
904.724426,1416
904.840576,1406
904.956726,1435
905.072876,1443
905.189087,1402
905.305176,1447
905.421387,1419
905.537537,1428
905.653687,1456
905.769775,1403
905.885925,1451
906.002014,1391
906.118164,1381
906.234314,1419
906.350403,1439
906.466492,1431
906.582642,1438
906.69873,1390
906.814758,1451
906.930908,1381
907.046936,1415
907.163086,1403
907.279175,1414
907.395264,1408
907.511353,1408
907.62738,1416
907.743408,1403
907.859497,1399
907.975525,1398
908.091553,1422
908.207703,1452
908.32373,1398
908.439758,1429
908.555786,1410
908.671814,1430
908.787842,1374
908.90387,1485
909.019775,1402
909.135864,1438
909.251892,1447
909.367859,1488
909.483826,1450
909.599854,1418
909.715881,1435
909.831848,1390
909.947815,1409
910.063782,1437
910.179749,1421
910.295776,1412
910.411743,1428
910.527649,1454
910.643616,1427
910.759583,1414
910.875488,1455
910.991455,1407
911.107361,1447
911.223267,1399
911.339294,1427
911.4552,1427
911.571106,1453
911.687073,1435
911.802979,1442
911.918823,1451
912.034729,1436
912.150635,1405
912.266602,1413
912.382446,1434
912.498352,1446
912.614197,1417
912.730103,1425
912.846008,1410
792.44574,1794
792.56488,1795
792.68396,1842
792.80304,1728
792.92218,1737
793.041199,1728
793.160339,1738
793.279419,1691
793.398499,1739
793.517578,1676
793.636658,1654
793.755737,1670
793.874817,1682
793.993896,1638
794.112976,1667
794.232056,1648
794.351074,1641
794.470215,1692
794.589233,1619
794.708313,1623
794.827393,1593
794.946411,1593
795.065552,1634
795.18457,1604
795.303589,1596
795.422668,1653
795.541687,1634
795.660767,1600
795.779846,1580
795.898865,1620
796.017883,1619
796.136963,1603
796.255981,1601
796.375061,1562
796.49408,1631
796.613037,1581
796.732117,1565
796.851135,1579
796.970154,1582
797.089233,1574
797.208191,1550
797.327271,1573
797.446228,1580
797.565186,1538
797.684265,1572
797.803223,1562
797.922241,1557
798.04126,1572
798.160278,1563
798.279297,1523
798.398315,1573
798.517273,1547
798.636292,1504
798.75531,1561
798.874268,1545
798.993286,1529
799.112244,1531
799.231323,1536
799.350281,1536
799.469238,1479
799.588257,1511
799.707153,1525
799.826111,1565
799.945129,1527
800.064087,1511
800.183044,1515
800.302063,1531
800.421021,1573
800.539978,1531
800.658936,1493
800.777893,1519
800.896912,1511
801.015747,1536
801.134705,1517
801.253723,1541
801.37262,1485
801.491638,1493
801.610535,1560
801.729492,1528
801.84845,1473
801.967407,1503
802.086243,1545
802.205261,1485
802.324158,1486
802.443115,1517
802.562073,1499
802.680969,1495
802.799927,1531
802.918762,1529
803.037659,1503
803.156677,1569
803.275574,1520
803.39447,1496
803.513428,1479
803.632263,1512
803.751221,1479
803.870117,1530
803.989014,1509
804.107971,1490
804.226746,1499
804.345642,1519
804.4646,1541
804.583496,1492
804.702393,1543
804.821228,1496
804.940125,1503
805.059021,1502
805.177917,1471
805.296814,1493
805.415649,1516
805.534546,1526
805.653442,1484
805.772278,1527
805.891113,1483
806.01001,1523
806.128906,1505
806.247742,1510
806.366577,1489
806.485413,1513
806.604309,1503
806.723145,1525
806.84198,1483
806.960876,1539
807.079712,1485
807.198486,1525
807.317383,1488
807.436218,1484
807.554993,1491
807.673889,1491
807.792725,1512
807.91156,1479
808.030396,1517
808.14917,1498
808.268005,1482
808.386841,1528
808.505676,1476
808.624451,1519
808.743286,1487
808.862122,1506
808.980896,1464
809.099731,1496
809.218506,1480
809.337341,1493
809.456116,1497
809.57489,1459
809.693726,1496
809.8125,1488
809.931274,1505
810.050049,1489
810.168884,1478
810.287659,1516
810.406372,1481
810.525269,1484
810.643982,1470
810.762756,1516
810.881531,1488
811.000305,1500
811.11908,1439
811.237854,1514
811.356567,1448
811.475403,1474
811.594116,1492
811.71283,1495
811.831604,1502
811.950378,1519
812.069153,1472
812.187927,1502
812.30658,1469
812.425415,1504
812.544128,1477
812.662781,1481
812.781616,1498
812.900269,1490
813.019043,1470
813.137756,1456
813.256531,1456
813.375244,1492
813.493896,1464
813.612671,1502
813.731384,1480
813.850037,1498
813.96875,1444
814.087524,1504
814.206238,1464
814.324951,1449
814.443604,1490
814.562256,1502
814.68103,1442
814.799683,1467
814.918335,1467
815.037109,1446
815.155762,1478
815.274475,1450
815.393188,1458
815.511841,1454
815.630554,1482
815.749146,1451
815.867859,1472
815.986572,1453
816.105164,1430
816.223877,1456
816.342529,1447
816.461182,1450
816.579895,1484
816.698486,1456
816.817139,1455
816.935791,1484
817.054504,1491
817.173096,1470
817.291748,1424
817.4104,1479
817.529053,1480
817.647644,1414
817.766235,1437
817.884949,1426
818.00354,1427
818.122192,1422
818.240845,1403
818.359436,1409
818.478088,1409
818.59668,1399
818.715271,1406
818.833923,1436
818.952515,1413
819.071106,1434
819.189758,1389
819.30835,1405
819.426941,1414
819.545532,1389
819.664124,1385
819.782715,1373
819.901306,1379
820.019897,1372
820.138489,1386
820.25708,1411
820.375671,1375
820.494202,1391
820.612732,1420
820.731384,1379
820.849915,1380
820.968506,1380
821.087097,1359
821.205627,1352
821.324158,1380
821.442749,1375
821.561279,1418
821.679871,1385
821.798401,1375
821.916931,1387
822.035461,1392
822.154053,1401
822.272583,1363
822.391174,1372
822.509583,1348
822.628174,1352
822.746704,1355
822.865234,1401
822.983765,1344
823.102295,1357
823.220825,1370
823.339294,1334
823.457825,1354
823.576355,1405
823.694824,1392
823.813354,1364
823.931885,1350
824.050354,1351
824.168884,1360
824.287354,1360
824.405823,1374
824.524353,1386
824.642822,1343
824.761353,1396
824.879822,1337
824.998291,1358
825.116699,1354
825.235291,1394
825.353699,1382
825.472168,1338
825.590637,1391
825.709106,1359
825.827576,1363
825.946045,1328
826.064453,1395
826.182983,1374
826.301392,1351
826.4198,1292
826.53833,1335
826.656738,1362
826.775208,1357
826.893677,1379
827.012024,1361
827.130493,1325
827.248962,1334
827.36731,1372
827.485779,1378
827.604248,1325
827.722595,1344
827.841064,1325
827.959412,1324
828.077942,1291
828.196289,1311
828.314636,1312
828.433105,1336
828.551514,1353
828.669861,1344
828.78833,1300
828.906677,1323
829.025085,1360
829.143433,1348
829.261841,1316
829.38031,1346
829.498657,1336
829.617004,1346
829.735413,1313
829.85376,1309
829.972107,1322
830.090515,1295
830.208862,1379
830.327209,1325
830.445557,1367
830.563904,1311
830.682312,1329
830.800659,1330
830.919006,1350
831.037354,1357
831.155701,1327
831.274048,1342
831.392395,1332
831.51062,1320
831.629028,1315
831.747314,1330
831.865662,1345
831.984009,1323
832.102356,1311
832.220642,1284
832.338928,1316
832.457275,1343
832.575623,1323
832.693909,1375
832.812134,1342
832.930481,1328
833.048828,1298
833.167114,1331
833.2854,1324
833.403687,1293
833.521973,1364
833.640259,1333
833.758545,1313
833.876831,1315
833.995056,1330
834.113281,1303
834.231628,1355
834.349915,1321
834.468201,1311
834.586426,1338
834.704651,1329
834.822998,1286
834.941162,1382
835.059448,1336
835.177673,1334
835.295959,1323
835.414246,1293
835.53241,1302
835.650635,1290
835.768921,1314
835.887146,1337
836.005371,1310
836.123596,1360
836.241821,1343
836.360046,1339
836.478271,1310
836.596497,1321
836.714722,1302
836.832886,1342
836.95105,1294
837.069336,1317
837.1875,1336
837.305725,1319
837.423889,1356
837.542053,1323
837.660339,1327
837.778503,1336
837.896667,1334
838.014832,1325
838.132996,1320
838.25116,1322
838.369385,1286
838.487488,1301
838.605713,1298
838.723877,1339
838.84198,1314
838.960205,1304
839.078308,1277
839.196472,1333
839.314636,1297
839.4328,1323
839.550964,1303
839.669067,1335
839.787231,1295
839.905396,1298
840.023499,1355
840.141602,1311
840.259766,1321
840.377869,1329
840.495972,1304
840.614136,1346
840.732239,1318
840.850342,1309
840.968445,1346
841.086548,1310
841.204651,1319
841.322754,1297
841.440918,1281
841.55896,1319
841.677002,1274
841.795166,1301
841.913208,1284
842.031311,1343
842.149353,1302
842.267456,1334
842.385498,1290
842.503601,1313
842.621643,1329
842.739746,1310
842.857788,1337
842.97583,1318
843.093933,1316
843.211975,1373
843.330017,1328
843.44812,1294
843.566101,1298
843.684204,1267
843.802246,1292
843.920227,1301
844.038269,1293
844.156311,1320
844.274292,1345
844.392395,1311
844.510376,1318
844.628357,1317
844.74646,1307
844.864441,1337
844.982422,1311
845.100403,1308
845.218384,1285
845.336426,1298
845.454468,1328
845.572449,1295
845.69043,1301
845.808411,1324
845.926453,1280
846.044373,1282
846.162354,1294
846.280396,1294
846.398315,1283
846.516296,1331
846.634216,1328
846.752197,1304
846.870178,1314
846.988098,1294
847.106079,1302
847.22406,1275
847.34198,1335
847.4599,1283
847.577881,1369
847.695801,1308
847.813782,1297
847.931641,1279
848.049561,1299
848.167603,1322
848.285461,1334
848.403381,1326
848.521362,1315
848.639221,1269
848.75708,1316
848.875,1349
848.99292,1278
849.110901,1337
849.22876,1287
849.34668,1327
849.464539,1322
849.582458,1301
849.700317,1342
849.818176,1311
849.936096,1331
850.053955,1375
850.171875,1288
850.289673,1349
850.407593,1299
850.525452,1307
850.643311,1290
850.761169,1279
850.878967,1311
850.996887,1357
851.114746,1324
851.232544,1311
851.350403,1315
851.468262,1349
851.58606,1326
851.703979,1295
851.821777,1334
851.939636,1313
852.057434,1357
852.175232,1329
852.293091,1304
852.410889,1333
852.528687,1338
852.646545,1322
852.764343,1325
852.88208,1309
852.999939,1378
853.117676,1361
853.235535,1288
853.353271,1312
853.471069,1318
853.588928,1341
853.706604,1307
853.824402,1295
853.9422,1341
854.059998,1348
854.177734,1297
854.295532,1287
854.413269,1305
854.531006,1343
854.648804,1306
854.766541,1355
854.884277,1333
855.002014,1347
855.119751,1320
855.237549,1323
855.355225,1358
855.473022,1316
855.590698,1332
855.708435,1333
855.826172,1318
855.943848,1368
856.061646,1312
856.179321,1310
856.296997,1326
856.414795,1355
856.53241,1333
856.650085,1353
856.767822,1329
856.885559,1343
857.003174,1336
857.120911,1334
857.238586,1339
857.356201,1337
857.473938,1308
857.591614,1329
857.709351,1335
857.826965,1320
857.944641,1270
858.062317,1300
858.179993,1296
858.297668,1352
858.415283,1349
858.532959,1302
858.650574,1373
858.768188,1336
858.885803,1341
859.003479,1325
859.121094,1358
859.23877,1336
859.356384,1336
859.473999,1343
859.591675,1319
859.709229,1323
859.826843,1328
859.944458,1328
860.062012,1324
860.179626,1325
860.297302,1299
860.414856,1314
860.532471,1308
860.650024,1342
860.767639,1333
860.885193,1336
861.002808,1340
861.120361,1304
861.237976,1355
861.35553,1352
861.473022,1319
861.590698,1350
861.708191,1293
861.825745,1329
861.943298,1285
862.060852,1344
862.178406,1322
862.295959,1308
862.413513,1336
862.531006,1314
862.64856,1304
862.766113,1311
862.883667,1292
863.00116,1366
863.118713,1355
863.236206,1334
863.353699,1317
863.471252,1312
863.588745,1325
863.706177,1348
863.82373,1340
863.941162,1315
864.058716,1358
864.176208,1343
864.29364,1325
864.411194,1320
864.528687,1325
864.646118,1331
864.763611,1353
864.881042,1326
864.998535,1311
865.116028,1323
865.233459,1311
865.350891,1326
865.468384,1307
865.585754,1329
865.703308,1307
865.820679,1363
865.938171,1334
866.055542,1316
866.173035,1340
866.290466,1314
866.407837,1332
866.52533,1291
866.6427,1359
866.760071,1340
866.877563,1332
866.994934,1338
867.112305,1331
867.229736,1332
867.347107,1311
867.464539,1338
867.58197,1314
867.699341,1318
867.81665,1336
867.934082,1330
868.051453,1359
868.168823,1301
868.286194,1334
868.403564,1309
868.520935,1320
868.638306,1317
868.755676,1321
868.872986,1323
868.990295,1284
869.107727,1350
869.225037,1336
869.342346,1363
869.459717,1346
869.577026,1321
869.694336,1309
869.811707,1356
869.929016,1334
870.046326,1365
870.163635,1322
870.280945,1384
870.398254,1332
870.515564,1380
870.632812,1347
870.750183,1353
870.867432,1375
870.984741,1354
871.102051,1325
871.219299,1331
871.336609,1343
871.453918,1358
871.571106,1383
871.688416,1363
871.805664,1331
871.922852,1375
872.040222,1346
872.157471,1346
872.274719,1335
872.391968,1357
872.509155,1350
872.626465,1345
872.743652,1375
872.860962,1387
872.978149,1330
873.095337,1351
873.212646,1351
873.329834,1301
873.44696,1347
873.564209,1365
873.681396,1378
873.798645,1340
873.915894,1326
874.03302,1360
874.150208,1334
874.267456,1353
874.384583,1368
874.501831,1360
874.618958,1323
874.736145,1358
874.853333,1387
874.970459,1368
875.087646,1357
875.204834,1328
875.32196,1378
875.439148,1364
875.556274,1339
875.673401,1382
875.790527,1354
875.907715,1333
876.024841,1364
876.141968,1344
876.259094,1354
876.376282,1383
876.493347,1359
876.610474,1354
876.7276,1362
876.844727,1341
876.961853,1332
877.078918,1377
877.195984,1369
877.313171,1345
877.430237,1334
877.547302,1368
877.664368,1351
877.781433,1357
877.898499,1311
878.015625,1304
878.13269,1295
878.249695,1354
878.366821,1326
878.483887,1364
878.600952,1323
878.717957,1383
878.834961,1359
878.952087,1382
879.069092,1367
879.186157,1351
879.303162,1332
879.420227,1333
879.537231,1349
879.654236,1353
879.77124,1340
879.888306,1354
880.005249,1366
880.122314,1375
880.239319,1375
880.356323,1332
880.473328,1354
880.590271,1358
880.707275,1382
880.824341,1397
880.941284,1347
881.058228,1399
881.175232,1332
881.292236,1358
881.40918,1317
881.526123,1371
881.643066,1358
881.760071,1363
881.877014,1350
881.993958,1385
882.11084,1316
882.227783,1358
882.344727,1343
882.46167,1352
882.578613,1348
882.695618,1365
882.812439,1364
882.929382,1386
883.046326,1369
883.163208,1364
883.280151,1320
883.397034,1344
883.513916,1379
883.630798,1378
883.747742,1352
883.864563,1350
883.981506,1373
884.098389,1378
884.21521,1383
884.332153,1382
884.448975,1384
884.565796,1350
884.682678,1343
884.7995,1392
884.916443,1387
885.033264,1329
885.150085,1395
885.266968,1407
885.383789,1404
885.500671,1398
885.617493,1414
885.734314,1430
885.851196,1405
885.967896,1438
886.084717,1388
886.201599,1448
886.318359,1361
886.435181,1433
886.552002,1378
886.668762,1373
886.785645,1378
886.902344,1411
887.019165,1394
887.135925,1363
887.252747,1408
887.369446,1374
887.486267,1385
887.603027,1384
887.719788,1373
887.836548,1408
887.953247,1387
888.070068,1376
888.186829,1415
888.303528,1350
888.420288,1410
888.536987,1351
888.653687,1372
888.770447,1353
888.887146,1366
889.003967,1341
889.120667,1387
889.237305,1365
889.354065,1412
889.470703,1348
889.587463,1396
889.704163,1348
889.820862,1346
889.937561,1399
890.054199,1377
890.170837,1391
890.287598,1390
890.404236,1343
890.520874,1356
890.637634,1341
890.754211,1403
890.87085,1358
890.987549,1421
891.104187,1369
891.220886,1413
891.337463,1332
891.454102,1399
891.57074,1400
891.687378,1386
891.804077,1368
891.920654,1357
892.037231,1381
892.15387,1410
892.270447,1377
892.387085,1410
892.503723,1359
892.6203,1359
892.736877,1346
892.853516,1401
892.970032,1379
893.08667,1360
893.203186,1411
893.319763,1370
893.43634,1379
893.552917,1409
893.669556,1359
893.786011,1386
893.902588,1397
894.019165,1380
894.135681,1427
894.252197,1392
894.368835,1409
894.485291,1406
894.601868,1431
894.718384,1393
894.8349,1369
894.951355,1428
895.067932,1404
895.184448,1382
895.300964,1399
895.417419,1419
895.533936,1376
895.650452,1399
895.766907,1386
895.883423,1420
895.999878,1362
896.116333,1391
896.232849,1386
896.349304,1405
896.465759,1421
896.582214,1359
896.698669,1390
896.815125,1394
896.931641,1428
897.048035,1354
897.164551,1423
897.280884,1455
897.397339,1378
897.513794,1412
897.630249,1434
897.746582,1404
897.863098,1379
897.979431,1390
898.095886,1453
898.212341,1414
898.328674,1353
898.445129,1433
898.561462,1405
898.677795,1404
898.794312,1410
898.910645,1382
899.026978,1400
899.143433,1390
899.259766,1406
899.37616,1407
899.492493,1413
899.608765,1421
899.725159,1386
899.841553,1406
899.957947,1450
900.07428,1426
900.190552,1406
900.306946,1402
900.423157,1404
900.53949,1435
900.655884,1399
900.772156,1415
900.888489,1436
901.004822,1395
901.121033,1432
901.237366,1370
901.353699,1461
901.46991,1406
901.586304,1404
901.702515,1421
901.818787,1446
901.93512,1436
902.051331,1471
902.167603,1435
902.283875,1428
902.400085,1477
902.516418,1405
902.632629,1447
902.74884,1427
902.865112,1436
902.981384,1457
903.097595,1453
903.213867,1447
903.330017,1467
903.446289,1446
903.5625,1400
903.67865,1442
903.794922,1425
903.911072,1485
904.027344,1420
904.143494,1485
904.259705,1395
904.375916,1439
904.492065,1428
904.608215,1464
904.724426,1443
904.840576,1476
904.956726,1464
905.072876,1427
905.189087,1443
905.305176,1401
905.421387,1404
905.537537,1466
905.653687,1403
905.769775,1413
905.885925,1405
906.002014,1429
906.118164,1411
906.234314,1397
906.350403,1382
906.466492,1433
906.582642,1432
906.69873,1438
906.814758,1463
906.930908,1469
907.046936,1490
907.163086,1425
907.279175,1430
907.395264,1431
907.511353,1433
907.62738,1409
907.743408,1448
907.859497,1458
907.975525,1439
908.091553,1467
908.207703,1463
908.32373,1456
908.439758,1511
908.555786,1418
908.671814,1482
908.787842,1403
908.90387,1387
909.019775,1420
909.135864,1444
909.251892,1468
909.367859,1439
909.483826,1421
909.599854,1453
909.715881,1461
909.831848,1419
909.947815,1446
910.063782,1452
910.179749,1459
910.295776,1428
910.411743,1464
910.527649,1411
910.643616,1439
910.759583,1436
910.875488,1425
910.991455,1453
911.107361,1459
911.223267,1438
911.339294,1520
911.4552,1458
911.571106,1486
911.687073,1410
911.802979,1480
911.918823,1428
912.034729,1487
912.150635,1465
912.266602,1408
912.382446,1487
912.498352,1395
912.614197,1434
912.730103,1450
912.846008,1444
