792.44574,3385
792.56488,3240
792.68396,3295
792.80304,3184
792.92218,3101
793.041199,3018
793.160339,2989
793.279419,2998
793.398499,2887
793.517578,2862
793.636658,2777
793.755737,2815
793.874817,2777
793.993896,2705
794.112976,2615
794.232056,2666
794.351074,2644
794.470215,2626
794.589233,2494
794.708313,2534
794.827393,2485
794.946411,2476
795.065552,2416
795.18457,2449
795.303589,2402
795.422668,2414
795.541687,2377
795.660767,2413
795.779846,2338
795.898865,2341
796.017883,2283
796.136963,2307
796.255981,2234
796.375061,2283
796.49408,2246
796.613037,2251
796.732117,2197
796.851135,2182
796.970154,2197
797.089233,2123
797.208191,2122
797.327271,2129
797.446228,2155
797.565186,2142
797.684265,2143
797.803223,2127
797.922241,2146
798.04126,2121
798.160278,2082
798.279297,2119
798.398315,2090
798.517273,2113
798.636292,2073
798.75531,2084
798.874268,2045
798.993286,2057
799.112244,2029
799.231323,2048
799.350281,2072
799.469238,2097
799.588257,2009
799.707153,2016
799.826111,1995
799.945129,2057
800.064087,2030
800.183044,1971
800.302063,1952
800.421021,1958
800.539978,1993
800.658936,2004
800.777893,2023
800.896912,1983
801.015747,2064
801.134705,1962
801.253723,1997
801.37262,1977
801.491638,2032
801.610535,1927
801.729492,1964
801.84845,1931
801.967407,1961
802.086243,1988
802.205261,1984
802.324158,1964
802.443115,1946
802.562073,1983
802.680969,1962
802.799927,1961
802.918762,1873
803.037659,1931
803.156677,1924
803.275574,1952
803.39447,1910
803.513428,1881
803.632263,1924
803.751221,1936
803.870117,1918
803.989014,1918
804.107971,1927
804.226746,1903
804.345642,1952
804.4646,1953
804.583496,1867
804.702393,1910
804.821228,1922
804.940125,1924
805.059021,1916
805.177917,1957
805.296814,1894
805.415649,1877
805.534546,1901
805.653442,1909
805.772278,1901
805.891113,1937
806.01001,1920
806.128906,1912
806.247742,1933
806.366577,1901
806.485413,1964
806.604309,1902
806.723145,1979
806.84198,1918
806.960876,1916
807.079712,1909
807.198486,1908
807.317383,1893
807.436218,1939
807.554993,1938
807.673889,1907
807.792725,1897
807.91156,1926
808.030396,1968
808.14917,1892
808.268005,1902
808.386841,1933
808.505676,1922
808.624451,1880
808.743286,1912
808.862122,1927
808.980896,1867
809.099731,1931
809.218506,1877
809.337341,1912
809.456116,1945
809.57489,1935
809.693726,1935
809.8125,1876
809.931274,1924
810.050049,1910
810.168884,1869
810.287659,1927
810.406372,1939
810.525269,1906
810.643982,1916
810.762756,1884
810.881531,1936
811.000305,1893
811.11908,1939
811.237854,1962
811.356567,1907
811.475403,1931
811.594116,1856
811.71283,1971
811.831604,1927
811.950378,1924
812.069153,1919
812.187927,1936
812.30658,1934
812.425415,1940
812.544128,1941
812.662781,1937
812.781616,1912
812.900269,1929
813.019043,1920
813.137756,1944
813.256531,1980
813.375244,1960
813.493896,1906
813.612671,1906
813.731384,1927
813.850037,1921
813.96875,1885
814.087524,1904
814.206238,1881
814.324951,1867
814.443604,1919
814.562256,1882
814.68103,1874
814.799683,1896
814.918335,1873
815.037109,1842
815.155762,1905
815.274475,1856
815.393188,1843
815.511841,1873
815.630554,1846
815.749146,1832
815.867859,1792
815.986572,1824
816.105164,1854
816.223877,1824
816.342529,1852
816.461182,1872
816.579895,1819
816.698486,1913
816.817139,1889
816.935791,1835
817.054504,1870
817.173096,1887
817.291748,1800
817.4104,1818
817.529053,1825
817.647644,1845
817.766235,1769
817.884949,1807
818.00354,1733
818.122192,1710
818.240845,1742
818.359436,1704
818.478088,1740
818.59668,1658
818.715271,1697
818.833923,1671
818.952515,1630
819.071106,1638
819.189758,1653
819.30835,1600
819.426941,1600
819.545532,1584
819.664124,1600
819.782715,1608
819.901306,1585
820.019897,1597
820.138489,1583
820.25708,1594
820.375671,1586
820.494202,1525
820.612732,1580
820.731384,1546
820.849915,1538
820.968506,1530
821.087097,1531
821.205627,1535
821.324158,1530
821.442749,1509
821.561279,1503
821.679871,1462
821.798401,1539
821.916931,1487
822.035461,1522
822.154053,1556
822.272583,1445
822.391174,1519
822.509583,1497
822.628174,1470
822.746704,1478
822.865234,1471
822.983765,1488
823.102295,1479
823.220825,1460
823.339294,1471
823.457825,1506
823.576355,1455
823.694824,1494
823.813354,1479
823.931885,1495
824.050354,1492
824.168884,1527
824.287354,1509
824.405823,1496
824.524353,1524
824.642822,1481
824.761353,1499
824.879822,1522
824.998291,1502
825.116699,1528
825.235291,1531
825.353699,1471
825.472168,1491
825.590637,1458
825.709106,1487
825.827576,1475
825.946045,1456
826.064453,1415
826.182983,1439
826.301392,1450
826.4198,1441
826.53833,1431
826.656738,1435
826.775208,1441
826.893677,1443
827.012024,1445
827.130493,1427
827.248962,1418
827.36731,1453
827.485779,1443
827.604248,1457
827.722595,1428
827.841064,1423
827.959412,1441
828.077942,1455
828.196289,1454
828.314636,1426
828.433105,1385
828.551514,1434
828.669861,1381
828.78833,1382
828.906677,1431
829.025085,1421
829.143433,1426
829.261841,1468
829.38031,1378
829.498657,1389
829.617004,1419
829.735413,1407
829.85376,1400
829.972107,1417
830.090515,1383
830.208862,1398
830.327209,1437
830.445557,1349
830.563904,1411
830.682312,1403
830.800659,1391
830.919006,1428
831.037354,1454
831.155701,1463
831.274048,1427
831.392395,1431
831.51062,1464
831.629028,1422
831.747314,1450
831.865662,1446
831.984009,1427
832.102356,1399
832.220642,1444
832.338928,1451
832.457275,1473
832.575623,1443
832.693909,1448
832.812134,1432
832.930481,1424
833.048828,1456
833.167114,1466
833.2854,1461
833.403687,1455
833.521973,1419
833.640259,1443
833.758545,1440
833.876831,1452
833.995056,1429
834.113281,1420
834.231628,1419
834.349915,1415
834.468201,1412
834.586426,1432
834.704651,1431
834.822998,1403
834.941162,1452
835.059448,1426
835.177673,1465
835.295959,1457
835.414246,1457
835.53241,1385
835.650635,1418
835.768921,1435
835.887146,1422
836.005371,1416
836.123596,1386
836.241821,1448
836.360046,1457
836.478271,1472
836.596497,1424
836.714722,1448
836.832886,1423
836.95105,1484
837.069336,1433
837.1875,1432
837.305725,1447
837.423889,1459
837.542053,1465
837.660339,1445
837.778503,1478
837.896667,1435
838.014832,1446
838.132996,1475
838.25116,1466
838.369385,1494
838.487488,1489
838.605713,1460
838.723877,1459
838.84198,1523
838.960205,1490
839.078308,1467
839.196472,1488
839.314636,1490
839.4328,1465
839.550964,1463
839.669067,1479
839.787231,1502
839.905396,1492
840.023499,1483
840.141602,1547
840.259766,1522
840.377869,1509
840.495972,1515
840.614136,1531
840.732239,1533
840.850342,1529
840.968445,1468
841.086548,1552
841.204651,1518
841.322754,1557
841.440918,1543
841.55896,1508
841.677002,1545
841.795166,1516
841.913208,1525
842.031311,1560
842.149353,1551
842.267456,1561
842.385498,1533
842.503601,1499
842.621643,1515
842.739746,1528
842.857788,1527
842.97583,1521
843.093933,1542
843.211975,1529
843.330017,1543
843.44812,1557
843.566101,1553
843.684204,1543
843.802246,1526
843.920227,1509
844.038269,1569
844.156311,1563
844.274292,1527
844.392395,1534
844.510376,1539
844.628357,1521
844.74646,1538
844.864441,1527
844.982422,1474
845.100403,1528
845.218384,1518
845.336426,1504
845.454468,1495
845.572449,1475
845.69043,1464
845.808411,1492
845.926453,1472
846.044373,1549
846.162354,1487
846.280396,1524
846.398315,1451
846.516296,1490
846.634216,1523
846.752197,1472
846.870178,1528
846.988098,1507
847.106079,1529
847.22406,1492
847.34198,1505
847.4599,1483
847.577881,1504
847.695801,1507
847.813782,1520
847.931641,1492
848.049561,1569
848.167603,1495
848.285461,1522
848.403381,1504
848.521362,1517
848.639221,1538
848.75708,1567
848.875,1541
848.99292,1547
849.110901,1496
849.22876,1540
849.34668,1537
849.464539,1525
849.582458,1523
849.700317,1559
849.818176,1526
849.936096,1598
850.053955,1537
850.171875,1531
850.289673,1590
850.407593,1530
850.525452,1551
850.643311,1583
850.761169,1513
850.878967,1542
850.996887,1532
851.114746,1524
851.232544,1564
851.350403,1564
851.468262,1527
851.58606,1565
851.703979,1486
851.821777,1504
851.939636,1502
852.057434,1514
852.175232,1498
852.293091,1553
852.410889,1538
852.528687,1557
852.646545,1578
852.764343,1610
852.88208,1558
852.999939,1556
853.117676,1524
853.235535,1520
853.353271,1530
853.471069,1491
853.588928,1542
853.706604,1541
853.824402,1526
853.9422,1508
854.059998,1468
854.177734,1526
854.295532,1542
854.413269,1541
854.531006,1538
854.648804,1527
854.766541,1528
854.884277,1498
855.002014,1528
855.119751,1500
855.237549,1500
855.355225,1523
855.473022,1453
855.590698,1510
855.708435,1546
855.826172,1475
855.943848,1502
856.061646,1494
856.179321,1497
856.296997,1473
856.414795,1530
856.53241,1526
856.650085,1529
856.767822,1562
856.885559,1548
857.003174,1598
857.120911,1531
857.238586,1556
857.356201,1571
857.473938,1561
857.591614,1562
857.709351,1526
857.826965,1551
857.944641,1580
858.062317,1560
858.179993,1573
858.297668,1581
858.415283,1572
858.532959,1600
858.650574,1607
858.768188,1599
858.885803,1551
859.003479,1547
859.121094,1527
859.23877,1535
859.356384,1548
859.473999,1490
859.591675,1505
859.709229,1538
859.826843,1521
859.944458,1491
860.062012,1487
860.179626,1437
860.297302,1532
860.414856,1519
860.532471,1489
860.650024,1482
860.767639,1443
860.885193,1488
861.002808,1530
861.120361,1473
861.237976,1494
861.35553,1530
861.473022,1544
861.590698,1507
861.708191,1510
861.825745,1485
861.943298,1534
862.060852,1504
862.178406,1425
862.295959,1474
862.413513,1430
862.531006,1412
862.64856,1444
862.766113,1437
862.883667,1450
863.00116,1441
863.118713,1453
863.236206,1453
863.353699,1481
863.471252,1468
863.588745,1481
863.706177,1489
863.82373,1507
863.941162,1488
864.058716,1532
864.176208,1449
864.29364,1458
864.411194,1432
864.528687,1457
864.646118,1481
864.763611,1450
864.881042,1480
864.998535,1464
865.116028,1469
865.233459,1450
865.350891,1445
865.468384,1448
865.585754,1441
865.703308,1466
865.820679,1448
865.938171,1428
866.055542,1458
866.173035,1449
866.290466,1466
866.407837,1428
866.52533,1475
866.6427,1436
866.760071,1467
866.877563,1420
866.994934,1459
867.112305,1458
867.229736,1465
867.347107,1443
867.464539,1431
867.58197,1504
867.699341,1483
867.81665,1484
867.934082,1471
868.051453,1454
868.168823,1491
868.286194,1485
868.403564,1456
868.520935,1489
868.638306,1464
868.755676,1483
868.872986,1458
868.990295,1486
869.107727,1507
869.225037,1447
869.342346,1466
869.459717,1465
869.577026,1467
869.694336,1525
869.811707,1473
869.929016,1473
870.046326,1516
870.163635,1541
870.280945,1500
870.398254,1487
870.515564,1559
870.632812,1530
870.750183,1563
870.867432,1547
870.984741,1527
871.102051,1554
871.219299,1559
871.336609,1554
871.453918,1571
871.571106,1600
871.688416,1585
871.805664,1602
871.922852,1591
872.040222,1559
872.157471,1591
872.274719,1641
872.391968,1606
872.509155,1571
872.626465,1570
872.743652,1602
872.860962,1572
872.978149,1587
873.095337,1564
873.212646,1601
873.329834,1559
873.44696,1584
873.564209,1595
873.681396,1543
873.798645,1555
873.915894,1567
874.03302,1597
874.150208,1539
874.267456,1597
874.384583,1606
874.501831,1618
874.618958,1661
874.736145,1624
874.853333,1597
874.970459,1639
875.087646,1660
875.204834,1626
875.32196,1576
875.439148,1569
875.556274,1639
875.673401,1571
875.790527,1582
875.907715,1563
876.024841,1551
876.141968,1534
876.259094,1547
876.376282,1527
876.493347,1538
876.610474,1517
876.7276,1556
876.844727,1514
876.961853,1547
877.078918,1545
877.195984,1514
877.313171,1518
877.430237,1513
877.547302,1524
877.664368,1529
877.781433,1519
877.898499,1479
878.015625,1541
878.13269,1505
878.249695,1483
878.366821,1504
878.483887,1483
878.600952,1475
878.717957,1474
878.834961,1455
878.952087,1525
879.069092,1487
879.186157,1464
879.303162,1464
879.420227,1490
879.537231,1498
879.654236,1467
879.77124,1511
879.888306,1456
880.005249,1458
880.122314,1457
880.239319,1468
880.356323,1452
880.473328,1454
880.590271,1463
880.707275,1449
880.824341,1426
880.941284,1476
881.058228,1439
881.175232,1472
881.292236,1461
881.40918,1412
881.526123,1485
881.643066,1428
881.760071,1441
881.877014,1428
881.993958,1471
882.11084,1441
882.227783,1430
882.344727,1445
882.46167,1452
882.578613,1458
882.695618,1486
882.812439,1426
882.929382,1460
883.046326,1493
883.163208,1471
883.280151,1455
883.397034,1482
883.513916,1511
883.630798,1444
883.747742,1508
883.864563,1439
883.981506,1482
884.098389,1488
884.21521,1536
884.332153,1534
884.448975,1529
884.565796,1547
884.682678,1628
884.7995,1604
884.916443,1664
885.033264,1707
885.150085,1767
885.266968,1825
885.383789,1826
885.500671,1814
885.617493,1854
885.734314,1823
885.851196,1813
885.967896,1792
886.084717,1824
886.201599,1762
886.318359,1752
886.435181,1749
886.552002,1782
886.668762,1750
886.785645,1678
886.902344,1723
887.019165,1691
887.135925,1672
887.252747,1682
887.369446,1599
887.486267,1684
887.603027,1628
887.719788,1586
887.836548,1559
887.953247,1518
888.070068,1549
888.186829,1543
888.303528,1494
888.420288,1491
888.536987,1489
888.653687,1473
888.770447,1438
888.887146,1480
889.003967,1481
889.120667,1450
889.237305,1448
889.354065,1430
889.470703,1453
889.587463,1461
889.704163,1467
889.820862,1429
889.937561,1441
890.054199,1466
890.170837,1429
890.287598,1476
890.404236,1438
890.520874,1399
890.637634,1424
890.754211,1488
890.87085,1446
890.987549,1437
891.104187,1473
891.220886,1464
891.337463,1441
891.454102,1464
891.57074,1460
891.687378,1445
891.804077,1439
891.920654,1445
892.037231,1450
892.15387,1504
892.270447,1467
892.387085,1455
892.503723,1475
892.6203,1444
892.736877,1459
892.853516,1492
892.970032,1466
893.08667,1432
893.203186,1473
893.319763,1440
893.43634,1467
893.552917,1467
893.669556,1443
893.786011,1433
893.902588,1468
894.019165,1433
894.135681,1473
894.252197,1492
894.368835,1449
894.485291,1433
894.601868,1456
894.718384,1439
894.8349,1426
894.951355,1434
895.067932,1430
895.184448,1411
895.300964,1459
895.417419,1418
895.533936,1418
895.650452,1428
895.766907,1473
895.883423,1475
895.999878,1420
896.116333,1424
896.232849,1394
896.349304,1458
896.465759,1466
896.582214,1453
896.698669,1421
896.815125,1446
896.931641,1452
897.048035,1462
897.164551,1500
897.280884,1470
897.397339,1463
897.513794,1424
897.630249,1449
897.746582,1471
897.863098,1438
897.979431,1452
898.095886,1471
898.212341,1451
898.328674,1467
898.445129,1471
898.561462,1453
898.677795,1480
898.794312,1510
898.910645,1451
899.026978,1474
899.143433,1475
899.259766,1482
899.37616,1430
899.492493,1488
899.608765,1494
899.725159,1483
899.841553,1449
899.957947,1421
900.07428,1485
900.190552,1460
900.306946,1482
900.423157,1497
900.53949,1478
900.655884,1463
900.772156,1497
900.888489,1475
901.004822,1500
901.121033,1472
901.237366,1507
901.353699,1487
901.46991,1505
901.586304,1533
901.702515,1498
901.818787,1557
901.93512,1565
902.051331,1586
902.167603,1617
902.283875,1632
902.400085,1608
902.516418,1642
902.632629,1696
902.74884,1638
902.865112,1658
902.981384,1649
903.097595,1701
903.213867,1641
903.330017,1665
903.446289,1606
903.5625,1633
903.67865,1596
903.794922,1604
903.911072,1596
904.027344,1579
904.143494,1562
904.259705,1568
904.375916,1557
904.492065,1518
904.608215,1537
904.724426,1512
904.840576,1514
904.956726,1556
905.072876,1503
905.189087,1497
905.305176,1515
905.421387,1515
905.537537,1482
905.653687,1482
905.769775,1470
905.885925,1490
906.002014,1476
906.118164,1459
906.234314,1451
906.350403,1492
906.466492,1446
906.582642,1485
906.69873,1490
906.814758,1459
906.930908,1470
907.046936,1457
907.163086,1480
907.279175,1468
907.395264,1486
907.511353,1495
907.62738,1448
907.743408,1424
907.859497,1482
907.975525,1436
908.091553,1475
908.207703,1453
908.32373,1529
908.439758,1502
908.555786,1450
908.671814,1470
908.787842,1471
908.90387,1479
909.019775,1487
909.135864,1462
909.251892,1459
909.367859,1499
909.483826,1498
909.599854,1469
909.715881,1489
909.831848,1467
909.947815,1448
910.063782,1472
910.179749,1488
910.295776,1471
910.411743,1471
910.527649,1516
910.643616,1481
910.759583,1493
910.875488,1462
910.991455,1494
911.107361,1454
911.223267,1470
911.339294,1431
911.4552,1437
911.571106,1463
911.687073,1462
911.802979,1488
911.918823,1494
912.034729,1478
912.150635,1475
912.266602,1475
912.382446,1479
912.498352,1465
912.614197,1440
912.730103,1451
912.846008,1476
792.44574,3441
792.56488,3359
792.68396,3283
792.80304,3231
792.92218,3183
793.041199,3085
793.160339,3146
793.279419,2995
793.398499,2988
793.517578,2876
793.636658,2888
793.755737,2924
793.874817,2808
793.993896,2803
794.112976,2694
794.232056,2706
794.351074,2674
794.470215,2666
794.589233,2654
794.708313,2601
794.827393,2567
794.946411,2509
795.065552,2534
795.18457,2456
795.303589,2417
795.422668,2409
795.541687,2475
795.660767,2481
795.779846,2376
795.898865,2395
796.017883,2334
796.136963,2320
796.255981,2260
796.375061,2304
796.49408,2327
796.613037,2311
796.732117,2239
796.851135,2267
796.970154,2223
797.089233,2201
797.208191,2200
797.327271,2218
797.446228,2147
797.565186,2204
797.684265,2156
797.803223,2171
797.922241,2166
798.04126,2186
798.160278,2115
798.279297,2083
798.398315,2161
798.517273,2103
798.636292,2135
798.75531,2144
798.874268,2087
798.993286,2112
799.112244,2103
799.231323,2081
799.350281,2029
799.469238,2048
799.588257,2100
799.707153,2018
799.826111,2064
799.945129,2050
800.064087,2027
800.183044,2031
800.302063,2024
800.421021,2062
800.539978,2029
800.658936,2000
800.777893,2043
800.896912,1994
801.015747,1948
801.134705,2019
801.253723,2040
801.37262,2005
801.491638,1969
801.610535,1971
801.729492,2002
801.84845,1938
801.967407,1996
802.086243,2031
802.205261,1953
802.324158,1975
802.443115,1983
802.562073,1957
802.680969,2020
802.799927,2006
802.918762,1945
803.037659,1973
803.156677,1965
803.275574,1972
803.39447,1994
803.513428,1933
803.632263,1951
803.751221,1924
803.870117,1939
803.989014,1973
804.107971,1925
804.226746,1888
804.345642,1919
804.4646,1938
804.583496,1916
804.702393,1860
804.821228,1944
804.940125,1925
805.059021,1962
805.177917,1944
805.296814,1915
805.415649,1902
805.534546,1905
805.653442,1973
805.772278,1936
805.891113,1917
806.01001,1938
806.128906,1962
806.247742,1894
806.366577,1901
806.485413,1950
806.604309,1941
806.723145,1875
806.84198,1912
806.960876,1908
807.079712,1923
807.198486,1928
807.317383,1918
807.436218,1941
807.554993,1918
807.673889,1905
807.792725,1907
807.91156,1906
808.030396,1947
808.14917,1901
808.268005,1913
808.386841,1927
808.505676,1898
808.624451,1964
808.743286,1909
808.862122,1962
808.980896,1933
809.099731,1919
809.218506,1925
809.337341,1957
809.456116,1897
809.57489,1916
809.693726,1962
809.8125,1944
809.931274,1924
810.050049,1913
810.168884,1974
810.287659,1936
810.406372,1902
810.525269,1955
810.643982,1914
810.762756,1978
810.881531,1957
811.000305,1938
811.11908,1961
811.237854,1942
811.356567,1931
811.475403,1981
811.594116,1967
811.71283,1980
811.831604,1912
811.950378,1992
812.069153,2003
812.187927,2006
812.30658,1956
812.425415,1960
812.544128,1951
812.662781,1998
812.781616,1945
812.900269,1945
813.019043,1913
813.137756,1924
813.256531,1943
813.375244,1958
813.493896,1903
813.612671,1914
813.731384,1934
813.850037,1873
813.96875,1894
814.087524,1921
814.206238,1925
814.324951,1942
814.443604,1899
814.562256,1886
814.68103,1886
814.799683,1928
814.918335,1865
815.037109,1857
815.155762,1828
815.274475,1920
815.393188,1858
815.511841,1870
815.630554,1888
815.749146,1881
815.867859,1827
815.986572,1825
816.105164,1806
816.223877,1807
816.342529,1832
816.461182,1889
816.579895,1841
816.698486,1846
816.817139,1890
816.935791,1863
817.054504,1885
817.173096,1935
817.291748,1880
817.4104,1825
817.529053,1806
817.647644,1825
817.766235,1825
817.884949,1783
818.00354,1826
818.122192,1780
818.240845,1746
818.359436,1723
818.478088,1703
818.59668,1689
818.715271,1718
818.833923,1652
818.952515,1624
819.071106,1672
819.189758,1664
819.30835,1629
819.426941,1605
819.545532,1630
819.664124,1624
819.782715,1572
819.901306,1648
820.019897,1590
820.138489,1595
820.25708,1607
820.375671,1578
820.494202,1591
820.612732,1608
820.731384,1592
820.849915,1609
820.968506,1561
821.087097,1556
821.205627,1551
821.324158,1575
821.442749,1580
821.561279,1508
821.679871,1554
821.798401,1510
821.916931,1590
822.035461,1543
822.154053,1542
822.272583,1544
822.391174,1527
822.509583,1557
822.628174,1531
822.746704,1495
822.865234,1486
822.983765,1527
823.102295,1565
823.220825,1514
823.339294,1531
823.457825,1517
823.576355,1497
823.694824,1504
823.813354,1530
823.931885,1499
824.050354,1520
824.168884,1543
824.287354,1511
824.405823,1535
824.524353,1566
824.642822,1476
824.761353,1543
824.879822,1517
824.998291,1570
825.116699,1521
825.235291,1503
825.353699,1542
825.472168,1477
825.590637,1466
825.709106,1508
825.827576,1492
825.946045,1533
826.064453,1477
826.182983,1497
826.301392,1469
826.4198,1448
826.53833,1437
826.656738,1455
826.775208,1480
826.893677,1468
827.012024,1488
827.130493,1483
827.248962,1460
827.36731,1487
827.485779,1492
827.604248,1480
827.722595,1471
827.841064,1451
827.959412,1459
828.077942,1430
828.196289,1431
828.314636,1412
828.433105,1441
828.551514,1421
828.669861,1379
828.78833,1437
828.906677,1428
829.025085,1435
829.143433,1437
829.261841,1456
829.38031,1414
829.498657,1435
829.617004,1459
829.735413,1396
829.85376,1378
829.972107,1436
830.090515,1443
830.208862,1421
830.327209,1439
830.445557,1399
830.563904,1448
830.682312,1457
830.800659,1450
830.919006,1463
831.037354,1414
831.155701,1485
831.274048,1427
831.392395,1459
831.51062,1467
831.629028,1468
831.747314,1445
831.865662,1431
831.984009,1408
832.102356,1489
832.220642,1458
832.338928,1492
832.457275,1432
832.575623,1478
832.693909,1466
832.812134,1498
832.930481,1453
833.048828,1471
833.167114,1450
833.2854,1437
833.403687,1471
833.521973,1456
833.640259,1456
833.758545,1473
833.876831,1454
833.995056,1451
834.113281,1454
834.231628,1417
834.349915,1436
834.468201,1441
834.586426,1437
834.704651,1446
834.822998,1460
834.941162,1458
835.059448,1441
835.177673,1495
835.295959,1446
835.414246,1458
835.53241,1451
835.650635,1477
835.768921,1461
835.887146,1413
836.005371,1517
836.123596,1417
836.241821,1473
836.360046,1461
836.478271,1484
836.596497,1486
836.714722,1420
836.832886,1468
836.95105,1462
837.069336,1502
837.1875,1466
837.305725,1463
837.423889,1478
837.542053,1478
837.660339,1491
837.778503,1465
837.896667,1469
838.014832,1505
838.132996,1453
838.25116,1516
838.369385,1485
838.487488,1511
838.605713,1479
838.723877,1493
838.84198,1503
838.960205,1500
839.078308,1502
839.196472,1503
839.314636,1441
839.4328,1489
839.550964,1490
839.669067,1476
839.787231,1535
839.905396,1519
840.023499,1487
840.141602,1505
840.259766,1562
840.377869,1517
840.495972,1505
840.614136,1504
840.732239,1521
840.850342,1569
840.968445,1549
841.086548,1492
841.204651,1540
841.322754,1575
841.440918,1554
841.55896,1571
841.677002,1567
841.795166,1514
841.913208,1576
842.031311,1561
842.149353,1564
842.267456,1558
842.385498,1539
842.503601,1548
842.621643,1553
842.739746,1538
842.857788,1555
842.97583,1569
843.093933,1569
843.211975,1588
843.330017,1530
843.44812,1594
843.566101,1564
843.684204,1574
843.802246,1595
843.920227,1528
844.038269,1540
844.156311,1532
844.274292,1543
844.392395,1545
844.510376,1538
844.628357,1589
844.74646,1566
844.864441,1533
844.982422,1498
845.100403,1543
845.218384,1506
845.336426,1500
845.454468,1556
845.572449,1526
845.69043,1517
845.808411,1530
845.926453,1500
846.044373,1505
846.162354,1487
846.280396,1496
846.398315,1504
846.516296,1497
846.634216,1543
846.752197,1519
846.870178,1499
846.988098,1526
847.106079,1519
847.22406,1566
847.34198,1534
847.4599,1547
847.577881,1542
847.695801,1527
847.813782,1491
847.931641,1505
848.049561,1517
848.167603,1545
848.285461,1513
848.403381,1530
848.521362,1548
848.639221,1592
848.75708,1498
848.875,1556
848.99292,1571
849.110901,1598
849.22876,1559
849.34668,1566
849.464539,1566
849.582458,1590
849.700317,1590
849.818176,1621
849.936096,1611
850.053955,1571
850.171875,1567
850.289673,1590
850.407593,1599
850.525452,1593
850.643311,1603
850.761169,1584
850.878967,1573
850.996887,1579
851.114746,1574
851.232544,1568
851.350403,1589
851.468262,1541
851.58606,1521
851.703979,1558
851.821777,1537
851.939636,1529
852.057434,1522
852.175232,1552
852.293091,1552
852.410889,1571
852.528687,1571
852.646545,1626
852.764343,1640
852.88208,1561
852.999939,1531
853.117676,1578
853.235535,1532
853.353271,1545
853.471069,1532
853.588928,1542
853.706604,1555
853.824402,1550
853.9422,1518
854.059998,1532
854.177734,1563
854.295532,1517
854.413269,1542
854.531006,1539
854.648804,1540
854.766541,1545
854.884277,1525
855.002014,1529
855.119751,1528
855.237549,1542
855.355225,1539
855.473022,1560
855.590698,1554
855.708435,1516
855.826172,1524
855.943848,1507
856.061646,1561
856.179321,1554
856.296997,1533
856.414795,1534
856.53241,1494
856.650085,1585
856.767822,1583
856.885559,1607
857.003174,1587
857.120911,1606
857.238586,1575
857.356201,1626
857.473938,1558
857.591614,1580
857.709351,1606
857.826965,1586
857.944641,1536
858.062317,1584
858.179993,1517
858.297668,1612
858.415283,1618
858.532959,1617
858.650574,1558
858.768188,1609
858.885803,1581
859.003479,1550
859.121094,1553
859.23877,1551
859.356384,1560
859.473999,1550
859.591675,1542
859.709229,1515
859.826843,1520
859.944458,1516
860.062012,1534
860.179626,1489
860.297302,1538
860.414856,1486
860.532471,1533
860.650024,1514
860.767639,1524
860.885193,1489
861.002808,1522
861.120361,1521
861.237976,1541
861.35553,1527
861.473022,1483
861.590698,1548
861.708191,1500
861.825745,1510
861.943298,1520
862.060852,1531
862.178406,1507
862.295959,1468
862.413513,1484
862.531006,1477
862.64856,1500
862.766113,1487
862.883667,1460
863.00116,1487
863.118713,1452
863.236206,1471
863.353699,1477
863.471252,1511
863.588745,1509
863.706177,1518
863.82373,1512
863.941162,1512
864.058716,1513
864.176208,1490
864.29364,1461
864.411194,1507
864.528687,1472
864.646118,1498
864.763611,1441
864.881042,1487
864.998535,1465
865.116028,1462
865.233459,1474
865.350891,1488
865.468384,1491
865.585754,1552
865.703308,1524
865.820679,1513
865.938171,1432
866.055542,1442
866.173035,1531
866.290466,1442
866.407837,1476
866.52533,1450
866.6427,1480
866.760071,1473
866.877563,1504
866.994934,1525
867.112305,1516
867.229736,1505
867.347107,1465
867.464539,1494
867.58197,1517
867.699341,1476
867.81665,1500
867.934082,1512
868.051453,1475
868.168823,1482
868.286194,1490
868.403564,1496
868.520935,1477
868.638306,1468
868.755676,1487
868.872986,1512
868.990295,1459
869.107727,1530
869.225037,1531
869.342346,1552
869.459717,1520
869.577026,1512
869.694336,1527
869.811707,1539
869.929016,1539
870.046326,1526
870.163635,1572
870.280945,1528
870.398254,1517
870.515564,1574
870.632812,1543
870.750183,1572
870.867432,1570
870.984741,1573
871.102051,1582
871.219299,1592
871.336609,1666
871.453918,1628
871.571106,1641
871.688416,1661
871.805664,1641
871.922852,1626
872.040222,1622
872.157471,1655
872.274719,1648
872.391968,1613
872.509155,1612
872.626465,1601
872.743652,1632
872.860962,1601
872.978149,1634
873.095337,1583
873.212646,1576
873.329834,1559
873.44696,1595
873.564209,1617
873.681396,1589
873.798645,1594
873.915894,1546
874.03302,1597
874.150208,1637
874.267456,1624
874.384583,1617
874.501831,1643
874.618958,1649
874.736145,1679
874.853333,1676
874.970459,1653
875.087646,1657
875.204834,1647
875.32196,1582
875.439148,1637
875.556274,1628
875.673401,1622
875.790527,1636
875.907715,1593
876.024841,1583
876.141968,1535
876.259094,1563
876.376282,1535
876.493347,1572
876.610474,1543
876.7276,1591
876.844727,1551
876.961853,1550
877.078918,1510
877.195984,1570
877.313171,1582
877.430237,1532
877.547302,1531
877.664368,1565
877.781433,1540
877.898499,1569
878.015625,1538
878.13269,1545
878.249695,1552
878.366821,1486
878.483887,1508
878.600952,1510
878.717957,1507
878.834961,1544
878.952087,1501
879.069092,1464
879.186157,1518
879.303162,1500
879.420227,1541
879.537231,1500
879.654236,1453
879.77124,1462
879.888306,1489
880.005249,1453
880.122314,1462
880.239319,1486
880.356323,1495
880.473328,1498
880.590271,1434
880.707275,1497
880.824341,1478
880.941284,1458
881.058228,1526
881.175232,1498
881.292236,1475
881.40918,1472
881.526123,1454
881.643066,1468
881.760071,1451
881.877014,1485
881.993958,1469
882.11084,1506
882.227783,1465
882.344727,1473
882.46167,1475
882.578613,1465
882.695618,1508
882.812439,1478
882.929382,1484
883.046326,1484
883.163208,1490
883.280151,1494
883.397034,1496
883.513916,1489
883.630798,1461
883.747742,1527
883.864563,1495
883.981506,1525
884.098389,1546
884.21521,1561
884.332153,1553
884.448975,1563
884.565796,1632
884.682678,1620
884.7995,1629
884.916443,1707
885.033264,1706
885.150085,1815
885.266968,1833
885.383789,1877
885.500671,1902
885.617493,1857
885.734314,1865
885.851196,1850
885.967896,1830
886.084717,1845
886.201599,1803
886.318359,1831
886.435181,1778
886.552002,1765
886.668762,1777
886.785645,1753
886.902344,1755
887.019165,1752
887.135925,1747
887.252747,1645
887.369446,1714
887.486267,1652
887.603027,1612
887.719788,1635
887.836548,1594
887.953247,1554
888.070068,1526
888.186829,1527
888.303528,1520
888.420288,1538
888.536987,1521
888.653687,1479
888.770447,1541
888.887146,1453
889.003967,1520
889.120667,1509
889.237305,1514
889.354065,1446
889.470703,1512
889.587463,1470
889.704163,1440
889.820862,1430
889.937561,1476
890.054199,1442
890.170837,1501
890.287598,1488
890.404236,1492
890.520874,1430
890.637634,1482
890.754211,1440
890.87085,1510
890.987549,1477
891.104187,1483
891.220886,1503
891.337463,1516
891.454102,1511
891.57074,1485
891.687378,1531
891.804077,1515
891.920654,1511
892.037231,1494
892.15387,1491
892.270447,1517
892.387085,1488
892.503723,1463
892.6203,1487
892.736877,1457
892.853516,1455
892.970032,1478
893.08667,1458
893.203186,1495
893.319763,1492
893.43634,1484
893.552917,1478
893.669556,1445
893.786011,1477
893.902588,1489
894.019165,1491
894.135681,1489
894.252197,1455
894.368835,1502
894.485291,1457
894.601868,1452
894.718384,1453
894.8349,1479
894.951355,1481
895.067932,1475
895.184448,1436
895.300964,1496
895.417419,1484
895.533936,1501
895.650452,1460
895.766907,1423
895.883423,1495
895.999878,1478
896.116333,1498
896.232849,1481
896.349304,1484
896.465759,1468
896.582214,1447
896.698669,1475
896.815125,1482
896.931641,1472
897.048035,1513
897.164551,1484
897.280884,1503
897.397339,1509
897.513794,1482
897.630249,1494
897.746582,1507
897.863098,1483
897.979431,1497
898.095886,1510
898.212341,1469
898.328674,1483
898.445129,1507
898.561462,1477
898.677795,1508
898.794312,1520
898.910645,1482
899.026978,1481
899.143433,1507
899.259766,1528
899.37616,1487
899.492493,1486
899.608765,1485
899.725159,1512
899.841553,1501
899.957947,1527
900.07428,1523
900.190552,1476
900.306946,1526
900.423157,1513
900.53949,1517
900.655884,1518
900.772156,1500
900.888489,1513
901.004822,1508
901.121033,1515
901.237366,1504
901.353699,1517
901.46991,1501
901.586304,1569
901.702515,1500
901.818787,1569
901.93512,1595
902.051331,1632
902.167603,1572
902.283875,1644
902.400085,1631
902.516418,1660
902.632629,1688
902.74884,1731
902.865112,1724
902.981384,1702
903.097595,1722
903.213867,1711
903.330017,1680
903.446289,1650
903.5625,1710
903.67865,1666
903.794922,1660
903.911072,1649
904.027344,1648
904.143494,1610
904.259705,1580
904.375916,1581
904.492065,1566
904.608215,1567
904.724426,1543
904.840576,1553
904.956726,1583
905.072876,1535
905.189087,1558
905.305176,1530
905.421387,1535
905.537537,1528
905.653687,1514
905.769775,1525
905.885925,1486
906.002014,1515
906.118164,1515
906.234314,1476
906.350403,1508
906.466492,1503
906.582642,1475
906.69873,1505
906.814758,1544
906.930908,1479
907.046936,1463
907.163086,1513
907.279175,1459
907.395264,1491
907.511353,1495
907.62738,1427
907.743408,1498
907.859497,1492
907.975525,1496
908.091553,1500
908.207703,1528
908.32373,1511
908.439758,1508
908.555786,1492
908.671814,1510
908.787842,1454
908.90387,1492
909.019775,1519
909.135864,1536
909.251892,1505
909.367859,1487
909.483826,1479
909.599854,1512
909.715881,1481
909.831848,1491
909.947815,1493
910.063782,1513
910.179749,1543
910.295776,1539
910.411743,1537
910.527649,1498
910.643616,1535
910.759583,1481
910.875488,1528
910.991455,1513
911.107361,1531
911.223267,1493
911.339294,1509
911.4552,1526
911.571106,1485
911.687073,1518
911.802979,1497
911.918823,1449
912.034729,1498
912.150635,1518
912.266602,1517
912.382446,1505
912.498352,1465
912.614197,1526
912.730103,1507
912.846008,1465
792.44574,3525
792.56488,3422
792.68396,3404
792.80304,3243
792.92218,3256
793.041199,3071
793.160339,3096
793.279419,3004
793.398499,3037
793.517578,2995
793.636658,2957
793.755737,2890
793.874817,2888
793.993896,2801
794.112976,2764
794.232056,2737
794.351074,2702
794.470215,2646
794.589233,2648
794.708313,2597
794.827393,2561
794.946411,2590
795.065552,2513
795.18457,2505
795.303589,2545
795.422668,2438
795.541687,2483
795.660767,2481
795.779846,2418
795.898865,2349
796.017883,2358
796.136963,2320
796.255981,2326
796.375061,2319
796.49408,2320
796.613037,2337
796.732117,2266
796.851135,2262
796.970154,2257
797.089233,2203
797.208191,2196
797.327271,2187
797.446228,2209
797.565186,2232
797.684265,2185
797.803223,2162
797.922241,2164
798.04126,2160
798.160278,2145
798.279297,2124
798.398315,2115
798.517273,2141
798.636292,2128
798.75531,2096
798.874268,2104
798.993286,2149
799.112244,2088
799.231323,2091
799.350281,2086
799.469238,2085
799.588257,2107
799.707153,2056
799.826111,2044
799.945129,2058
800.064087,2044
800.183044,2070
800.302063,2092
800.421021,2064
800.539978,2017
800.658936,2014
800.777893,2070
800.896912,2067
801.015747,2059
801.134705,2011
801.253723,2027
801.37262,2018
801.491638,1974
801.610535,2054
801.729492,1986
801.84845,1958
801.967407,2032
802.086243,1998
802.205261,2042
802.324158,1969
802.443115,1966
802.562073,2030
802.680969,1948
802.799927,1945
802.918762,2006
803.037659,1941
803.156677,1939
803.275574,1975
803.39447,1959
803.513428,1956
803.632263,1970
803.751221,1970
803.870117,1983
803.989014,1956
804.107971,1962
804.226746,1970
804.345642,1961
804.4646,1950
804.583496,1986
804.702393,1929
804.821228,1898
804.940125,1963
805.059021,2008
805.177917,1916
805.296814,1942
805.415649,1971
805.534546,1908
805.653442,1830
805.772278,1950
805.891113,1963
806.01001,1957
806.128906,1955
806.247742,1961
806.366577,1972
806.485413,1968
806.604309,1983
806.723145,1942
806.84198,1955
806.960876,1965
807.079712,1917
807.198486,1936
807.317383,1886
807.436218,1912
807.554993,1908
807.673889,1968
807.792725,1937
807.91156,1940
808.030396,1974
808.14917,1879
808.268005,1932
808.386841,1891
808.505676,1936
808.624451,1950
808.743286,1908
808.862122,1957
808.980896,1922
809.099731,1967
809.218506,1945
809.337341,1921
809.456116,1938
809.57489,1966
809.693726,1977
809.8125,1938
809.931274,1939
810.050049,1951
810.168884,1949
810.287659,1953
810.406372,1935
810.525269,1965
810.643982,1946
810.762756,1991
810.881531,1957
811.000305,1956
811.11908,1968
811.237854,1956
811.356567,1929
811.475403,1946
811.594116,1973
811.71283,1947
811.831604,1954
811.950378,2011
812.069153,1927
812.187927,1997
812.30658,1935
812.425415,1959
812.544128,1970
812.662781,1942
812.781616,1939
812.900269,1912
813.019043,1926
813.137756,1963
813.256531,1960
813.375244,1917
813.493896,1958
813.612671,1918
813.731384,1890
813.850037,1881
813.96875,1895
814.087524,1899
814.206238,1858
814.324951,1929
814.443604,1880
814.562256,1924
814.68103,1904
814.799683,1855
814.918335,1911
815.037109,1891
815.155762,1889
815.274475,1915
815.393188,1892
815.511841,1909
815.630554,1863
815.749146,1854
815.867859,1817
815.986572,1818
816.105164,1844
816.223877,1875
816.342529,1807
816.461182,1904
816.579895,1844
816.698486,1872
816.817139,1901
816.935791,1904
817.054504,1932
817.173096,1871
817.291748,1875
817.4104,1836
817.529053,1838
817.647644,1822
817.766235,1746
817.884949,1761
818.00354,1745
818.122192,1744
818.240845,1776
818.359436,1707
818.478088,1729
818.59668,1669
818.715271,1701
818.833923,1689
818.952515,1650
819.071106,1634
819.189758,1651
819.30835,1687
819.426941,1630
819.545532,1595
819.664124,1608
819.782715,1600
819.901306,1597
820.019897,1569
820.138489,1598
820.25708,1622
820.375671,1589
820.494202,1606
820.612732,1613
820.731384,1617
820.849915,1616
820.968506,1584
821.087097,1596
821.205627,1599
821.324158,1568
821.442749,1579
821.561279,1536
821.679871,1547
821.798401,1537
821.916931,1524
822.035461,1581
822.154053,1540
822.272583,1538
822.391174,1554
822.509583,1555
822.628174,1503
822.746704,1553
822.865234,1455
822.983765,1502
823.102295,1519
823.220825,1487
823.339294,1560
823.457825,1517
823.576355,1512
823.694824,1470
823.813354,1580
823.931885,1488
824.050354,1570
824.168884,1538
824.287354,1561
824.405823,1498
824.524353,1559
824.642822,1530
824.761353,1554
824.879822,1573
824.998291,1547
825.116699,1540
825.235291,1527
825.353699,1534
825.472168,1504
825.590637,1502
825.709106,1469
825.827576,1487
825.946045,1484
826.064453,1517
826.182983,1479
826.301392,1526
826.4198,1452
826.53833,1495
826.656738,1470
826.775208,1440
826.893677,1510
827.012024,1472
827.130493,1493
827.248962,1493
827.36731,1455
827.485779,1454
827.604248,1490
827.722595,1421
827.841064,1438
827.959412,1400
828.077942,1471
828.196289,1431
828.314636,1459
828.433105,1448
828.551514,1448
828.669861,1425
828.78833,1454
828.906677,1392
829.025085,1476
829.143433,1440
829.261841,1416
829.38031,1428
829.498657,1416
829.617004,1436
829.735413,1420
829.85376,1423
829.972107,1432
830.090515,1408
830.208862,1461
830.327209,1439
830.445557,1443
830.563904,1453
830.682312,1428
830.800659,1467
830.919006,1455
831.037354,1493
831.155701,1478
831.274048,1436
831.392395,1532
831.51062,1450
831.629028,1474
831.747314,1443
831.865662,1493
831.984009,1424
832.102356,1519
832.220642,1462
832.338928,1467
832.457275,1480
832.575623,1516
832.693909,1467
832.812134,1463
832.930481,1469
833.048828,1496
833.167114,1419
833.2854,1465
833.403687,1462
833.521973,1471
833.640259,1459
833.758545,1438
833.876831,1488
833.995056,1441
834.113281,1493
834.231628,1436
834.349915,1443
834.468201,1447
834.586426,1469
834.704651,1478
834.822998,1445
834.941162,1499
835.059448,1477
835.177673,1457
835.295959,1484
835.414246,1473
835.53241,1432
835.650635,1444
835.768921,1449
835.887146,1500
836.005371,1433
836.123596,1487
836.241821,1453
836.360046,1453
836.478271,1436
836.596497,1499
836.714722,1453
836.832886,1480
836.95105,1506
837.069336,1509
837.1875,1448
837.305725,1449
837.423889,1451
837.542053,1530
837.660339,1518
837.778503,1497
837.896667,1504
838.014832,1498
838.132996,1510
838.25116,1511
838.369385,1497
838.487488,1472
838.605713,1522
838.723877,1490
838.84198,1518
838.960205,1477
839.078308,1502
839.196472,1461
839.314636,1513
839.4328,1526
839.550964,1531
839.669067,1523
839.787231,1516
839.905396,1504
840.023499,1530
840.141602,1523
840.259766,1540
840.377869,1567
840.495972,1566
840.614136,1544
840.732239,1532
840.850342,1520
840.968445,1531
841.086548,1561
841.204651,1568
841.322754,1554
841.440918,1532
841.55896,1567
841.677002,1548
841.795166,1570
841.913208,1575
842.031311,1545
842.149353,1521
842.267456,1561
842.385498,1523
842.503601,1587
842.621643,1575
842.739746,1563
842.857788,1562
842.97583,1539
843.093933,1592
843.211975,1565
843.330017,1540
843.44812,1595
843.566101,1549
843.684204,1616
843.802246,1590
843.920227,1604
844.038269,1591
844.156311,1547
844.274292,1536
844.392395,1545
844.510376,1620
844.628357,1558
844.74646,1547
844.864441,1517
844.982422,1529
845.100403,1541
845.218384,1535
845.336426,1535
845.454468,1512
845.572449,1533
845.69043,1525
845.808411,1510
845.926453,1512
846.044373,1522
846.162354,1533
846.280396,1517
846.398315,1534
846.516296,1494
846.634216,1504
846.752197,1519
846.870178,1547
846.988098,1587
847.106079,1495
847.22406,1547
847.34198,1544
847.4599,1534
847.577881,1536
847.695801,1575
847.813782,1510
847.931641,1569
848.049561,1541
848.167603,1539
848.285461,1556
848.403381,1552
848.521362,1518
848.639221,1558
848.75708,1542
848.875,1595
848.99292,1541
849.110901,1602
849.22876,1611
849.34668,1614
849.464539,1550
849.582458,1586
849.700317,1604
849.818176,1645
849.936096,1570
850.053955,1626
850.171875,1600
850.289673,1595
850.407593,1606
850.525452,1619
850.643311,1636
850.761169,1574
850.878967,1620
850.996887,1621
851.114746,1601
851.232544,1561
851.350403,1628
851.468262,1552
851.58606,1582
851.703979,1575
851.821777,1556
851.939636,1553
852.057434,1581
852.175232,1560
852.293091,1602
852.410889,1570
852.528687,1581
852.646545,1612
852.764343,1595
852.88208,1645
852.999939,1589
853.117676,1602
853.235535,1596
853.353271,1566
853.471069,1522
853.588928,1547
853.706604,1522
853.824402,1513
853.9422,1525
854.059998,1560
854.177734,1548
854.295532,1577
854.413269,1551
854.531006,1549
854.648804,1538
854.766541,1580
854.884277,1523
855.002014,1572
855.119751,1534
855.237549,1528
855.355225,1524
855.473022,1546
855.590698,1532
855.708435,1597
855.826172,1488
855.943848,1535
856.061646,1521
856.179321,1551
856.296997,1528
856.414795,1557
856.53241,1571
856.650085,1581
856.767822,1592
856.885559,1611
857.003174,1619
857.120911,1615
857.238586,1639
857.356201,1590
857.473938,1603
857.591614,1618
857.709351,1594
857.826965,1635
857.944641,1596
858.062317,1572
858.179993,1620
858.297668,1620
858.415283,1589
858.532959,1642
858.650574,1618
858.768188,1585
858.885803,1594
859.003479,1583
859.121094,1574
859.23877,1556
859.356384,1543
859.473999,1556
859.591675,1578
859.709229,1532
859.826843,1555
859.944458,1525
860.062012,1485
860.179626,1531
860.297302,1537
860.414856,1538
860.532471,1532
860.650024,1504
860.767639,1532
860.885193,1556
861.002808,1546
861.120361,1552
861.237976,1487
861.35553,1547
861.473022,1543
861.590698,1496
861.708191,1515
861.825745,1542
861.943298,1526
862.060852,1532
862.178406,1550
862.295959,1584
862.413513,1505
862.531006,1470
862.64856,1508
862.766113,1555
862.883667,1462
863.00116,1508
863.118713,1496
863.236206,1490
863.353699,1462
863.471252,1535
863.588745,1525
863.706177,1530
863.82373,1532
863.941162,1510
864.058716,1497
864.176208,1500
864.29364,1570
864.411194,1477
864.528687,1486
864.646118,1501
864.763611,1485
864.881042,1490
864.998535,1444
865.116028,1510
865.233459,1493
865.350891,1466
865.468384,1514
865.585754,1471
865.703308,1507
865.820679,1519
865.938171,1527
866.055542,1464
866.173035,1478
866.290466,1458
866.407837,1482
866.52533,1484
866.6427,1530
866.760071,1478
866.877563,1487
866.994934,1479
867.112305,1543
867.229736,1468
867.347107,1458
867.464539,1506
867.58197,1537
867.699341,1486
867.81665,1484
867.934082,1479
868.051453,1510
868.168823,1546
868.286194,1512
868.403564,1513
868.520935,1491
868.638306,1548
868.755676,1489
868.872986,1495
868.990295,1462
869.107727,1491
869.225037,1555
869.342346,1570
869.459717,1539
869.577026,1554
869.694336,1579
869.811707,1540
869.929016,1530
870.046326,1535
870.163635,1542
870.280945,1538
870.398254,1548
870.515564,1574
870.632812,1584
870.750183,1577
870.867432,1589
870.984741,1543
871.102051,1606
871.219299,1580
871.336609,1651
871.453918,1656
871.571106,1649
871.688416,1645
871.805664,1612
871.922852,1666
872.040222,1676
872.157471,1652
872.274719,1668
872.391968,1669
872.509155,1576
872.626465,1686
872.743652,1637
872.860962,1645
872.978149,1590
873.095337,1625
873.212646,1620
873.329834,1585
873.44696,1579
873.564209,1623
873.681396,1597
873.798645,1602
873.915894,1599
874.03302,1606
874.150208,1657
874.267456,1624
874.384583,1648
874.501831,1670
874.618958,1662
874.736145,1651
874.853333,1695
874.970459,1703
875.087646,1671
875.204834,1679
875.32196,1666
875.439148,1616
875.556274,1617
875.673401,1643
875.790527,1606
875.907715,1608
876.024841,1547
876.141968,1592
876.259094,1591
876.376282,1580
876.493347,1567
876.610474,1531
876.7276,1591
876.844727,1523
876.961853,1536
877.078918,1585
877.195984,1590
877.313171,1549
877.430237,1575
877.547302,1556
877.664368,1586
877.781433,1549
877.898499,1507
878.015625,1540
878.13269,1593
878.249695,1525
878.366821,1562
878.483887,1527
878.600952,1502
878.717957,1537
878.834961,1527
878.952087,1549
879.069092,1541
879.186157,1511
879.303162,1487
879.420227,1543
879.537231,1471
879.654236,1533
879.77124,1495
879.888306,1499
880.005249,1513
880.122314,1517
880.239319,1536
880.356323,1494
880.473328,1502
880.590271,1528
880.707275,1474
880.824341,1514
880.941284,1510
881.058228,1490
881.175232,1492
881.292236,1488
881.40918,1471
881.526123,1480
881.643066,1472
881.760071,1510
881.877014,1469
881.993958,1527
882.11084,1509
882.227783,1481
882.344727,1469
882.46167,1509
882.578613,1498
882.695618,1480
882.812439,1489
882.929382,1502
883.046326,1514
883.163208,1492
883.280151,1499
883.397034,1482
883.513916,1532
883.630798,1523
883.747742,1549
883.864563,1515
883.981506,1530
884.098389,1512
884.21521,1587
884.332153,1595
884.448975,1563
884.565796,1643
884.682678,1603
884.7995,1693
884.916443,1711
885.033264,1793
885.150085,1816
885.266968,1870
885.383789,1881
885.500671,1911
885.617493,1899
885.734314,1905
885.851196,1895
885.967896,1858
886.084717,1790
886.201599,1843
886.318359,1815
886.435181,1851
886.552002,1775
886.668762,1726
886.785645,1783
886.902344,1766
887.019165,1709
887.135925,1716
887.252747,1664
887.369446,1699
887.486267,1668
887.603027,1671
887.719788,1678
887.836548,1585
887.953247,1591
888.070068,1588
888.186829,1556
888.303528,1549
888.420288,1528
888.536987,1507
888.653687,1496
888.770447,1505
888.887146,1524
889.003967,1494
889.120667,1476
889.237305,1505
889.354065,1509
889.470703,1468
889.587463,1448
889.704163,1506
889.820862,1472
889.937561,1457
890.054199,1473
890.170837,1487
890.287598,1473
890.404236,1483
890.520874,1468
890.637634,1505
890.754211,1480
890.87085,1448
890.987549,1508
891.104187,1468
891.220886,1491
891.337463,1474
891.454102,1525
891.57074,1509
891.687378,1494
891.804077,1551
891.920654,1450
892.037231,1493
892.15387,1557
892.270447,1510
892.387085,1477
892.503723,1485
892.6203,1488
892.736877,1519
892.853516,1504
892.970032,1472
893.08667,1510
893.203186,1514
893.319763,1482
893.43634,1521
893.552917,1463
893.669556,1511
893.786011,1487
893.902588,1475
894.019165,1489
894.135681,1456
894.252197,1471
894.368835,1537
894.485291,1471
894.601868,1520
894.718384,1498
894.8349,1516
894.951355,1470
895.067932,1505
895.184448,1462
895.300964,1478
895.417419,1493
895.533936,1498
895.650452,1459
895.766907,1484
895.883423,1442
895.999878,1489
896.116333,1472
896.232849,1443
896.349304,1515
896.465759,1447
896.582214,1491
896.698669,1480
896.815125,1475
896.931641,1509
897.048035,1477
897.164551,1493
897.280884,1482
897.397339,1494
897.513794,1515
897.630249,1511
897.746582,1485
897.863098,1514
897.979431,1485
898.095886,1537
898.212341,1501
898.328674,1491
898.445129,1461
898.561462,1488
898.677795,1484
898.794312,1527
898.910645,1537
899.026978,1505
899.143433,1516
899.259766,1494
899.37616,1536
899.492493,1517
899.608765,1514
899.725159,1506
899.841553,1520
899.957947,1537
900.07428,1506
900.190552,1533
900.306946,1519
900.423157,1536
900.53949,1514
900.655884,1537
900.772156,1499
900.888489,1524
901.004822,1552
901.121033,1553
901.237366,1511
901.353699,1536
901.46991,1506
901.586304,1536
901.702515,1571
901.818787,1602
901.93512,1602
902.051331,1585
902.167603,1598
902.283875,1666
902.400085,1655
902.516418,1664
902.632629,1722
902.74884,1761
902.865112,1723
902.981384,1679
903.097595,1726
903.213867,1699
903.330017,1716
903.446289,1694
903.5625,1639
903.67865,1656
903.794922,1682
903.911072,1668
904.027344,1612
904.143494,1629
904.259705,1614
904.375916,1560
904.492065,1567
904.608215,1582
904.724426,1559
904.840576,1548
904.956726,1543
905.072876,1612
905.189087,1554
905.305176,1566
905.421387,1544
905.537537,1587
905.653687,1463
905.769775,1562
905.885925,1523
906.002014,1522
906.118164,1509
906.234314,1480
906.350403,1508
906.466492,1549
906.582642,1485
906.69873,1491
906.814758,1505
906.930908,1498
907.046936,1496
907.163086,1499
907.279175,1529
907.395264,1493
907.511353,1556
907.62738,1503
907.743408,1524
907.859497,1498
907.975525,1488
908.091553,1516
908.207703,1470
908.32373,1515
908.439758,1508
908.555786,1525
908.671814,1508
908.787842,1484
908.90387,1488
909.019775,1548
909.135864,1478
909.251892,1530
909.367859,1514
909.483826,1567
909.599854,1521
909.715881,1549
909.831848,1516
909.947815,1548
910.063782,1509
910.179749,1532
910.295776,1511
910.411743,1500
910.527649,1505
910.643616,1530
910.759583,1530
910.875488,1531
910.991455,1525
911.107361,1524
911.223267,1517
911.339294,1501
911.4552,1520
911.571106,1541
911.687073,1488
911.802979,1514
911.918823,1461
912.034729,1522
912.150635,1512
912.266602,1527
912.382446,1527
912.498352,1519
912.614197,1499
912.730103,1533
912.846008,1524
