792.44574,1642
792.56488,1634
792.68396,1661
792.80304,1623
792.92218,1610
793.041199,1581
793.160339,1583
793.279419,1619
793.398499,1569
793.517578,1583
793.636658,1579
793.755737,1555
793.874817,1543
793.993896,1540
794.112976,1579
794.232056,1525
794.351074,1562
794.470215,1542
794.589233,1571
794.708313,1528
794.827393,1516
794.946411,1498
795.065552,1515
795.18457,1534
795.303589,1504
795.422668,1506
795.541687,1517
795.660767,1515
795.779846,1477
795.898865,1525
796.017883,1513
796.136963,1485
796.255981,1497
796.375061,1520
796.49408,1474
796.613037,1501
796.732117,1478
796.851135,1505
796.970154,1462
797.089233,1467
797.208191,1531
797.327271,1500
797.446228,1503
797.565186,1452
797.684265,1499
797.803223,1458
797.922241,1457
798.04126,1477
798.160278,1514
798.279297,1439
798.398315,1456
798.517273,1437
798.636292,1464
798.75531,1463
798.874268,1454
798.993286,1466
799.112244,1464
799.231323,1436
799.350281,1468
799.469238,1409
799.588257,1469
799.707153,1481
799.826111,1454
799.945129,1464
800.064087,1467
800.183044,1432
800.302063,1446
800.421021,1478
800.539978,1434
800.658936,1461
800.777893,1419
800.896912,1453
801.015747,1452
801.134705,1447
801.253723,1449
801.37262,1462
801.491638,1479
801.610535,1502
801.729492,1396
801.84845,1484
801.967407,1435
802.086243,1412
802.205261,1453
802.324158,1471
802.443115,1435
802.562073,1446
802.680969,1419
802.799927,1451
802.918762,1412
803.037659,1441
803.156677,1454
803.275574,1429
803.39447,1474
803.513428,1465
803.632263,1438
803.751221,1460
803.870117,1426
803.989014,1427
804.107971,1418
804.226746,1463
804.345642,1432
804.4646,1463
804.583496,1487
804.702393,1491
804.821228,1430
804.940125,1426
805.059021,1452
805.177917,1452
805.296814,1446
805.415649,1432
805.534546,1444
805.653442,1429
805.772278,1390
805.891113,1481
806.01001,1446
806.128906,1416
806.247742,1459
806.366577,1420
806.485413,1421
806.604309,1435
806.723145,1419
806.84198,1459
806.960876,1416
807.079712,1426
807.198486,1470
807.317383,1430
807.436218,1415
807.554993,1432
807.673889,1422
807.792725,1402
807.91156,1455
808.030396,1403
808.14917,1441
808.268005,1431
808.386841,1457
808.505676,1435
808.624451,1401
808.743286,1411
808.862122,1429
808.980896,1427
809.099731,1398
809.218506,1416
809.337341,1413
809.456116,1439
809.57489,1441
809.693726,1382
809.8125,1448
809.931274,1406
810.050049,1427
810.168884,1420
810.287659,1440
810.406372,1380
810.525269,1456
810.643982,1421
810.762756,1446
810.881531,1400
811.000305,1438
811.11908,1454
811.237854,1397
811.356567,1424
811.475403,1421
811.594116,1409
811.71283,1443
811.831604,1394
811.950378,1460
812.069153,1413
812.187927,1419
812.30658,1426
812.425415,1430
812.544128,1371
812.662781,1406
812.781616,1410
812.900269,1410
813.019043,1420
813.137756,1403
813.256531,1454
813.375244,1404
813.493896,1460
813.612671,1446
813.731384,1411
813.850037,1462
813.96875,1397
814.087524,1435
814.206238,1418
814.324951,1399
814.443604,1412
814.562256,1414
814.68103,1390
814.799683,1407
814.918335,1410
815.037109,1395
815.155762,1358
815.274475,1425
815.393188,1409
815.511841,1398
815.630554,1425
815.749146,1395
815.867859,1353
815.986572,1364
816.105164,1435
816.223877,1379
816.342529,1413
816.461182,1385
816.579895,1385
816.698486,1394
816.817139,1411
816.935791,1406
817.054504,1419
817.173096,1390
817.291748,1390
817.4104,1396
817.529053,1395
817.647644,1391
817.766235,1382
817.884949,1368
818.00354,1388
818.122192,1341
818.240845,1409
818.359436,1366
818.478088,1385
818.59668,1327
818.715271,1372
818.833923,1331
818.952515,1340
819.071106,1362
819.189758,1371
819.30835,1355
819.426941,1304
819.545532,1334
819.664124,1379
819.782715,1353
819.901306,1320
820.019897,1327
820.138489,1329
820.25708,1328
820.375671,1333
820.494202,1376
820.612732,1327
820.731384,1322
820.849915,1350
820.968506,1311
821.087097,1330
821.205627,1327
821.324158,1358
821.442749,1369
821.561279,1320
821.679871,1318
821.798401,1339
821.916931,1323
822.035461,1337
822.154053,1350
822.272583,1313
822.391174,1343
822.509583,1328
822.628174,1306
822.746704,1301
822.865234,1278
822.983765,1399
823.102295,1334
823.220825,1309
823.339294,1289
823.457825,1317
823.576355,1278
823.694824,1290
823.813354,1289
823.931885,1323
824.050354,1306
824.168884,1308
824.287354,1256
824.405823,1304
824.524353,1295
824.642822,1309
824.761353,1351
824.879822,1288
824.998291,1312
825.116699,1290
825.235291,1320
825.353699,1335
825.472168,1280
825.590637,1303
825.709106,1325
825.827576,1284
825.946045,1330
826.064453,1328
826.182983,1329
826.301392,1295
826.4198,1301
826.53833,1338
826.656738,1323
826.775208,1293
826.893677,1272
827.012024,1308
827.130493,1308
827.248962,1285
827.36731,1321
827.485779,1290
827.604248,1279
827.722595,1307
827.841064,1293
827.959412,1276
828.077942,1299
828.196289,1265
828.314636,1263
828.433105,1304
828.551514,1304
828.669861,1300
828.78833,1309
828.906677,1283
829.025085,1258
829.143433,1277
829.261841,1271
829.38031,1299
829.498657,1258
829.617004,1307
829.735413,1306
829.85376,1280
829.972107,1308
830.090515,1292
830.208862,1308
830.327209,1289
830.445557,1292
830.563904,1274
830.682312,1267
830.800659,1298
830.919006,1294
831.037354,1279
831.155701,1299
831.274048,1272
831.392395,1268
831.51062,1334
831.629028,1309
831.747314,1262
831.865662,1305
831.984009,1291
832.102356,1350
832.220642,1301
832.338928,1307
832.457275,1291
832.575623,1282
832.693909,1278
832.812134,1319
832.930481,1306
833.048828,1283
833.167114,1243
833.2854,1271
833.403687,1286
833.521973,1290
833.640259,1279
833.758545,1316
833.876831,1240
833.995056,1286
834.113281,1323
834.231628,1264
834.349915,1292
834.468201,1288
834.586426,1284
834.704651,1260
834.822998,1296
834.941162,1304
835.059448,1283
835.177673,1265
835.295959,1287
835.414246,1245
835.53241,1251
835.650635,1287
835.768921,1228
835.887146,1289
836.005371,1282
836.123596,1242
836.241821,1287
836.360046,1266
836.478271,1262
836.596497,1248
836.714722,1301
836.832886,1231
836.95105,1254
837.069336,1251
837.1875,1278
837.305725,1280
837.423889,1299
837.542053,1266
837.660339,1305
837.778503,1320
837.896667,1242
838.014832,1309
838.132996,1257
838.25116,1274
838.369385,1278
838.487488,1312
838.605713,1284
838.723877,1311
838.84198,1278
838.960205,1293
839.078308,1283
839.196472,1222
839.314636,1260
839.4328,1285
839.550964,1253
839.669067,1322
839.787231,1268
839.905396,1264
840.023499,1288
840.141602,1307
840.259766,1301
840.377869,1289
840.495972,1259
840.614136,1305
840.732239,1291
840.850342,1265
840.968445,1307
841.086548,1285
841.204651,1258
841.322754,1306
841.440918,1278
841.55896,1288
841.677002,1244
841.795166,1251
841.913208,1277
842.031311,1288
842.149353,1288
842.267456,1269
842.385498,1266
842.503601,1288
842.621643,1290
842.739746,1287
842.857788,1249
842.97583,1284
843.093933,1243
843.211975,1308
843.330017,1254
843.44812,1274
843.566101,1294
843.684204,1320
843.802246,1294
843.920227,1258
844.038269,1317
844.156311,1286
844.274292,1272
844.392395,1274
844.510376,1265
844.628357,1293
844.74646,1264
844.864441,1252
844.982422,1292
845.100403,1268
845.218384,1278
845.336426,1244
845.454468,1267
845.572449,1254
845.69043,1278
845.808411,1274
845.926453,1284
846.044373,1271
846.162354,1300
846.280396,1287
846.398315,1256
846.516296,1265
846.634216,1271
846.752197,1257
846.870178,1279
846.988098,1267
847.106079,1240
847.22406,1285
847.34198,1308
847.4599,1234
847.577881,1256
847.695801,1272
847.813782,1253
847.931641,1327
848.049561,1248
848.167603,1266
848.285461,1259
848.403381,1275
848.521362,1268
848.639221,1269
848.75708,1283
848.875,1280
848.99292,1319
849.110901,1305
849.22876,1247
849.34668,1280
849.464539,1305
849.582458,1314
849.700317,1279
849.818176,1281
849.936096,1275
850.053955,1330
850.171875,1266
850.289673,1261
850.407593,1289
850.525452,1280
850.643311,1256
850.761169,1317
850.878967,1288
850.996887,1280
851.114746,1274
851.232544,1274
851.350403,1267
851.468262,1272
851.58606,1257
851.703979,1271
851.821777,1261
851.939636,1307
852.057434,1303
852.175232,1266
852.293091,1276
852.410889,1252
852.528687,1316
852.646545,1281
852.764343,1281
852.88208,1318
852.999939,1255
853.117676,1289
853.235535,1284
853.353271,1270
853.471069,1293
853.588928,1256
853.706604,1288
853.824402,1266
853.9422,1290
854.059998,1263
854.177734,1286
854.295532,1296
854.413269,1239
854.531006,1291
854.648804,1251
854.766541,1292
854.884277,1296
855.002014,1311
855.119751,1271
855.237549,1251
855.355225,1262
855.473022,1270
855.590698,1297
855.708435,1290
855.826172,1255
855.943848,1255
856.061646,1310
856.179321,1280
856.296997,1248
856.414795,1274
856.53241,1249
856.650085,1256
856.767822,1287
856.885559,1284
857.003174,1258
857.120911,1287
857.238586,1272
857.356201,1278
857.473938,1259
857.591614,1285
857.709351,1266
857.826965,1253
857.944641,1285
858.062317,1261
858.179993,1268
858.297668,1296
858.415283,1285
858.532959,1284
858.650574,1282
858.768188,1257
858.885803,1279
859.003479,1224
859.121094,1280
859.23877,1279
859.356384,1270
859.473999,1267
859.591675,1313
859.709229,1282
859.826843,1257
859.944458,1264
860.062012,1334
860.179626,1253
860.297302,1330
860.414856,1287
860.532471,1283
860.650024,1283
860.767639,1261
860.885193,1277
861.002808,1281
861.120361,1266
861.237976,1282
861.35553,1300
861.473022,1278
861.590698,1260
861.708191,1247
861.825745,1276
861.943298,1250
862.060852,1275
862.178406,1267
862.295959,1272
862.413513,1262
862.531006,1277
862.64856,1271
862.766113,1249
862.883667,1269
863.00116,1225
863.118713,1312
863.236206,1275
863.353699,1266
863.471252,1255
863.588745,1291
863.706177,1289
863.82373,1289
863.941162,1258
864.058716,1309
864.176208,1290
864.29364,1316
864.411194,1299
864.528687,1301
864.646118,1276
864.763611,1251
864.881042,1268
864.998535,1296
865.116028,1326
865.233459,1286
865.350891,1232
865.468384,1309
865.585754,1269
865.703308,1278
865.820679,1286
865.938171,1263
866.055542,1283
866.173035,1312
866.290466,1250
866.407837,1269
866.52533,1270
866.6427,1291
866.760071,1282
866.877563,1277
866.994934,1310
867.112305,1291
867.229736,1295
867.347107,1296
867.464539,1291
867.58197,1290
867.699341,1268
867.81665,1304
867.934082,1276
868.051453,1304
868.168823,1287
868.286194,1265
868.403564,1305
868.520935,1330
868.638306,1292
868.755676,1315
868.872986,1324
868.990295,1303
869.107727,1290
869.225037,1248
869.342346,1306
869.459717,1265
869.577026,1291
869.694336,1286
869.811707,1307
869.929016,1275
870.046326,1294
870.163635,1262
870.280945,1301
870.398254,1261
870.515564,1304
870.632812,1338
870.750183,1278
870.867432,1291
870.984741,1317
871.102051,1298
871.219299,1300
871.336609,1284
871.453918,1308
871.571106,1295
871.688416,1322
871.805664,1297
871.922852,1296
872.040222,1303
872.157471,1293
872.274719,1282
872.391968,1280
872.509155,1308
872.626465,1244
872.743652,1306
872.860962,1304
872.978149,1266
873.095337,1291
873.212646,1311
873.329834,1300
873.44696,1311
873.564209,1307
873.681396,1279
873.798645,1323
873.915894,1281
874.03302,1281
874.150208,1294
874.267456,1308
874.384583,1308
874.501831,1285
874.618958,1294
874.736145,1307
874.853333,1336
874.970459,1322
875.087646,1321
875.204834,1323
875.32196,1310
875.439148,1298
875.556274,1284
875.673401,1274
875.790527,1313
875.907715,1261
876.024841,1310
876.141968,1310
876.259094,1309
876.376282,1350
876.493347,1309
876.610474,1276
876.7276,1262
876.844727,1284
876.961853,1308
877.078918,1307
877.195984,1302
877.313171,1317
877.430237,1329
877.547302,1287
877.664368,1317
877.781433,1340
877.898499,1287
878.015625,1299
878.13269,1267
878.249695,1260
878.366821,1319
878.483887,1309
878.600952,1274
878.717957,1293
878.834961,1351
878.952087,1320
879.069092,1261
879.186157,1310
879.303162,1313
879.420227,1292
879.537231,1348
879.654236,1284
879.77124,1318
879.888306,1280
880.005249,1286
880.122314,1322
880.239319,1289
880.356323,1317
880.473328,1295
880.590271,1289
880.707275,1337
880.824341,1328
880.941284,1316
881.058228,1298
881.175232,1334
881.292236,1316
881.40918,1261
881.526123,1302
881.643066,1301
881.760071,1279
881.877014,1315
881.993958,1315
882.11084,1329
882.227783,1278
882.344727,1305
882.46167,1290
882.578613,1262
882.695618,1317
882.812439,1337
882.929382,1321
883.046326,1268
883.163208,1328
883.280151,1326
883.397034,1279
883.513916,1330
883.630798,1305
883.747742,1292
883.864563,1286
883.981506,1334
884.098389,1307
884.21521,1281
884.332153,1337
884.448975,1311
884.565796,1327
884.682678,1311
884.7995,1367
884.916443,1354
885.033264,1305
885.150085,1343
885.266968,1283
885.383789,1307
885.500671,1318
885.617493,1302
885.734314,1351
885.851196,1305
885.967896,1351
886.084717,1329
886.201599,1332
886.318359,1327
886.435181,1332
886.552002,1352
886.668762,1311
886.785645,1334
886.902344,1342
887.019165,1304
887.135925,1308
887.252747,1338
887.369446,1284
887.486267,1295
887.603027,1347
887.719788,1332
887.836548,1348
887.953247,1375
888.070068,1332
888.186829,1324
888.303528,1328
888.420288,1332
888.536987,1321
888.653687,1345
888.770447,1337
888.887146,1303
889.003967,1343
889.120667,1357
889.237305,1336
889.354065,1331
889.470703,1316
889.587463,1317
889.704163,1364
889.820862,1326
889.937561,1324
890.054199,1328
890.170837,1359
890.287598,1291
890.404236,1325
890.520874,1332
890.637634,1369
890.754211,1349
890.87085,1326
890.987549,1297
891.104187,1328
891.220886,1325
891.337463,1369
891.454102,1337
891.57074,1327
891.687378,1342
891.804077,1319
891.920654,1328
892.037231,1319
892.15387,1325
892.270447,1346
892.387085,1318
892.503723,1339
892.6203,1361
892.736877,1382
892.853516,1350
892.970032,1335
893.08667,1324
893.203186,1336
893.319763,1330
893.43634,1348
893.552917,1317
893.669556,1358
893.786011,1328
893.902588,1343
894.019165,1322
894.135681,1374
894.252197,1338
894.368835,1347
894.485291,1358
894.601868,1361
894.718384,1381
894.8349,1330
894.951355,1361
895.067932,1329
895.184448,1335
895.300964,1336
895.417419,1336
895.533936,1354
895.650452,1336
895.766907,1343
895.883423,1361
895.999878,1340
896.116333,1321
896.232849,1303
896.349304,1346
896.465759,1335
896.582214,1352
896.698669,1327
896.815125,1343
896.931641,1344
897.048035,1385
897.164551,1376
897.280884,1313
897.397339,1362
897.513794,1366
897.630249,1360
897.746582,1341
897.863098,1310
897.979431,1358
898.095886,1368
898.212341,1366
898.328674,1343
898.445129,1362
898.561462,1363
898.677795,1299
898.794312,1373
898.910645,1361
899.026978,1314
899.143433,1342
899.259766,1340
899.37616,1413
899.492493,1366
899.608765,1354
899.725159,1328
899.841553,1370
899.957947,1346
900.07428,1404
900.190552,1360
900.306946,1407
900.423157,1379
900.53949,1330
900.655884,1334
900.772156,1365
900.888489,1356
901.004822,1338
901.121033,1357
901.237366,1400
901.353699,1322
901.46991,1370
901.586304,1385
901.702515,1355
901.818787,1357
901.93512,1339
902.051331,1379
902.167603,1357
902.283875,1357
902.400085,1347
902.516418,1390
902.632629,1365
902.74884,1383
902.865112,1427
902.981384,1352
903.097595,1392
903.213867,1416
903.330017,1368
903.446289,1389
903.5625,1349
903.67865,1395
903.794922,1408
903.911072,1349
904.027344,1395
904.143494,1369
904.259705,1399
904.375916,1369
904.492065,1414
904.608215,1336
904.724426,1390
904.840576,1342
904.956726,1380
905.072876,1385
905.189087,1341
905.305176,1344
905.421387,1372
905.537537,1404
905.653687,1359
905.769775,1393
905.885925,1376
906.002014,1387
906.118164,1332
906.234314,1379
906.350403,1349
906.466492,1339
906.582642,1385
906.69873,1370
906.814758,1376
906.930908,1406
907.046936,1371
907.163086,1418
907.279175,1346
907.395264,1378
907.511353,1355
907.62738,1370
907.743408,1334
907.859497,1358
907.975525,1432
908.091553,1393
908.207703,1389
908.32373,1389
908.439758,1393
908.555786,1392
908.671814,1386
908.787842,1345
908.90387,1375
909.019775,1382
909.135864,1394
909.251892,1367
909.367859,1368
909.483826,1396
909.599854,1389
909.715881,1418
909.831848,1388
909.947815,1411
910.063782,1373
910.179749,1349
910.295776,1398
910.411743,1381
910.527649,1360
910.643616,1403
910.759583,1414
910.875488,1387
910.991455,1400
911.107361,1406
911.223267,1411
911.339294,1377
911.4552,1373
911.571106,1401
911.687073,1378
911.802979,1418
911.918823,1385
912.034729,1395
912.150635,1368
912.266602,1383
912.382446,1369
912.498352,1346
912.614197,1396
912.730103,1367
912.846008,1359
792.44574,1649
792.56488,1714
792.68396,1705
792.80304,1673
792.92218,1644
793.041199,1588
793.160339,1643
793.279419,1615
793.398499,1637
793.517578,1611
793.636658,1632
793.755737,1615
793.874817,1568
793.993896,1625
794.112976,1582
794.232056,1548
794.351074,1588
794.470215,1570
794.589233,1589
794.708313,1512
794.827393,1582
794.946411,1570
795.065552,1609
795.18457,1507
795.303589,1592
795.422668,1500
795.541687,1544
795.660767,1569
795.779846,1511
795.898865,1547
796.017883,1527
796.136963,1545
796.255981,1478
796.375061,1547
796.49408,1544
796.613037,1527
796.732117,1533
796.851135,1581
796.970154,1544
797.089233,1447
797.208191,1505
797.327271,1546
797.446228,1503
797.565186,1554
797.684265,1480
797.803223,1543
797.922241,1472
798.04126,1537
798.160278,1515
798.279297,1463
798.398315,1521
798.517273,1520
798.636292,1504
798.75531,1498
798.874268,1506
798.993286,1485
799.112244,1518
799.231323,1464
799.350281,1547
799.469238,1473
799.588257,1528
799.707153,1481
799.826111,1514
799.945129,1487
800.064087,1554
800.183044,1451
800.302063,1524
800.421021,1532
800.539978,1461
800.658936,1504
800.777893,1468
800.896912,1480
801.015747,1423
801.134705,1466
801.253723,1489
801.37262,1465
801.491638,1502
801.610535,1476
801.729492,1468
801.84845,1500
801.967407,1462
802.086243,1465
802.205261,1490
802.324158,1536
802.443115,1451
802.562073,1462
802.680969,1458
802.799927,1406
802.918762,1439
803.037659,1456
803.156677,1484
803.275574,1467
803.39447,1462
803.513428,1446
803.632263,1506
803.751221,1472
803.870117,1484
803.989014,1468
804.107971,1499
804.226746,1490
804.345642,1478
804.4646,1457
804.583496,1506
804.702393,1470
804.821228,1471
804.940125,1476
805.059021,1464
805.177917,1468
805.296814,1516
805.415649,1470
805.534546,1451
805.653442,1457
805.772278,1452
805.891113,1446
806.01001,1460
806.128906,1459
806.247742,1490
806.366577,1448
806.485413,1503
806.604309,1479
806.723145,1516
806.84198,1455
806.960876,1485
807.079712,1429
807.198486,1471
807.317383,1480
807.436218,1501
807.554993,1429
807.673889,1483
807.792725,1487
807.91156,1456
808.030396,1448
808.14917,1468
808.268005,1449
808.386841,1443
808.505676,1454
808.624451,1443
808.743286,1459
808.862122,1470
808.980896,1458
809.099731,1462
809.218506,1444
809.337341,1442
809.456116,1505
809.57489,1431
809.693726,1459
809.8125,1459
809.931274,1455
810.050049,1444
810.168884,1501
810.287659,1425
810.406372,1435
810.525269,1429
810.643982,1446
810.762756,1470
810.881531,1467
811.000305,1447
811.11908,1475
811.237854,1458
811.356567,1441
811.475403,1458
811.594116,1430
811.71283,1472
811.831604,1474
811.950378,1471
812.069153,1482
812.187927,1459
812.30658,1485
812.425415,1444
812.544128,1446
812.662781,1411
812.781616,1450
812.900269,1432
813.019043,1466
813.137756,1461
813.256531,1450
813.375244,1412
813.493896,1391
813.612671,1483
813.731384,1424
813.850037,1459
813.96875,1430
814.087524,1409
814.206238,1451
814.324951,1467
814.443604,1451
814.562256,1399
814.68103,1440
814.799683,1400
814.918335,1439
815.037109,1452
815.155762,1408
815.274475,1416
815.393188,1390
815.511841,1439
815.630554,1424
815.749146,1406
815.867859,1399
815.986572,1425
816.105164,1420
816.223877,1440
816.342529,1444
816.461182,1435
816.579895,1390
816.698486,1453
816.817139,1408
816.935791,1409
817.054504,1433
817.173096,1417
817.291748,1440
817.4104,1425
817.529053,1411
817.647644,1431
817.766235,1398
817.884949,1403
818.00354,1419
818.122192,1409
818.240845,1430
818.359436,1408
818.478088,1418
818.59668,1386
818.715271,1404
818.833923,1382
818.952515,1401
819.071106,1354
819.189758,1412
819.30835,1419
819.426941,1352
819.545532,1400
819.664124,1380
819.782715,1395
819.901306,1379
820.019897,1398
820.138489,1404
820.25708,1370
820.375671,1374
820.494202,1354
820.612732,1336
820.731384,1374
820.849915,1319
820.968506,1378
821.087097,1363
821.205627,1375
821.324158,1332
821.442749,1398
821.561279,1330
821.679871,1368
821.798401,1379
821.916931,1355
822.035461,1375
822.154053,1342
822.272583,1319
822.391174,1341
822.509583,1352
822.628174,1313
822.746704,1353
822.865234,1345
822.983765,1330
823.102295,1350
823.220825,1350
823.339294,1339
823.457825,1372
823.576355,1357
823.694824,1309
823.813354,1364
823.931885,1335
824.050354,1336
824.168884,1340
824.287354,1364
824.405823,1303
824.524353,1375
824.642822,1337
824.761353,1388
824.879822,1354
824.998291,1324
825.116699,1346
825.235291,1337
825.353699,1332
825.472168,1321
825.590637,1354
825.709106,1329
825.827576,1334
825.946045,1349
826.064453,1331
826.182983,1312
826.301392,1303
826.4198,1305
826.53833,1355
826.656738,1322
826.775208,1377
826.893677,1324
827.012024,1302
827.130493,1301
827.248962,1332
827.36731,1358
827.485779,1337
827.604248,1304
827.722595,1312
827.841064,1291
827.959412,1299
828.077942,1332
828.196289,1333
828.314636,1325
828.433105,1322
828.551514,1305
828.669861,1298
828.78833,1270
828.906677,1304
829.025085,1340
829.143433,1321
829.261841,1322
829.38031,1358
829.498657,1289
829.617004,1301
829.735413,1281
829.85376,1333
829.972107,1306
830.090515,1314
830.208862,1324
830.327209,1297
830.445557,1304
830.563904,1276
830.682312,1320
830.800659,1281
830.919006,1293
831.037354,1277
831.155701,1308
831.274048,1310
831.392395,1298
831.51062,1288
831.629028,1325
831.747314,1312
831.865662,1309
831.984009,1297
832.102356,1302
832.220642,1332
832.338928,1291
832.457275,1299
832.575623,1294
832.693909,1320
832.812134,1322
832.930481,1299
833.048828,1294
833.167114,1318
833.2854,1331
833.403687,1312
833.521973,1309
833.640259,1285
833.758545,1289
833.876831,1255
833.995056,1325
834.113281,1247
834.231628,1337
834.349915,1274
834.468201,1309
834.586426,1268
834.704651,1339
834.822998,1322
834.941162,1296
835.059448,1296
835.177673,1333
835.295959,1282
835.414246,1265
835.53241,1285
835.650635,1297
835.768921,1312
835.887146,1304
836.005371,1320
836.123596,1301
836.241821,1262
836.360046,1314
836.478271,1301
836.596497,1312
836.714722,1340
836.832886,1303
836.95105,1275
837.069336,1352
837.1875,1278
837.305725,1293
837.423889,1312
837.542053,1318
837.660339,1319
837.778503,1295
837.896667,1309
838.014832,1306
838.132996,1302
838.25116,1350
838.369385,1283
838.487488,1295
838.605713,1298
838.723877,1313
838.84198,1325
838.960205,1307
839.078308,1288
839.196472,1295
839.314636,1311
839.4328,1298
839.550964,1289
839.669067,1307
839.787231,1268
839.905396,1347
840.023499,1291
840.141602,1270
840.259766,1304
840.377869,1286
840.495972,1275
840.614136,1305
840.732239,1322
840.850342,1283
840.968445,1306
841.086548,1289
841.204651,1273
841.322754,1279
841.440918,1326
841.55896,1290
841.677002,1270
841.795166,1307
841.913208,1305
842.031311,1309
842.149353,1281
842.267456,1295
842.385498,1275
842.503601,1281
842.621643,1300
842.739746,1311
842.857788,1299
842.97583,1291
843.093933,1301
843.211975,1323
843.330017,1309
843.44812,1282
843.566101,1311
843.684204,1324
843.802246,1321
843.920227,1264
844.038269,1313
844.156311,1342
844.274292,1293
844.392395,1287
844.510376,1306
844.628357,1273
844.74646,1311
844.864441,1319
844.982422,1271
845.100403,1291
845.218384,1260
845.336426,1263
845.454468,1307
845.572449,1293
845.69043,1283
845.808411,1272
845.926453,1312
846.044373,1308
846.162354,1285
846.280396,1293
846.398315,1310
846.516296,1307
846.634216,1265
846.752197,1275
846.870178,1246
846.988098,1284
847.106079,1282
847.22406,1273
847.34198,1291
847.4599,1294
847.577881,1300
847.695801,1265
847.813782,1290
847.931641,1280
848.049561,1260
848.167603,1295
848.285461,1325
848.403381,1277
848.521362,1317
848.639221,1333
848.75708,1299
848.875,1333
848.99292,1328
849.110901,1313
849.22876,1300
849.34668,1300
849.464539,1321
849.582458,1324
849.700317,1310
849.818176,1304
849.936096,1292
850.053955,1300
850.171875,1310
850.289673,1285
850.407593,1295
850.525452,1305
850.643311,1311
850.761169,1284
850.878967,1300
850.996887,1282
851.114746,1345
851.232544,1303
851.350403,1326
851.468262,1292
851.58606,1278
851.703979,1294
851.821777,1303
851.939636,1311
852.057434,1309
852.175232,1308
852.293091,1318
852.410889,1303
852.528687,1304
852.646545,1318
852.764343,1289
852.88208,1289
852.999939,1331
853.117676,1297
853.235535,1280
853.353271,1299
853.471069,1304
853.588928,1287
853.706604,1274
853.824402,1295
853.9422,1286
854.059998,1293
854.177734,1278
854.295532,1290
854.413269,1280
854.531006,1319
854.648804,1289
854.766541,1302
854.884277,1303
855.002014,1278
855.119751,1283
855.237549,1291
855.355225,1282
855.473022,1274
855.590698,1274
855.708435,1293
855.826172,1300
855.943848,1264
856.061646,1320
856.179321,1325
856.296997,1289
856.414795,1319
856.53241,1297
856.650085,1300
856.767822,1306
856.885559,1325
857.003174,1311
857.120911,1319
857.238586,1284
857.356201,1339
857.473938,1311
857.591614,1300
857.709351,1281
857.826965,1291
857.944641,1258
858.062317,1314
858.179993,1286
858.297668,1307
858.415283,1278
858.532959,1306
858.650574,1325
858.768188,1275
858.885803,1269
859.003479,1322
859.121094,1284
859.23877,1314
859.356384,1316
859.473999,1315
859.591675,1285
859.709229,1303
859.826843,1312
859.944458,1326
860.062012,1311
860.179626,1277
860.297302,1326
860.414856,1297
860.532471,1285
860.650024,1297
860.767639,1302
860.885193,1325
861.002808,1287
861.120361,1335
861.237976,1275
861.35553,1312
861.473022,1341
861.590698,1333
861.708191,1338
861.825745,1310
861.943298,1271
862.060852,1301
862.178406,1301
862.295959,1276
862.413513,1318
862.531006,1300
862.64856,1277
862.766113,1328
862.883667,1303
863.00116,1272
863.118713,1305
863.236206,1339
863.353699,1324
863.471252,1325
863.588745,1319
863.706177,1312
863.82373,1328
863.941162,1280
864.058716,1307
864.176208,1338
864.29364,1295
864.411194,1284
864.528687,1295
864.646118,1317
864.763611,1327
864.881042,1317
864.998535,1303
865.116028,1278
865.233459,1299
865.350891,1314
865.468384,1300
865.585754,1327
865.703308,1285
865.820679,1286
865.938171,1332
866.055542,1290
866.173035,1312
866.290466,1281
866.407837,1329
866.52533,1334
866.6427,1311
866.760071,1296
866.877563,1335
866.994934,1322
867.112305,1336
867.229736,1332
867.347107,1302
867.464539,1313
867.58197,1260
867.699341,1349
867.81665,1290
867.934082,1368
868.051453,1284
868.168823,1301
868.286194,1336
868.403564,1311
868.520935,1320
868.638306,1318
868.755676,1338
868.872986,1299
868.990295,1346
869.107727,1333
869.225037,1278
869.342346,1290
869.459717,1282
869.577026,1315
869.694336,1332
869.811707,1332
869.929016,1314
870.046326,1287
870.163635,1312
870.280945,1311
870.398254,1297
870.515564,1308
870.632812,1313
870.750183,1345
870.867432,1347
870.984741,1288
871.102051,1333
871.219299,1322
871.336609,1297
871.453918,1326
871.571106,1327
871.688416,1284
871.805664,1308
871.922852,1338
872.040222,1326
872.157471,1350
872.274719,1345
872.391968,1316
872.509155,1291
872.626465,1296
872.743652,1356
872.860962,1301
872.978149,1320
873.095337,1314
873.212646,1297
873.329834,1328
873.44696,1307
873.564209,1303
873.681396,1323
873.798645,1312
873.915894,1294
874.03302,1325
874.150208,1295
874.267456,1323
874.384583,1327
874.501831,1295
874.618958,1330
874.736145,1314
874.853333,1309
874.970459,1329
875.087646,1301
875.204834,1302
875.32196,1361
875.439148,1321
875.556274,1319
875.673401,1354
875.790527,1325
875.907715,1348
876.024841,1309
876.141968,1326
876.259094,1317
876.376282,1332
876.493347,1333
876.610474,1367
876.7276,1347
876.844727,1322
876.961853,1330
877.078918,1318
877.195984,1289
877.313171,1347
877.430237,1380
877.547302,1323
877.664368,1288
877.781433,1352
877.898499,1368
878.015625,1318
878.13269,1296
878.249695,1353
878.366821,1289
878.483887,1326
878.600952,1328
878.717957,1332
878.834961,1362
878.952087,1391
879.069092,1321
879.186157,1316
879.303162,1294
879.420227,1331
879.537231,1305
879.654236,1332
879.77124,1365
879.888306,1339
880.005249,1350
880.122314,1307
880.239319,1332
880.356323,1332
880.473328,1343
880.590271,1342
880.707275,1296
880.824341,1321
880.941284,1309
881.058228,1315
881.175232,1338
881.292236,1302
881.40918,1318
881.526123,1312
881.643066,1321
881.760071,1314
881.877014,1329
881.993958,1361
882.11084,1336
882.227783,1334
882.344727,1293
882.46167,1333
882.578613,1315
882.695618,1311
882.812439,1327
882.929382,1303
883.046326,1338
883.163208,1326
883.280151,1342
883.397034,1315
883.513916,1311
883.630798,1336
883.747742,1383
883.864563,1371
883.981506,1330
884.098389,1334
884.21521,1336
884.332153,1330
884.448975,1331
884.565796,1353
884.682678,1344
884.7995,1362
884.916443,1336
885.033264,1345
885.150085,1363
885.266968,1380
885.383789,1395
885.500671,1359
885.617493,1332
885.734314,1354
885.851196,1394
885.967896,1372
886.084717,1346
886.201599,1365
886.318359,1361
886.435181,1359
886.552002,1356
886.668762,1352
886.785645,1358
886.902344,1384
887.019165,1358
887.135925,1365
887.252747,1355
887.369446,1376
887.486267,1366
887.603027,1362
887.719788,1367
887.836548,1350
887.953247,1324
888.070068,1374
888.186829,1342
888.303528,1367
888.420288,1348
888.536987,1361
888.653687,1300
888.770447,1354
888.887146,1340
889.003967,1350
889.120667,1347
889.237305,1357
889.354065,1355
889.470703,1337
889.587463,1354
889.704163,1378
889.820862,1389
889.937561,1373
890.054199,1352
890.170837,1331
890.287598,1357
890.404236,1353
890.520874,1339
890.637634,1423
890.754211,1370
890.87085,1388
890.987549,1350
891.104187,1364
891.220886,1422
891.337463,1323
891.454102,1364
891.57074,1356
891.687378,1329
891.804077,1405
891.920654,1369
892.037231,1397
892.15387,1366
892.270447,1374
892.387085,1350
892.503723,1340
892.6203,1372
892.736877,1406
892.853516,1357
892.970032,1369
893.08667,1314
893.203186,1381
893.319763,1351
893.43634,1362
893.552917,1379
893.669556,1378
893.786011,1380
893.902588,1386
894.019165,1398
894.135681,1404
894.252197,1365
894.368835,1354
894.485291,1409
894.601868,1358
894.718384,1338
894.8349,1393
894.951355,1420
895.067932,1376
895.184448,1373
895.300964,1389
895.417419,1361
895.533936,1398
895.650452,1356
895.766907,1370
895.883423,1395
895.999878,1384
896.116333,1360
896.232849,1330
896.349304,1398
896.465759,1367
896.582214,1385
896.698669,1395
896.815125,1400
896.931641,1360
897.048035,1355
897.164551,1381
897.280884,1388
897.397339,1377
897.513794,1409
897.630249,1387
897.746582,1340
897.863098,1424
897.979431,1403
898.095886,1406
898.212341,1389
898.328674,1422
898.445129,1333
898.561462,1387
898.677795,1402
898.794312,1351
898.910645,1369
899.026978,1438
899.143433,1361
899.259766,1401
899.37616,1376
899.492493,1378
899.608765,1405
899.725159,1418
899.841553,1401
899.957947,1354
900.07428,1359
900.190552,1406
900.306946,1373
900.423157,1380
900.53949,1400
900.655884,1356
900.772156,1413
900.888489,1379
901.004822,1402
901.121033,1397
901.237366,1371
901.353699,1426
901.46991,1382
901.586304,1422
901.702515,1403
901.818787,1370
901.93512,1399
902.051331,1376
902.167603,1420
902.283875,1391
902.400085,1407
902.516418,1418
902.632629,1376
902.74884,1397
902.865112,1395
902.981384,1387
903.097595,1430
903.213867,1412
903.330017,1404
903.446289,1360
903.5625,1401
903.67865,1382
903.794922,1416
903.911072,1438
904.027344,1405
904.143494,1405
904.259705,1403
904.375916,1409
904.492065,1410
904.608215,1337
904.724426,1399
904.840576,1352
904.956726,1414
905.072876,1405
905.189087,1411
905.305176,1386
905.421387,1414
905.537537,1352
905.653687,1383
905.769775,1357
905.885925,1407
906.002014,1363
906.118164,1433
906.234314,1396
906.350403,1368
906.466492,1417
906.582642,1426
906.69873,1458
906.814758,1431
906.930908,1375
907.046936,1389
907.163086,1420
907.279175,1385
907.395264,1364
907.511353,1392
907.62738,1400
907.743408,1395
907.859497,1468
907.975525,1348
908.091553,1418
908.207703,1405
908.32373,1386
908.439758,1419
908.555786,1381
908.671814,1435
908.787842,1417
908.90387,1442
909.019775,1433
909.135864,1401
909.251892,1434
909.367859,1427
909.483826,1411
909.599854,1444
909.715881,1391
909.831848,1428
909.947815,1399
910.063782,1442
910.179749,1388
910.295776,1443
910.411743,1424
910.527649,1418
910.643616,1440
910.759583,1428
910.875488,1398
910.991455,1430
911.107361,1392
911.223267,1416
911.339294,1422
911.4552,1444
911.571106,1404
911.687073,1447
911.802979,1436
911.918823,1412
912.034729,1414
912.150635,1454
912.266602,1374
912.382446,1400
912.498352,1402
912.614197,1390
912.730103,1420
912.846008,1392
792.44574,1721
792.56488,1673
792.68396,1765
792.80304,1676
792.92218,1630
793.041199,1586
793.160339,1649
793.279419,1645
793.398499,1610
793.517578,1623
793.636658,1616
793.755737,1592
793.874817,1648
793.993896,1629
794.112976,1624
794.232056,1595
794.351074,1595
794.470215,1597
794.589233,1600
794.708313,1596
794.827393,1524
794.946411,1577
795.065552,1605
795.18457,1574
795.303589,1615
795.422668,1557
795.541687,1516
795.660767,1548
795.779846,1539
795.898865,1554
796.017883,1500
796.136963,1531
796.255981,1534
796.375061,1541
796.49408,1528
796.613037,1542
796.732117,1551
796.851135,1567
796.970154,1526
797.089233,1550
797.208191,1515
797.327271,1555
797.446228,1521
797.565186,1531
797.684265,1532
797.803223,1512
797.922241,1541
798.04126,1529
798.160278,1512
798.279297,1509
798.398315,1527
798.517273,1552
798.636292,1470
798.75531,1506
798.874268,1470
798.993286,1529
799.112244,1476
799.231323,1499
799.350281,1521
799.469238,1538
799.588257,1535
799.707153,1471
799.826111,1532
799.945129,1488
800.064087,1521
800.183044,1542
800.302063,1494
800.421021,1506
800.539978,1532
800.658936,1526
800.777893,1526
800.896912,1481
801.015747,1483
801.134705,1481
801.253723,1489
801.37262,1546
801.491638,1477
801.610535,1476
801.729492,1530
801.84845,1467
801.967407,1496
802.086243,1499
802.205261,1537
802.324158,1479
802.443115,1512
802.562073,1480
802.680969,1470
802.799927,1479
802.918762,1511
803.037659,1479
803.156677,1504
803.275574,1494
803.39447,1483
803.513428,1445
803.632263,1509
803.751221,1476
803.870117,1514
803.989014,1486
804.107971,1471
804.226746,1478
804.345642,1484
804.4646,1502
804.583496,1537
804.702393,1484
804.821228,1498
804.940125,1517
805.059021,1523
805.177917,1478
805.296814,1475
805.415649,1473
805.534546,1461
805.653442,1494
805.772278,1471
805.891113,1457
806.01001,1513
806.128906,1471
806.247742,1478
806.366577,1470
806.485413,1507
806.604309,1422
806.723145,1503
806.84198,1458
806.960876,1500
807.079712,1465
807.198486,1485
807.317383,1461
807.436218,1451
807.554993,1451
807.673889,1476
807.792725,1486
807.91156,1436
808.030396,1511
808.14917,1416
808.268005,1451
808.386841,1432
808.505676,1443
808.624451,1467
808.743286,1455
808.862122,1491
808.980896,1491
809.099731,1419
809.218506,1456
809.337341,1469
809.456116,1438
809.57489,1477
809.693726,1481
809.8125,1451
809.931274,1434
810.050049,1494
810.168884,1492
810.287659,1452
810.406372,1440
810.525269,1482
810.643982,1460
810.762756,1467
810.881531,1428
811.000305,1476
811.11908,1490
811.237854,1466
811.356567,1498
811.475403,1441
811.594116,1459
811.71283,1473
811.831604,1466
811.950378,1515
812.069153,1447
812.187927,1494
812.30658,1455
812.425415,1450
812.544128,1508
812.662781,1445
812.781616,1487
812.900269,1441
813.019043,1480
813.137756,1446
813.256531,1436
813.375244,1460
813.493896,1435
813.612671,1491
813.731384,1468
813.850037,1465
813.96875,1462
814.087524,1442
814.206238,1419
814.324951,1437
814.443604,1418
814.562256,1443
814.68103,1444
814.799683,1420
814.918335,1451
815.037109,1444
815.155762,1434
815.274475,1424
815.393188,1469
815.511841,1408
815.630554,1449
815.749146,1414
815.867859,1432
815.986572,1385
816.105164,1417
816.223877,1449
816.342529,1440
816.461182,1433
816.579895,1388
816.698486,1398
816.817139,1424
816.935791,1414
817.054504,1398
817.173096,1430
817.291748,1453
817.4104,1464
817.529053,1424
817.647644,1437
817.766235,1400
817.884949,1428
818.00354,1434
818.122192,1376
818.240845,1364
818.359436,1408
818.478088,1413
818.59668,1382
818.715271,1407
818.833923,1412
818.952515,1420
819.071106,1389
819.189758,1397
819.30835,1389
819.426941,1393
819.545532,1388
819.664124,1397
819.782715,1402
819.901306,1399
820.019897,1380
820.138489,1373
820.25708,1380
820.375671,1423
820.494202,1410
820.612732,1356
820.731384,1384
820.849915,1367
820.968506,1374
821.087097,1367
821.205627,1368
821.324158,1370
821.442749,1348
821.561279,1356
821.679871,1359
821.798401,1364
821.916931,1342
822.035461,1363
822.154053,1378
822.272583,1342
822.391174,1339
822.509583,1381
822.628174,1333
822.746704,1328
822.865234,1376
822.983765,1326
823.102295,1391
823.220825,1328
823.339294,1375
823.457825,1335
823.576355,1372
823.694824,1353
823.813354,1317
823.931885,1375
824.050354,1327
824.168884,1330
824.287354,1362
824.405823,1350
824.524353,1375
824.642822,1333
824.761353,1350
824.879822,1366
824.998291,1363
825.116699,1344
825.235291,1334
825.353699,1374
825.472168,1344
825.590637,1368
825.709106,1327
825.827576,1340
825.946045,1344
826.064453,1327
826.182983,1355
826.301392,1360
826.4198,1350
826.53833,1322
826.656738,1317
826.775208,1341
826.893677,1352
827.012024,1345
827.130493,1298
827.248962,1310
827.36731,1350
827.485779,1346
827.604248,1324
827.722595,1376
827.841064,1320
827.959412,1334
828.077942,1259
828.196289,1318
828.314636,1325
828.433105,1325
828.551514,1325
828.669861,1335
828.78833,1314
828.906677,1324
829.025085,1304
829.143433,1334
829.261841,1313
829.38031,1301
829.498657,1321
829.617004,1302
829.735413,1366
829.85376,1332
829.972107,1296
830.090515,1318
830.208862,1306
830.327209,1329
830.445557,1319
830.563904,1324
830.682312,1296
830.800659,1299
830.919006,1282
831.037354,1360
831.155701,1321
831.274048,1296
831.392395,1295
831.51062,1359
831.629028,1291
831.747314,1332
831.865662,1278
831.984009,1349
832.102356,1342
832.220642,1267
832.338928,1336
832.457275,1329
832.575623,1357
832.693909,1253
832.812134,1328
832.930481,1267
833.048828,1317
833.167114,1320
833.2854,1321
833.403687,1379
833.521973,1298
833.640259,1351
833.758545,1299
833.876831,1323
833.995056,1307
834.113281,1301
834.231628,1314
834.349915,1262
834.468201,1347
834.586426,1335
834.704651,1330
834.822998,1337
834.941162,1309
835.059448,1323
835.177673,1316
835.295959,1315
835.414246,1320
835.53241,1326
835.650635,1280
835.768921,1275
835.887146,1284
836.005371,1350
836.123596,1302
836.241821,1347
836.360046,1319
836.478271,1278
836.596497,1284
836.714722,1311
836.832886,1291
836.95105,1316
837.069336,1312
837.1875,1297
837.305725,1333
837.423889,1328
837.542053,1298
837.660339,1337
837.778503,1313
837.896667,1302
838.014832,1347
838.132996,1308
838.25116,1322
838.369385,1317
838.487488,1279
838.605713,1317
838.723877,1304
838.84198,1287
838.960205,1307
839.078308,1309
839.196472,1315
839.314636,1304
839.4328,1314
839.550964,1311
839.669067,1296
839.787231,1320
839.905396,1305
840.023499,1295
840.141602,1340
840.259766,1281
840.377869,1303
840.495972,1315
840.614136,1273
840.732239,1288
840.850342,1326
840.968445,1311
841.086548,1324
841.204651,1273
841.322754,1306
841.440918,1297
841.55896,1268
841.677002,1317
841.795166,1301
841.913208,1282
842.031311,1336
842.149353,1306
842.267456,1300
842.385498,1337
842.503601,1318
842.621643,1323
842.739746,1314
842.857788,1313
842.97583,1298
843.093933,1323
843.211975,1291
843.330017,1357
843.44812,1339
843.566101,1278
843.684204,1319
843.802246,1321
843.920227,1309
844.038269,1337
844.156311,1284
844.274292,1261
844.392395,1304
844.510376,1330
844.628357,1256
844.74646,1292
844.864441,1322
844.982422,1304
845.100403,1331
845.218384,1275
845.336426,1316
845.454468,1344
845.572449,1299
845.69043,1323
845.808411,1313
845.926453,1275
846.044373,1275
846.162354,1293
846.280396,1274
846.398315,1302
846.516296,1316
846.634216,1275
846.752197,1286
846.870178,1271
846.988098,1323
847.106079,1327
847.22406,1299
847.34198,1279
847.4599,1286
847.577881,1294
847.695801,1280
847.813782,1307
847.931641,1293
848.049561,1323
848.167603,1331
848.285461,1327
848.403381,1356
848.521362,1324
848.639221,1328
848.75708,1295
848.875,1312
848.99292,1328
849.110901,1281
849.22876,1280
849.34668,1328
849.464539,1334
849.582458,1296
849.700317,1322
849.818176,1326
849.936096,1328
850.053955,1310
850.171875,1317
850.289673,1333
850.407593,1308
850.525452,1291
850.643311,1321
850.761169,1299
850.878967,1328
850.996887,1340
851.114746,1343
851.232544,1266
851.350403,1321
851.468262,1300
851.58606,1294
851.703979,1335
851.821777,1340
851.939636,1308
852.057434,1309
852.175232,1361
852.293091,1310
852.410889,1333
852.528687,1272
852.646545,1318
852.764343,1306
852.88208,1337
852.999939,1305
853.117676,1333
853.235535,1352
853.353271,1312
853.471069,1300
853.588928,1299
853.706604,1298
853.824402,1300
853.9422,1296
854.059998,1322
854.177734,1321
854.295532,1337
854.413269,1360
854.531006,1257
854.648804,1321
854.766541,1306
854.884277,1251
855.002014,1321
855.119751,1332
855.237549,1345
855.355225,1317
855.473022,1373
855.590698,1295
855.708435,1315
855.826172,1273
855.943848,1302
856.061646,1290
856.179321,1309
856.296997,1285
856.414795,1331
856.53241,1287
856.650085,1287
856.767822,1285
856.885559,1328
857.003174,1319
857.120911,1327
857.238586,1309
857.356201,1344
857.473938,1295
857.591614,1302
857.709351,1320
857.826965,1303
857.944641,1351
858.062317,1300
858.179993,1307
858.297668,1327
858.415283,1328
858.532959,1337
858.650574,1297
858.768188,1288
858.885803,1329
859.003479,1332
859.121094,1270
859.23877,1332
859.356384,1306
859.473999,1331
859.591675,1295
859.709229,1357
859.826843,1331
859.944458,1294
860.062012,1288
860.179626,1337
860.297302,1315
860.414856,1324
860.532471,1303
860.650024,1320
860.767639,1309
860.885193,1312
861.002808,1278
861.120361,1328
861.237976,1303
861.35553,1299
861.473022,1306
861.590698,1325
861.708191,1336
861.825745,1297
861.943298,1316
862.060852,1334
862.178406,1298
862.295959,1273
862.413513,1316
862.531006,1328
862.64856,1316
862.766113,1321
862.883667,1320
863.00116,1306
863.118713,1301
863.236206,1304
863.353699,1292
863.471252,1313
863.588745,1302
863.706177,1317
863.82373,1350
863.941162,1263
864.058716,1336
864.176208,1293
864.29364,1351
864.411194,1298
864.528687,1341
864.646118,1337
864.763611,1296
864.881042,1350
864.998535,1308
865.116028,1319
865.233459,1320
865.350891,1297
865.468384,1310
865.585754,1356
865.703308,1274
865.820679,1325
865.938171,1294
866.055542,1318
866.173035,1291
866.290466,1316
866.407837,1322
866.52533,1294
866.6427,1310
866.760071,1348
866.877563,1272
866.994934,1313
867.112305,1290
867.229736,1309
867.347107,1316
867.464539,1306
867.58197,1366
867.699341,1289
867.81665,1291
867.934082,1335
868.051453,1314
868.168823,1367
868.286194,1336
868.403564,1280
868.520935,1316
868.638306,1314
868.755676,1304
868.872986,1319
868.990295,1338
869.107727,1339
869.225037,1315
869.342346,1327
869.459717,1310
869.577026,1345
869.694336,1347
869.811707,1355
869.929016,1295
870.046326,1350
870.163635,1318
870.280945,1336
870.398254,1319
870.515564,1324
870.632812,1347
870.750183,1349
870.867432,1342
870.984741,1315
871.102051,1315
871.219299,1352
871.336609,1353
871.453918,1321
871.571106,1352
871.688416,1324
871.805664,1302
871.922852,1325
872.040222,1313
872.157471,1359
872.274719,1337
872.391968,1349
872.509155,1311
872.626465,1340
872.743652,1319
872.860962,1339
872.978149,1331
873.095337,1336
873.212646,1321
873.329834,1356
873.44696,1327
873.564209,1379
873.681396,1335
873.798645,1321
873.915894,1343
874.03302,1305
874.150208,1356
874.267456,1360
874.384583,1351
874.501831,1329
874.618958,1321
874.736145,1336
874.853333,1347
874.970459,1320
875.087646,1309
875.204834,1334
875.32196,1297
875.439148,1372
875.556274,1329
875.673401,1384
875.790527,1307
875.907715,1360
876.024841,1330
876.141968,1321
876.259094,1320
876.376282,1337
876.493347,1354
876.610474,1368
876.7276,1344
876.844727,1334
876.961853,1319
877.078918,1369
877.195984,1347
877.313171,1334
877.430237,1311
877.547302,1348
877.664368,1367
877.781433,1333
877.898499,1348
878.015625,1332
878.13269,1344
878.249695,1309
878.366821,1323
878.483887,1365
878.600952,1343
878.717957,1307
878.834961,1318
878.952087,1351
879.069092,1353
879.186157,1382
879.303162,1341
879.420227,1372
879.537231,1391
879.654236,1310
879.77124,1318
879.888306,1323
880.005249,1345
880.122314,1328
880.239319,1358
880.356323,1321
880.473328,1301
880.590271,1317
880.707275,1339
880.824341,1377
880.941284,1331
881.058228,1341
881.175232,1340
881.292236,1336
881.40918,1402
881.526123,1344
881.643066,1316
881.760071,1305
881.877014,1336
881.993958,1341
882.11084,1332
882.227783,1348
882.344727,1352
882.46167,1332
882.578613,1308
882.695618,1370
882.812439,1338
882.929382,1363
883.046326,1356
883.163208,1350
883.280151,1325
883.397034,1346
883.513916,1334
883.630798,1365
883.747742,1347
883.864563,1343
883.981506,1379
884.098389,1353
884.21521,1309
884.332153,1349
884.448975,1337
884.565796,1363
884.682678,1354
884.7995,1352
884.916443,1359
885.033264,1401
885.150085,1345
885.266968,1371
885.383789,1354
885.500671,1375
885.617493,1380
885.734314,1314
885.851196,1373
885.967896,1385
886.084717,1395
886.201599,1356
886.318359,1376
886.435181,1417
886.552002,1371
886.668762,1392
886.785645,1349
886.902344,1398
887.019165,1373
887.135925,1374
887.252747,1357
887.369446,1319
887.486267,1392
887.603027,1335
887.719788,1349
887.836548,1382
887.953247,1372
888.070068,1414
888.186829,1391
888.303528,1360
888.420288,1376
888.536987,1324
888.653687,1408
888.770447,1387
888.887146,1376
889.003967,1373
889.120667,1375
889.237305,1419
889.354065,1336
889.470703,1382
889.587463,1352
889.704163,1354
889.820862,1353
889.937561,1346
890.054199,1372
890.170837,1378
890.287598,1356
890.404236,1403
890.520874,1360
890.637634,1339
890.754211,1357
890.87085,1366
890.987549,1388
891.104187,1400
891.220886,1385
891.337463,1398
891.454102,1436
891.57074,1409
891.687378,1378
891.804077,1368
891.920654,1370
892.037231,1411
892.15387,1358
892.270447,1388
892.387085,1375
892.503723,1376
892.6203,1366
892.736877,1377
892.853516,1373
892.970032,1385
893.08667,1377
893.203186,1399
893.319763,1382
893.43634,1416
893.552917,1401
893.669556,1386
893.786011,1373
893.902588,1446
894.019165,1372
894.135681,1400
894.252197,1401
894.368835,1376
894.485291,1382
894.601868,1397
894.718384,1403
894.8349,1429
894.951355,1365
895.067932,1410
895.184448,1385
895.300964,1390
895.417419,1366
895.533936,1401
895.650452,1396
895.766907,1422
895.883423,1365
895.999878,1409
896.116333,1373
896.232849,1354
896.349304,1395
896.465759,1412
896.582214,1403
896.698669,1403
896.815125,1390
896.931641,1388
897.048035,1426
897.164551,1402
897.280884,1393
897.397339,1386
897.513794,1441
897.630249,1404
897.746582,1352
897.863098,1376
897.979431,1366
898.095886,1367
898.212341,1395
898.328674,1362
898.445129,1399
898.561462,1409
898.677795,1419
898.794312,1405
898.910645,1393
899.026978,1339
899.143433,1411
899.259766,1384
899.37616,1372
899.492493,1415
899.608765,1415
899.725159,1417
899.841553,1428
899.957947,1340
900.07428,1416
900.190552,1387
900.306946,1392
900.423157,1382
900.53949,1400
900.655884,1382
900.772156,1403
900.888489,1397
901.004822,1420
901.121033,1388
901.237366,1418
901.353699,1421
901.46991,1430
901.586304,1402
901.702515,1432
901.818787,1438
901.93512,1392
902.051331,1458
902.167603,1412
902.283875,1441
902.400085,1419
902.516418,1403
902.632629,1431
902.74884,1413
902.865112,1412
902.981384,1373
903.097595,1419
903.213867,1440
903.330017,1422
903.446289,1442
903.5625,1421
903.67865,1394
903.794922,1419
903.911072,1419
904.027344,1391
904.143494,1410
904.259705,1402
904.375916,1430
904.492065,1428
904.608215,1370
904.724426,1413
904.840576,1438
904.956726,1424
905.072876,1421
905.189087,1437
905.305176,1398
905.421387,1426
905.537537,1423
905.653687,1392
905.769775,1429
905.885925,1402
906.002014,1440
906.118164,1433
906.234314,1382
906.350403,1408
906.466492,1398
906.582642,1463
906.69873,1409
906.814758,1411
906.930908,1452
907.046936,1435
907.163086,1419
907.279175,1419
907.395264,1392
907.511353,1452
907.62738,1429
907.743408,1443
907.859497,1370
907.975525,1461
908.091553,1427
908.207703,1424
908.32373,1377
908.439758,1455
908.555786,1469
908.671814,1427
908.787842,1415
908.90387,1420
909.019775,1451
909.135864,1394
909.251892,1438
909.367859,1465
909.483826,1416
909.599854,1423
909.715881,1411
909.831848,1437
909.947815,1436
910.063782,1455
910.179749,1436
910.295776,1422
910.411743,1436
910.527649,1443
910.643616,1459
910.759583,1442
910.875488,1415
910.991455,1413
911.107361,1444
911.223267,1439
911.339294,1435
911.4552,1461
911.571106,1428
911.687073,1489
911.802979,1475
911.918823,1403
912.034729,1442
912.150635,1455
912.266602,1465
912.382446,1472
912.498352,1445
912.614197,1435
912.730103,1442
912.846008,1439
