792.44574,4235
792.56488,4115
792.68396,3940
792.80304,3897
792.92218,3773
793.041199,3702
793.160339,3580
793.279419,3525
793.398499,3506
793.517578,3367
793.636658,3270
793.755737,3310
793.874817,3299
793.993896,3210
794.112976,3111
794.232056,3098
794.351074,3041
794.470215,2977
794.589233,2988
794.708313,2942
794.827393,2892
794.946411,2880
795.065552,2819
795.18457,2735
795.303589,2801
795.422668,2725
795.541687,2701
795.660767,2670
795.779846,2634
795.898865,2600
796.017883,2579
796.136963,2555
796.255981,2559
796.375061,2504
796.49408,2453
796.613037,2459
796.732117,2507
796.851135,2502
796.970154,2461
797.089233,2443
797.208191,2329
797.327271,2373
797.446228,2301
797.565186,2335
797.684265,2336
797.803223,2327
797.922241,2310
798.04126,2291
798.160278,2274
798.279297,2294
798.398315,2225
798.517273,2310
798.636292,2196
798.75531,2244
798.874268,2275
798.993286,2262
799.112244,2232
799.231323,2213
799.350281,2189
799.469238,2289
799.588257,2192
799.707153,2168
799.826111,2176
799.945129,2152
800.064087,2238
800.183044,2172
800.302063,2145
800.421021,2166
800.539978,2182
800.658936,2102
800.777893,2133
800.896912,2095
801.015747,2134
801.134705,2122
801.253723,2111
801.37262,2097
801.491638,2095
801.610535,2103
801.729492,2115
801.84845,2047
801.967407,2054
802.086243,2076
802.205261,2080
802.324158,2127
802.443115,2059
802.562073,2081
802.680969,2083
802.799927,2046
802.918762,2046
803.037659,1977
803.156677,2083
803.275574,2027
803.39447,2016
803.513428,2023
803.632263,2050
803.751221,2037
803.870117,2019
803.989014,2000
804.107971,1980
804.226746,2006
804.345642,2025
804.4646,2003
804.583496,1993
804.702393,2056
804.821228,2006
804.940125,2027
805.059021,2031
805.177917,2010
805.296814,1986
805.415649,2006
805.534546,2027
805.653442,1973
805.772278,1966
805.891113,1978
806.01001,2027
806.128906,2008
806.247742,1976
806.366577,2015
806.485413,2011
806.604309,2059
806.723145,1943
806.84198,1955
806.960876,1982
807.079712,1899
807.198486,1985
807.317383,1968
807.436218,1961
807.554993,1990
807.673889,1980
807.792725,1948
807.91156,1967
808.030396,1997
808.14917,1965
808.268005,1929
808.386841,1926
808.505676,1953
808.624451,1916
808.743286,1918
808.862122,1986
808.980896,1952
809.099731,1940
809.218506,1989
809.337341,2003
809.456116,1961
809.57489,1957
809.693726,1989
809.8125,1983
809.931274,1939
810.050049,1991
810.168884,1958
810.287659,1966
810.406372,1975
810.525269,1946
810.643982,1954
810.762756,1978
810.881531,1981
811.000305,1992
811.11908,1984
811.237854,1968
811.356567,1961
811.475403,2008
811.594116,2019
811.71283,1946
811.831604,1985
811.950378,2065
812.069153,1985
812.187927,1944
812.30658,2030
812.425415,2012
812.544128,1964
812.662781,1987
812.781616,1988
812.900269,2042
813.019043,1910
813.137756,1959
813.256531,1961
813.375244,1969
813.493896,1966
813.612671,1961
813.731384,1922
813.850037,1962
813.96875,1976
814.087524,1918
814.206238,1932
814.324951,1961
814.443604,1987
814.562256,1919
814.68103,1894
814.799683,1901
814.918335,1976
815.037109,1939
815.155762,1960
815.274475,1913
815.393188,1965
815.511841,1901
815.630554,1852
815.749146,1882
815.867859,1913
815.986572,1882
816.105164,1890
816.223877,1878
816.342529,1909
816.461182,1957
816.579895,1883
816.698486,1940
816.817139,1935
816.935791,1927
817.054504,1955
817.173096,1971
817.291748,1914
817.4104,1892
817.529053,1957
817.647644,1896
817.766235,1875
817.884949,1897
818.00354,1850
818.122192,1809
818.240845,1789
818.359436,1810
818.478088,1728
818.59668,1727
818.715271,1757
818.833923,1750
818.952515,1649
819.071106,1684
819.189758,1669
819.30835,1653
819.426941,1667
819.545532,1612
819.664124,1645
819.782715,1661
819.901306,1648
820.019897,1629
820.138489,1641
820.25708,1687
820.375671,1668
820.494202,1624
820.612732,1628
820.731384,1603
820.849915,1650
820.968506,1605
821.087097,1657
821.205627,1593
821.324158,1622
821.442749,1602
821.561279,1586
821.679871,1549
821.798401,1603
821.916931,1552
822.035461,1617
822.154053,1580
822.272583,1573
822.391174,1558
822.509583,1536
822.628174,1577
822.746704,1543
822.865234,1547
822.983765,1517
823.102295,1592
823.220825,1552
823.339294,1520
823.457825,1534
823.576355,1564
823.694824,1521
823.813354,1549
823.931885,1578
824.050354,1539
824.168884,1614
824.287354,1596
824.405823,1498
824.524353,1587
824.642822,1550
824.761353,1576
824.879822,1543
824.998291,1565
825.116699,1569
825.235291,1565
825.353699,1589
825.472168,1535
825.590637,1532
825.709106,1540
825.827576,1516
825.946045,1548
826.064453,1532
826.182983,1518
826.301392,1589
826.4198,1538
826.53833,1510
826.656738,1522
826.775208,1516
826.893677,1526
827.012024,1468
827.130493,1525
827.248962,1538
827.36731,1581
827.485779,1526
827.604248,1519
827.722595,1506
827.841064,1458
827.959412,1523
828.077942,1527
828.196289,1475
828.314636,1531
828.433105,1499
828.551514,1481
828.669861,1472
828.78833,1513
828.906677,1468
829.025085,1492
829.143433,1524
829.261841,1450
829.38031,1463
829.498657,1475
829.617004,1518
829.735413,1474
829.85376,1490
829.972107,1466
830.090515,1471
830.208862,1450
830.327209,1499
830.445557,1489
830.563904,1467
830.682312,1474
830.800659,1499
830.919006,1528
831.037354,1496
831.155701,1526
831.274048,1546
831.392395,1501
831.51062,1501
831.629028,1497
831.747314,1487
831.865662,1523
831.984009,1496
832.102356,1494
832.220642,1453
832.338928,1538
832.457275,1532
832.575623,1567
832.693909,1516
832.812134,1526
832.930481,1491
833.048828,1490
833.167114,1484
833.2854,1519
833.403687,1506
833.521973,1497
833.640259,1495
833.758545,1540
833.876831,1473
833.995056,1485
834.113281,1577
834.231628,1512
834.349915,1509
834.468201,1491
834.586426,1505
834.704651,1474
834.822998,1495
834.941162,1543
835.059448,1526
835.177673,1533
835.295959,1505
835.414246,1473
835.53241,1509
835.650635,1537
835.768921,1517
835.887146,1493
836.005371,1487
836.123596,1506
836.241821,1472
836.360046,1459
836.478271,1511
836.596497,1517
836.714722,1504
836.832886,1497
836.95105,1510
837.069336,1481
837.1875,1472
837.305725,1525
837.423889,1495
837.542053,1520
837.660339,1534
837.778503,1534
837.896667,1542
838.014832,1534
838.132996,1486
838.25116,1490
838.369385,1507
838.487488,1553
838.605713,1568
838.723877,1566
838.84198,1543
838.960205,1554
839.078308,1573
839.196472,1523
839.314636,1576
839.4328,1560
839.550964,1538
839.669067,1567
839.787231,1599
839.905396,1578
840.023499,1608
840.141602,1587
840.259766,1604
840.377869,1608
840.495972,1601
840.614136,1613
840.732239,1618
840.850342,1648
840.968445,1627
841.086548,1638
841.204651,1646
841.322754,1647
841.440918,1658
841.55896,1722
841.677002,1635
841.795166,1656
841.913208,1657
842.031311,1654
842.149353,1672
842.267456,1641
842.385498,1617
842.503601,1665
842.621643,1607
842.739746,1612
842.857788,1599
842.97583,1621
843.093933,1634
843.211975,1631
843.330017,1586
843.44812,1679
843.566101,1641
843.684204,1614
843.802246,1660
843.920227,1584
844.038269,1592
844.156311,1582
844.274292,1593
844.392395,1595
844.510376,1618
844.628357,1550
844.74646,1592
844.864441,1580
844.982422,1594
845.100403,1530
845.218384,1594
845.336426,1539
845.454468,1619
845.572449,1586
845.69043,1579
845.808411,1503
845.926453,1567
846.044373,1552
846.162354,1559
846.280396,1571
846.398315,1576
846.516296,1556
846.634216,1561
846.752197,1603
846.870178,1592
846.988098,1579
847.106079,1588
847.22406,1622
847.34198,1596
847.4599,1597
847.577881,1611
847.695801,1584
847.813782,1577
847.931641,1553
848.049561,1609
848.167603,1597
848.285461,1589
848.403381,1566
848.521362,1575
848.639221,1575
848.75708,1527
848.875,1645
848.99292,1607
849.110901,1621
849.22876,1614
849.34668,1621
849.464539,1568
849.582458,1603
849.700317,1604
849.818176,1577
849.936096,1627
850.053955,1582
850.171875,1615
850.289673,1577
850.407593,1556
850.525452,1586
850.643311,1566
850.761169,1621
850.878967,1602
850.996887,1600
851.114746,1562
851.232544,1566
851.350403,1592
851.468262,1555
851.58606,1586
851.703979,1550
851.821777,1568
851.939636,1591
852.057434,1568
852.175232,1613
852.293091,1593
852.410889,1615
852.528687,1683
852.646545,1705
852.764343,1717
852.88208,1717
852.999939,1645
853.117676,1648
853.235535,1589
853.353271,1615
853.471069,1619
853.588928,1604
853.706604,1591
853.824402,1597
853.9422,1605
854.059998,1599
854.177734,1547
854.295532,1566
854.413269,1595
854.531006,1614
854.648804,1643
854.766541,1615
854.884277,1639
855.002014,1591
855.119751,1631
855.237549,1600
855.355225,1655
855.473022,1594
855.590698,1628
855.708435,1558
855.826172,1656
855.943848,1636
856.061646,1642
856.179321,1639
856.296997,1639
856.414795,1665
856.53241,1645
856.650085,1680
856.767822,1665
856.885559,1719
857.003174,1718
857.120911,1737
857.238586,1685
857.356201,1710
857.473938,1682
857.591614,1645
857.709351,1687
857.826965,1699
857.944641,1712
858.062317,1684
858.179993,1695
858.297668,1649
858.415283,1685
858.532959,1637
858.650574,1705
858.768188,1624
858.885803,1624
859.003479,1631
859.121094,1645
859.23877,1660
859.356384,1624
859.473999,1602
859.591675,1604
859.709229,1613
859.826843,1642
859.944458,1603
860.062012,1605
860.179626,1588
860.297302,1595
860.414856,1540
860.532471,1573
860.650024,1613
860.767639,1615
860.885193,1556
861.002808,1620
861.120361,1609
861.237976,1552
861.35553,1618
861.473022,1591
861.590698,1609
861.708191,1617
861.825745,1543
861.943298,1569
862.060852,1547
862.178406,1551
862.295959,1563
862.413513,1494
862.531006,1476
862.64856,1517
862.766113,1454
862.883667,1479
863.00116,1491
863.118713,1521
863.236206,1528
863.353699,1472
863.471252,1514
863.588745,1541
863.706177,1512
863.82373,1538
863.941162,1555
864.058716,1543
864.176208,1551
864.29364,1549
864.411194,1515
864.528687,1526
864.646118,1554
864.763611,1482
864.881042,1513
864.998535,1521
865.116028,1506
865.233459,1513
865.350891,1533
865.468384,1514
865.585754,1534
865.703308,1518
865.820679,1487
865.938171,1466
866.055542,1532
866.173035,1494
866.290466,1468
866.407837,1552
866.52533,1496
866.6427,1479
866.760071,1509
866.877563,1543
866.994934,1474
867.112305,1544
867.229736,1509
867.347107,1533
867.464539,1546
867.58197,1534
867.699341,1534
867.81665,1557
867.934082,1544
868.051453,1525
868.168823,1531
868.286194,1550
868.403564,1532
868.520935,1554
868.638306,1509
868.755676,1568
868.872986,1569
868.990295,1553
869.107727,1526
869.225037,1548
869.342346,1546
869.459717,1587
869.577026,1571
869.694336,1580
869.811707,1591
869.929016,1631
870.046326,1554
870.163635,1588
870.280945,1593
870.398254,1642
870.515564,1636
870.632812,1624
870.750183,1661
870.867432,1630
870.984741,1607
871.102051,1628
871.219299,1652
871.336609,1666
871.453918,1666
871.571106,1620
871.688416,1717
871.805664,1660
871.922852,1674
872.040222,1670
872.157471,1691
872.274719,1698
872.391968,1704
872.509155,1669
872.626465,1645
872.743652,1744
872.860962,1695
872.978149,1680
873.095337,1672
873.212646,1640
873.329834,1643
873.44696,1575
873.564209,1642
873.681396,1648
873.798645,1652
873.915894,1620
874.03302,1681
874.150208,1651
874.267456,1670
874.384583,1717
874.501831,1710
874.618958,1710
874.736145,1729
874.853333,1713
874.970459,1723
875.087646,1715
875.204834,1699
875.32196,1738
875.439148,1655
875.556274,1687
875.673401,1644
875.790527,1637
875.907715,1643
876.024841,1626
876.141968,1657
876.259094,1591
876.376282,1619
876.493347,1617
876.610474,1643
876.7276,1598
876.844727,1588
876.961853,1615
877.078918,1619
877.195984,1614
877.313171,1592
877.430237,1574
877.547302,1628
877.664368,1601
877.781433,1565
877.898499,1571
878.015625,1557
878.13269,1581
878.249695,1598
878.366821,1561
878.483887,1534
878.600952,1560
878.717957,1515
878.834961,1553
878.952087,1514
879.069092,1510
879.186157,1557
879.303162,1525
879.420227,1523
879.537231,1517
879.654236,1507
879.77124,1491
879.888306,1513
880.005249,1505
880.122314,1565
880.239319,1501
880.356323,1451
880.473328,1492
880.590271,1489
880.707275,1502
880.824341,1483
880.941284,1454
881.058228,1478
881.175232,1517
881.292236,1483
881.40918,1461
881.526123,1497
881.643066,1449
881.760071,1463
881.877014,1476
881.993958,1486
882.11084,1506
882.227783,1454
882.344727,1479
882.46167,1466
882.578613,1497
882.695618,1485
882.812439,1453
882.929382,1484
883.046326,1477
883.163208,1478
883.280151,1494
883.397034,1511
883.513916,1494
883.630798,1477
883.747742,1487
883.864563,1489
883.981506,1521
884.098389,1522
884.21521,1518
884.332153,1564
884.448975,1525
884.565796,1586
884.682678,1615
884.7995,1656
884.916443,1668
885.033264,1743
885.150085,1769
885.266968,1838
885.383789,1889
885.500671,1863
885.617493,1876
885.734314,1958
885.851196,1871
885.967896,1846
886.084717,1906
886.201599,1906
886.318359,1844
886.435181,1910
886.552002,1869
886.668762,1810
886.785645,1822
886.902344,1806
887.019165,1840
887.135925,1774
887.252747,1784
887.369446,1740
887.486267,1781
887.603027,1704
887.719788,1677
887.836548,1617
887.953247,1652
888.070068,1610
888.186829,1588
888.303528,1580
888.420288,1540
888.536987,1559
888.653687,1488
888.770447,1470
888.887146,1483
889.003967,1485
889.120667,1418
889.237305,1467
889.354065,1477
889.470703,1391
889.587463,1445
889.704163,1449
889.820862,1415
889.937561,1395
890.054199,1414
890.170837,1414
890.287598,1441
890.404236,1422
890.520874,1440
890.637634,1440
890.754211,1422
890.87085,1453
890.987549,1420
891.104187,1441
891.220886,1445
891.337463,1411
891.454102,1486
891.57074,1451
891.687378,1427
891.804077,1457
891.920654,1451
892.037231,1432
892.15387,1473
892.270447,1440
892.387085,1488
892.503723,1418
892.6203,1471
892.736877,1432
892.853516,1456
892.970032,1448
893.08667,1428
893.203186,1415
893.319763,1426
893.43634,1448
893.552917,1436
893.669556,1464
893.786011,1427
893.902588,1412
894.019165,1416
894.135681,1466
894.252197,1419
894.368835,1471
894.485291,1462
894.601868,1523
894.718384,1434
894.8349,1433
894.951355,1442
895.067932,1431
895.184448,1408
895.300964,1416
895.417419,1417
895.533936,1422
895.650452,1413
895.766907,1397
895.883423,1422
895.999878,1405
896.116333,1441
896.232849,1376
896.349304,1413
896.465759,1437
896.582214,1446
896.698669,1414
896.815125,1436
896.931641,1437
897.048035,1428
897.164551,1408
897.280884,1417
897.397339,1412
897.513794,1414
897.630249,1442
897.746582,1406
897.863098,1438
897.979431,1441
898.095886,1411
898.212341,1423
898.328674,1456
898.445129,1467
898.561462,1447
898.677795,1480
898.794312,1446
898.910645,1430
899.026978,1391
899.143433,1443
899.259766,1476
899.37616,1457
899.492493,1445
899.608765,1455
899.725159,1503
899.841553,1461
899.957947,1426
900.07428,1435
900.190552,1462
900.306946,1422
900.423157,1486
900.53949,1453
900.655884,1476
900.772156,1467
900.888489,1460
901.004822,1471
901.121033,1488
901.237366,1518
901.353699,1495
901.46991,1473
901.586304,1493
901.702515,1550
901.818787,1495
901.93512,1573
902.051331,1563
902.167603,1583
902.283875,1599
902.400085,1629
902.516418,1684
902.632629,1659
902.74884,1673
902.865112,1712
902.981384,1679
903.097595,1668
903.213867,1690
903.330017,1677
903.446289,1637
903.5625,1642
903.67865,1650
903.794922,1621
903.911072,1637
904.027344,1598
904.143494,1573
904.259705,1547
904.375916,1584
904.492065,1572
904.608215,1549
904.724426,1500
904.840576,1530
904.956726,1520
905.072876,1481
905.189087,1501
905.305176,1469
905.421387,1475
905.537537,1465
905.653687,1460
905.769775,1491
905.885925,1424
906.002014,1447
906.118164,1454
906.234314,1373
906.350403,1452
906.466492,1444
906.582642,1442
906.69873,1426
906.814758,1424
906.930908,1468
907.046936,1409
907.163086,1418
907.279175,1437
907.395264,1435
907.511353,1423
907.62738,1402
907.743408,1402
907.859497,1447
907.975525,1448
908.091553,1383
908.207703,1421
908.32373,1453
908.439758,1403
908.555786,1446
908.671814,1439
908.787842,1414
908.90387,1418
909.019775,1427
909.135864,1461
909.251892,1421
909.367859,1463
909.483826,1416
909.599854,1442
909.715881,1405
909.831848,1480
909.947815,1406
910.063782,1463
910.179749,1450
910.295776,1442
910.411743,1426
910.527649,1466
910.643616,1470
910.759583,1459
910.875488,1434
910.991455,1418
911.107361,1458
911.223267,1424
911.339294,1434
911.4552,1420
911.571106,1423
911.687073,1442
911.802979,1415
911.918823,1432
912.034729,1440
912.150635,1398
912.266602,1416
912.382446,1404
912.498352,1409
912.614197,1454
912.730103,1421
912.846008,1412
792.44574,4202
792.56488,4049
792.68396,3968
792.80304,3912
792.92218,3822
793.041199,3720
793.160339,3660
793.279419,3592
793.398499,3483
793.517578,3505
793.636658,3331
793.755737,3319
793.874817,3300
793.993896,3247
794.112976,3178
794.232056,3135
794.351074,3023
794.470215,3006
794.589233,2955
794.708313,2909
794.827393,2834
794.946411,2892
795.065552,2824
795.18457,2802
795.303589,2813
795.422668,2771
795.541687,2746
795.660767,2671
795.779846,2628
795.898865,2585
796.017883,2589
796.136963,2579
796.255981,2554
796.375061,2512
796.49408,2550
796.613037,2527
796.732117,2497
796.851135,2493
796.970154,2477
797.089233,2442
797.208191,2419
797.327271,2379
797.446228,2360
797.565186,2389
797.684265,2389
797.803223,2343
797.922241,2285
798.04126,2350
798.160278,2283
798.279297,2296
798.398315,2249
798.517273,2250
798.636292,2271
798.75531,2249
798.874268,2264
798.993286,2309
799.112244,2269
799.231323,2196
799.350281,2270
799.469238,2213
799.588257,2172
799.707153,2210
799.826111,2230
799.945129,2195
800.064087,2189
800.183044,2229
800.302063,2131
800.421021,2137
800.539978,2117
800.658936,2084
800.777893,2108
800.896912,2128
801.015747,2130
801.134705,2119
801.253723,2144
801.37262,2072
801.491638,2098
801.610535,2072
801.729492,2136
801.84845,2043
801.967407,2122
802.086243,2095
802.205261,2133
802.324158,2121
802.443115,2110
802.562073,2080
802.680969,2094
802.799927,2098
802.918762,2107
803.037659,2013
803.156677,2067
803.275574,1997
803.39447,2067
803.513428,1990
803.632263,2036
803.751221,2066
803.870117,2023
803.989014,2007
804.107971,2050
804.226746,2016
804.345642,2096
804.4646,2039
804.583496,1977
804.702393,2011
804.821228,2016
804.940125,2020
805.059021,2062
805.177917,1970
805.296814,2024
805.415649,2021
805.534546,2025
805.653442,2009
805.772278,2031
805.891113,2032
806.01001,2036
806.128906,2038
806.247742,1973
806.366577,1977
806.485413,2013
806.604309,2019
806.723145,2010
806.84198,2020
806.960876,1981
807.079712,2043
807.198486,2023
807.317383,2050
807.436218,2015
807.554993,1982
807.673889,1971
807.792725,1982
807.91156,1936
808.030396,1965
808.14917,1944
808.268005,1976
808.386841,1975
808.505676,1979
808.624451,1954
808.743286,1948
808.862122,1946
808.980896,1980
809.099731,1976
809.218506,1983
809.337341,1909
809.456116,1995
809.57489,1955
809.693726,1973
809.8125,2019
809.931274,2010
810.050049,1971
810.168884,1993
810.287659,1946
810.406372,2006
810.525269,2009
810.643982,1974
810.762756,1990
810.881531,2012
811.000305,1992
811.11908,2013
811.237854,2015
811.356567,1950
811.475403,2009
811.594116,1996
811.71283,2023
811.831604,1995
811.950378,2084
812.069153,2037
812.187927,2032
812.30658,2025
812.425415,1941
812.544128,2016
812.662781,1985
812.781616,1985
812.900269,2027
813.019043,2009
813.137756,2008
813.256531,1978
813.375244,2034
813.493896,1968
813.612671,2035
813.731384,1933
813.850037,1967
813.96875,1943
814.087524,1936
814.206238,1965
814.324951,1911
814.443604,1928
814.562256,1947
814.68103,1956
814.799683,1908
814.918335,1940
815.037109,1905
815.155762,1966
815.274475,1940
815.393188,1925
815.511841,1905
815.630554,1920
815.749146,1885
815.867859,1878
815.986572,1941
816.105164,1922
816.223877,1895
816.342529,1916
816.461182,1918
816.579895,1876
816.698486,1958
816.817139,1982
816.935791,1973
817.054504,1947
817.173096,2016
817.291748,1947
817.4104,1910
817.529053,1894
817.647644,1927
817.766235,1912
817.884949,1856
818.00354,1803
818.122192,1803
818.240845,1820
818.359436,1842
818.478088,1768
818.59668,1807
818.715271,1756
818.833923,1729
818.952515,1677
819.071106,1678
819.189758,1698
819.30835,1720
819.426941,1643
819.545532,1676
819.664124,1677
819.782715,1699
819.901306,1629
820.019897,1605
820.138489,1629
820.25708,1622
820.375671,1629
820.494202,1678
820.612732,1659
820.731384,1666
820.849915,1602
820.968506,1653
821.087097,1667
821.205627,1673
821.324158,1610
821.442749,1663
821.561279,1594
821.679871,1603
821.798401,1595
821.916931,1594
822.035461,1592
822.154053,1580
822.272583,1593
822.391174,1601
822.509583,1589
822.628174,1560
822.746704,1532
822.865234,1583
822.983765,1563
823.102295,1512
823.220825,1578
823.339294,1577
823.457825,1567
823.576355,1584
823.694824,1511
823.813354,1595
823.931885,1538
824.050354,1564
824.168884,1619
824.287354,1530
824.405823,1574
824.524353,1605
824.642822,1559
824.761353,1616
824.879822,1609
824.998291,1597
825.116699,1587
825.235291,1579
825.353699,1551
825.472168,1580
825.590637,1525
825.709106,1572
825.827576,1590
825.946045,1587
826.064453,1569
826.182983,1561
826.301392,1519
826.4198,1519
826.53833,1521
826.656738,1516
826.775208,1508
826.893677,1445
827.012024,1532
827.130493,1522
827.248962,1555
827.36731,1516
827.485779,1468
827.604248,1559
827.722595,1551
827.841064,1522
827.959412,1487
828.077942,1559
828.196289,1472
828.314636,1503
828.433105,1470
828.551514,1468
828.669861,1531
828.78833,1484
828.906677,1504
829.025085,1471
829.143433,1505
829.261841,1494
829.38031,1501
829.498657,1497
829.617004,1476
829.735413,1507
829.85376,1495
829.972107,1498
830.090515,1496
830.208862,1455
830.327209,1485
830.445557,1498
830.563904,1493
830.682312,1473
830.800659,1476
830.919006,1506
831.037354,1538
831.155701,1482
831.274048,1536
831.392395,1510
831.51062,1485
831.629028,1542
831.747314,1534
831.865662,1521
831.984009,1529
832.102356,1480
832.220642,1535
832.338928,1501
832.457275,1544
832.575623,1538
832.693909,1537
832.812134,1520
832.930481,1498
833.048828,1516
833.167114,1540
833.2854,1502
833.403687,1536
833.521973,1519
833.640259,1548
833.758545,1524
833.876831,1514
833.995056,1508
834.113281,1565
834.231628,1475
834.349915,1478
834.468201,1550
834.586426,1462
834.704651,1523
834.822998,1490
834.941162,1497
835.059448,1515
835.177673,1537
835.295959,1529
835.414246,1513
835.53241,1538
835.650635,1488
835.768921,1497
835.887146,1492
836.005371,1524
836.123596,1482
836.241821,1505
836.360046,1469
836.478271,1528
836.596497,1508
836.714722,1473
836.832886,1531
836.95105,1511
837.069336,1477
837.1875,1507
837.305725,1542
837.423889,1512
837.542053,1527
837.660339,1541
837.778503,1544
837.896667,1492
838.014832,1517
838.132996,1524
838.25116,1539
838.369385,1549
838.487488,1544
838.605713,1567
838.723877,1554
838.84198,1535
838.960205,1564
839.078308,1515
839.196472,1540
839.314636,1523
839.4328,1531
839.550964,1583
839.669067,1599
839.787231,1589
839.905396,1594
840.023499,1613
840.141602,1597
840.259766,1612
840.377869,1638
840.495972,1642
840.614136,1620
840.732239,1624
840.850342,1618
840.968445,1641
841.086548,1600
841.204651,1673
841.322754,1627
841.440918,1681
841.55896,1645
841.677002,1645
841.795166,1696
841.913208,1671
842.031311,1706
842.149353,1710
842.267456,1661
842.385498,1673
842.503601,1601
842.621643,1596
842.739746,1714
842.857788,1658
842.97583,1608
843.093933,1646
843.211975,1660
843.330017,1644
843.44812,1631
843.566101,1609
843.684204,1637
843.802246,1626
843.920227,1626
844.038269,1645
844.156311,1577
844.274292,1576
844.392395,1555
844.510376,1600
844.628357,1616
844.74646,1594
844.864441,1588
844.982422,1538
845.100403,1574
845.218384,1584
845.336426,1567
845.454468,1585
845.572449,1611
845.69043,1557
845.808411,1567
845.926453,1609
846.044373,1622
846.162354,1561
846.280396,1616
846.398315,1616
846.516296,1629
846.634216,1621
846.752197,1596
846.870178,1544
846.988098,1611
847.106079,1600
847.22406,1620
847.34198,1609
847.4599,1612
847.577881,1567
847.695801,1600
847.813782,1603
847.931641,1609
848.049561,1596
848.167603,1583
848.285461,1571
848.403381,1586
848.521362,1547
848.639221,1584
848.75708,1591
848.875,1618
848.99292,1638
849.110901,1610
849.22876,1568
849.34668,1632
849.464539,1632
849.582458,1606
849.700317,1598
849.818176,1605
849.936096,1606
850.053955,1589
850.171875,1620
850.289673,1588
850.407593,1617
850.525452,1622
850.643311,1585
850.761169,1597
850.878967,1593
850.996887,1628
851.114746,1559
851.232544,1569
851.350403,1604
851.468262,1593
851.58606,1569
851.703979,1595
851.821777,1615
851.939636,1575
852.057434,1593
852.175232,1551
852.293091,1558
852.410889,1572
852.528687,1677
852.646545,1733
852.764343,1724
852.88208,1691
852.999939,1693
853.117676,1599
853.235535,1572
853.353271,1594
853.471069,1587
853.588928,1583
853.706604,1584
853.824402,1570
853.9422,1560
854.059998,1564
854.177734,1571
854.295532,1633
854.413269,1607
854.531006,1660
854.648804,1675
854.766541,1650
854.884277,1656
855.002014,1630
855.119751,1665
855.237549,1612
855.355225,1579
855.473022,1620
855.590698,1640
855.708435,1642
855.826172,1624
855.943848,1659
856.061646,1651
856.179321,1596
856.296997,1625
856.414795,1669
856.53241,1688
856.650085,1649
856.767822,1674
856.885559,1723
857.003174,1697
857.120911,1666
857.238586,1678
857.356201,1701
857.473938,1661
857.591614,1684
857.709351,1686
857.826965,1708
857.944641,1714
858.062317,1656
858.179993,1688
858.297668,1669
858.415283,1697
858.532959,1691
858.650574,1610
858.768188,1688
858.885803,1642
859.003479,1647
859.121094,1649
859.23877,1686
859.356384,1641
859.473999,1611
859.591675,1653
859.709229,1635
859.826843,1622
859.944458,1625
860.062012,1587
860.179626,1614
860.297302,1569
860.414856,1602
860.532471,1579
860.650024,1641
860.767639,1607
860.885193,1574
861.002808,1559
861.120361,1604
861.237976,1591
861.35553,1573
861.473022,1637
861.590698,1587
861.708191,1609
861.825745,1608
861.943298,1621
862.060852,1605
862.178406,1517
862.295959,1556
862.413513,1523
862.531006,1499
862.64856,1486
862.766113,1495
862.883667,1526
863.00116,1514
863.118713,1496
863.236206,1477
863.353699,1508
863.471252,1549
863.588745,1536
863.706177,1564
863.82373,1535
863.941162,1546
864.058716,1550
864.176208,1587
864.29364,1549
864.411194,1536
864.528687,1527
864.646118,1509
864.763611,1503
864.881042,1474
864.998535,1528
865.116028,1539
865.233459,1513
865.350891,1526
865.468384,1503
865.585754,1547
865.703308,1524
865.820679,1514
865.938171,1538
866.055542,1483
866.173035,1531
866.290466,1500
866.407837,1479
866.52533,1515
866.6427,1490
866.760071,1516
866.877563,1479
866.994934,1580
867.112305,1531
867.229736,1546
867.347107,1553
867.464539,1554
867.58197,1547
867.699341,1529
867.81665,1540
867.934082,1533
868.051453,1561
868.168823,1569
868.286194,1497
868.403564,1516
868.520935,1511
868.638306,1541
868.755676,1563
868.872986,1583
868.990295,1535
869.107727,1626
869.225037,1596
869.342346,1569
869.459717,1611
869.577026,1603
869.694336,1607
869.811707,1618
869.929016,1626
870.046326,1600
870.163635,1589
870.280945,1604
870.398254,1609
870.515564,1634
870.632812,1622
870.750183,1690
870.867432,1642
870.984741,1616
871.102051,1658
871.219299,1658
871.336609,1678
871.453918,1736
871.571106,1722
871.688416,1733
871.805664,1728
871.922852,1681
872.040222,1684
872.157471,1679
872.274719,1710
872.391968,1726
872.509155,1687
872.626465,1665
872.743652,1682
872.860962,1693
872.978149,1661
873.095337,1675
873.212646,1630
873.329834,1668
873.44696,1659
873.564209,1695
873.681396,1647
873.798645,1685
873.915894,1678
874.03302,1693
874.150208,1656
874.267456,1733
874.384583,1666
874.501831,1688
874.618958,1714
874.736145,1731
874.853333,1716
874.970459,1719
875.087646,1708
875.204834,1750
875.32196,1666
875.439148,1669
875.556274,1707
875.673401,1662
875.790527,1690
875.907715,1628
876.024841,1648
876.141968,1636
876.259094,1637
876.376282,1660
876.493347,1586
876.610474,1602
876.7276,1607
876.844727,1579
876.961853,1585
877.078918,1617
877.195984,1597
877.313171,1608
877.430237,1585
877.547302,1596
877.664368,1588
877.781433,1601
877.898499,1566
878.015625,1634
878.13269,1578
878.249695,1565
878.366821,1568
878.483887,1575
878.600952,1566
878.717957,1566
878.834961,1576
878.952087,1554
879.069092,1517
879.186157,1532
879.303162,1523
879.420227,1564
879.537231,1512
879.654236,1528
879.77124,1521
879.888306,1525
880.005249,1528
880.122314,1489
880.239319,1525
880.356323,1488
880.473328,1457
880.590271,1532
880.707275,1530
880.824341,1513
880.941284,1506
881.058228,1528
881.175232,1509
881.292236,1540
881.40918,1462
881.526123,1502
881.643066,1492
881.760071,1510
881.877014,1478
881.993958,1513
882.11084,1528
882.227783,1483
882.344727,1467
882.46167,1476
882.578613,1476
882.695618,1485
882.812439,1490
882.929382,1516
883.046326,1526
883.163208,1481
883.280151,1523
883.397034,1491
883.513916,1513
883.630798,1533
883.747742,1496
883.864563,1552
883.981506,1539
884.098389,1549
884.21521,1545
884.332153,1602
884.448975,1543
884.565796,1635
884.682678,1604
884.7995,1705
884.916443,1728
885.033264,1811
885.150085,1795
885.266968,1851
885.383789,1887
885.500671,1926
885.617493,1898
885.734314,1951
885.851196,1933
885.967896,1905
886.084717,1874
886.201599,1853
886.318359,1864
886.435181,1890
886.552002,1828
886.668762,1822
886.785645,1856
886.902344,1813
887.019165,1818
887.135925,1808
887.252747,1778
887.369446,1782
887.486267,1720
887.603027,1738
887.719788,1683
887.836548,1673
887.953247,1663
888.070068,1659
888.186829,1616
888.303528,1606
888.420288,1551
888.536987,1555
888.653687,1506
888.770447,1499
888.887146,1480
889.003967,1466
889.120667,1489
889.237305,1487
889.354065,1460
889.470703,1456
889.587463,1475
889.704163,1490
889.820862,1437
889.937561,1440
890.054199,1482
890.170837,1396
890.287598,1440
890.404236,1425
890.520874,1445
890.637634,1485
890.754211,1441
890.87085,1440
890.987549,1441
891.104187,1496
891.220886,1448
891.337463,1471
891.454102,1486
891.57074,1449
891.687378,1481
891.804077,1458
891.920654,1492
892.037231,1504
892.15387,1431
892.270447,1483
892.387085,1450
892.503723,1475
892.6203,1433
892.736877,1471
892.853516,1466
892.970032,1457
893.08667,1478
893.203186,1448
893.319763,1468
893.43634,1472
893.552917,1473
893.669556,1480
893.786011,1547
893.902588,1462
894.019165,1465
894.135681,1451
894.252197,1503
894.368835,1482
894.485291,1475
894.601868,1484
894.718384,1481
894.8349,1442
894.951355,1470
895.067932,1458
895.184448,1478
895.300964,1452
895.417419,1451
895.533936,1428
895.650452,1430
895.766907,1468
895.883423,1452
895.999878,1456
896.116333,1413
896.232849,1452
896.349304,1432
896.465759,1420
896.582214,1469
896.698669,1478
896.815125,1437
896.931641,1469
897.048035,1426
897.164551,1512
897.280884,1448
897.397339,1454
897.513794,1438
897.630249,1488
897.746582,1452
897.863098,1423
897.979431,1481
898.095886,1410
898.212341,1430
898.328674,1459
898.445129,1512
898.561462,1420
898.677795,1505
898.794312,1477
898.910645,1482
899.026978,1452
899.143433,1476
899.259766,1480
899.37616,1501
899.492493,1457
899.608765,1495
899.725159,1466
899.841553,1462
899.957947,1459
900.07428,1493
900.190552,1498
900.306946,1451
900.423157,1456
900.53949,1506
900.655884,1492
900.772156,1475
900.888489,1460
901.004822,1491
901.121033,1528
901.237366,1463
901.353699,1521
901.46991,1470
901.586304,1541
901.702515,1491
901.818787,1553
901.93512,1526
902.051331,1590
902.167603,1643
902.283875,1629
902.400085,1636
902.516418,1681
902.632629,1699
902.74884,1671
902.865112,1710
902.981384,1738
903.097595,1744
903.213867,1675
903.330017,1721
903.446289,1694
903.5625,1682
903.67865,1612
903.794922,1651
903.911072,1681
904.027344,1641
904.143494,1568
904.259705,1611
904.375916,1557
904.492065,1614
904.608215,1569
904.724426,1576
904.840576,1531
904.956726,1543
905.072876,1532
905.189087,1492
905.305176,1485
905.421387,1506
905.537537,1514
905.653687,1543
905.769775,1456
905.885925,1468
906.002014,1435
906.118164,1520
906.234314,1483
906.350403,1452
906.466492,1468
906.582642,1482
906.69873,1420
906.814758,1483
906.930908,1460
907.046936,1421
907.163086,1460
907.279175,1449
907.395264,1458
907.511353,1415
907.62738,1471
907.743408,1458
907.859497,1427
907.975525,1451
908.091553,1467
908.207703,1445
908.32373,1446
908.439758,1482
908.555786,1428
908.671814,1494
908.787842,1449
908.90387,1488
909.019775,1472
909.135864,1447
909.251892,1452
909.367859,1467
909.483826,1482
909.599854,1475
909.715881,1520
909.831848,1463
909.947815,1474
910.063782,1474
910.179749,1488
910.295776,1463
910.411743,1462
910.527649,1486
910.643616,1480
910.759583,1435
910.875488,1490
910.991455,1431
911.107361,1442
911.223267,1465
911.339294,1480
911.4552,1436
911.571106,1441
911.687073,1456
911.802979,1442
911.918823,1420
912.034729,1445
912.150635,1417
912.266602,1441
912.382446,1436
912.498352,1456
912.614197,1402
912.730103,1472
912.846008,1430
792.44574,4267
792.56488,4130
792.68396,3987
792.80304,3898
792.92218,3841
793.041199,3711
793.160339,3667
793.279419,3554
793.398499,3549
793.517578,3421
793.636658,3356
793.755737,3419
793.874817,3279
793.993896,3219
794.112976,3194
794.232056,3065
794.351074,3117
794.470215,3016
794.589233,2941
794.708313,2934
794.827393,2892
794.946411,2861
795.065552,2859
795.18457,2812
795.303589,2744
795.422668,2781
795.541687,2764
795.660767,2635
795.779846,2699
795.898865,2687
796.017883,2637
796.136963,2527
796.255981,2593
796.375061,2521
796.49408,2587
796.613037,2509
796.732117,2502
796.851135,2528
796.970154,2432
797.089233,2399
797.208191,2426
797.327271,2409
797.446228,2411
797.565186,2362
797.684265,2363
797.803223,2352
797.922241,2400
798.04126,2334
798.160278,2283
798.279297,2270
798.398315,2312
798.517273,2276
798.636292,2267
798.75531,2317
798.874268,2259
798.993286,2245
799.112244,2237
799.231323,2236
799.350281,2240
799.469238,2253
799.588257,2178
799.707153,2202
799.826111,2261
799.945129,2177
800.064087,2227
800.183044,2204
800.302063,2179
800.421021,2177
800.539978,2202
800.658936,2204
800.777893,2121
800.896912,2204
801.015747,2169
801.134705,2170
801.253723,2090
801.37262,2202
801.491638,2133
801.610535,2135
801.729492,2093
801.84845,2104
801.967407,2096
802.086243,2091
802.205261,2092
802.324158,2096
802.443115,2100
802.562073,2098
802.680969,2062
802.799927,2089
802.918762,2103
803.037659,2061
803.156677,2025
803.275574,2078
803.39447,2067
803.513428,2097
803.632263,2047
803.751221,2057
803.870117,2044
803.989014,2078
804.107971,2036
804.226746,2021
804.345642,2058
804.4646,2018
804.583496,2006
804.702393,2029
804.821228,2030
804.940125,1976
805.059021,2030
805.177917,2020
805.296814,2039
805.415649,2020
805.534546,2016
805.653442,2020
805.772278,2008
805.891113,1986
806.01001,2001
806.128906,1998
806.247742,2004
806.366577,2074
806.485413,2019
806.604309,2016
806.723145,1998
806.84198,2034
806.960876,2048
807.079712,2003
807.198486,1986
807.317383,2017
807.436218,1983
807.554993,1947
807.673889,2025
807.792725,1998
807.91156,1976
808.030396,1999
808.14917,1978
808.268005,1971
808.386841,1969
808.505676,1996
808.624451,1995
808.743286,2024
808.862122,1959
808.980896,2004
809.099731,1952
809.218506,1996
809.337341,1958
809.456116,2006
809.57489,1976
809.693726,2049
809.8125,1975
809.931274,2000
810.050049,1979
810.168884,1996
810.287659,2002
810.406372,1991
810.525269,1993
810.643982,1995
810.762756,2005
810.881531,2039
811.000305,1982
811.11908,1986
811.237854,1982
811.356567,1981
811.475403,1918
811.594116,2033
811.71283,1998
811.831604,2034
811.950378,2042
812.069153,2001
812.187927,2046
812.30658,2016
812.425415,2032
812.544128,2022
812.662781,2013
812.781616,2010
812.900269,2004
813.019043,1976
813.137756,2013
813.256531,1988
813.375244,2004
813.493896,1972
813.612671,2021
813.731384,1960
813.850037,1999
813.96875,1959
814.087524,1979
814.206238,1892
814.324951,1938
814.443604,1966
814.562256,1926
814.68103,1957
814.799683,1968
814.918335,1930
815.037109,1972
815.155762,1957
815.274475,1918
815.393188,1925
815.511841,1884
815.630554,1952
815.749146,1938
815.867859,1933
815.986572,1922
816.105164,1932
816.223877,1932
816.342529,1891
816.461182,1968
816.579895,1962
816.698486,1926
816.817139,1995
816.935791,1906
817.054504,1987
817.173096,2029
817.291748,2024
817.4104,1907
817.529053,1952
817.647644,1906
817.766235,1901
817.884949,1863
818.00354,1880
818.122192,1822
818.240845,1818
818.359436,1820
818.478088,1788
818.59668,1785
818.715271,1775
818.833923,1745
818.952515,1736
819.071106,1722
819.189758,1685
819.30835,1717
819.426941,1631
819.545532,1695
819.664124,1704
819.782715,1603
819.901306,1654
820.019897,1624
820.138489,1672
820.25708,1633
820.375671,1659
820.494202,1667
820.612732,1665
820.731384,1688
820.849915,1682
820.968506,1662
821.087097,1607
821.205627,1648
821.324158,1632
821.442749,1620
821.561279,1579
821.679871,1594
821.798401,1566
821.916931,1632
822.035461,1575
822.154053,1602
822.272583,1576
822.391174,1596
822.509583,1620
822.628174,1616
822.746704,1593
822.865234,1586
822.983765,1580
823.102295,1562
823.220825,1575
823.339294,1583
823.457825,1579
823.576355,1580
823.694824,1564
823.813354,1558
823.931885,1536
824.050354,1578
824.168884,1561
824.287354,1574
824.405823,1555
824.524353,1562
824.642822,1618
824.761353,1564
824.879822,1609
824.998291,1567
825.116699,1606
825.235291,1630
825.353699,1586
825.472168,1538
825.590637,1543
825.709106,1559
825.827576,1597
825.946045,1558
826.064453,1580
826.182983,1570
826.301392,1533
826.4198,1534
826.53833,1564
826.656738,1539
826.775208,1500
826.893677,1529
827.012024,1495
827.130493,1522
827.248962,1530
827.36731,1518
827.485779,1541
827.604248,1506
827.722595,1521
827.841064,1462
827.959412,1490
828.077942,1488
828.196289,1495
828.314636,1542
828.433105,1479
828.551514,1565
828.669861,1499
828.78833,1495
828.906677,1506
829.025085,1506
829.143433,1492
829.261841,1506
829.38031,1478
829.498657,1514
829.617004,1557
829.735413,1499
829.85376,1494
829.972107,1531
830.090515,1463
830.208862,1515
830.327209,1501
830.445557,1487
830.563904,1521
830.682312,1502
830.800659,1479
830.919006,1535
831.037354,1507
831.155701,1552
831.274048,1518
831.392395,1514
831.51062,1540
831.629028,1492
831.747314,1526
831.865662,1490
831.984009,1530
832.102356,1513
832.220642,1505
832.338928,1565
832.457275,1551
832.575623,1584
832.693909,1564
832.812134,1502
832.930481,1519
833.048828,1512
833.167114,1499
833.2854,1517
833.403687,1497
833.521973,1484
833.640259,1522
833.758545,1536
833.876831,1503
833.995056,1505
834.113281,1520
834.231628,1520
834.349915,1547
834.468201,1494
834.586426,1514
834.704651,1488
834.822998,1550
834.941162,1536
835.059448,1558
835.177673,1520
835.295959,1533
835.414246,1509
835.53241,1501
835.650635,1531
835.768921,1525
835.887146,1520
836.005371,1501
836.123596,1514
836.241821,1487
836.360046,1500
836.478271,1482
836.596497,1538
836.714722,1525
836.832886,1511
836.95105,1508
837.069336,1513
837.1875,1523
837.305725,1497
837.423889,1508
837.542053,1485
837.660339,1540
837.778503,1478
837.896667,1547
838.014832,1526
838.132996,1553
838.25116,1583
838.369385,1512
838.487488,1553
838.605713,1572
838.723877,1536
838.84198,1574
838.960205,1560
839.078308,1593
839.196472,1566
839.314636,1555
839.4328,1584
839.550964,1554
839.669067,1601
839.787231,1605
839.905396,1644
840.023499,1607
840.141602,1607
840.259766,1609
840.377869,1623
840.495972,1627
840.614136,1635
840.732239,1600
840.850342,1620
840.968445,1623
841.086548,1629
841.204651,1654
841.322754,1656
841.440918,1671
841.55896,1664
841.677002,1700
841.795166,1634
841.913208,1687
842.031311,1712
842.149353,1695
842.267456,1691
842.385498,1663
842.503601,1678
842.621643,1661
842.739746,1643
842.857788,1618
842.97583,1658
843.093933,1644
843.211975,1628
843.330017,1654
843.44812,1675
843.566101,1610
843.684204,1596
843.802246,1632
843.920227,1653
844.038269,1611
844.156311,1643
844.274292,1618
844.392395,1610
844.510376,1604
844.628357,1578
844.74646,1577
844.864441,1591
844.982422,1624
845.100403,1580
845.218384,1613
845.336426,1583
845.454468,1560
845.572449,1575
845.69043,1608
845.808411,1565
845.926453,1574
846.044373,1568
846.162354,1531
846.280396,1594
846.398315,1576
846.516296,1646
846.634216,1617
846.752197,1610
846.870178,1604
846.988098,1605
847.106079,1594
847.22406,1602
847.34198,1627
847.4599,1611
847.577881,1667
847.695801,1585
847.813782,1600
847.931641,1592
848.049561,1600
848.167603,1562
848.285461,1562
848.403381,1558
848.521362,1551
848.639221,1618
848.75708,1602
848.875,1596
848.99292,1604
849.110901,1613
849.22876,1630
849.34668,1653
849.464539,1630
849.582458,1618
849.700317,1637
849.818176,1647
849.936096,1624
850.053955,1615
850.171875,1599
850.289673,1595
850.407593,1624
850.525452,1627
850.643311,1645
850.761169,1575
850.878967,1600
850.996887,1664
851.114746,1610
851.232544,1607
851.350403,1633
851.468262,1570
851.58606,1615
851.703979,1570
851.821777,1637
851.939636,1575
852.057434,1603
852.175232,1595
852.293091,1582
852.410889,1631
852.528687,1679
852.646545,1762
852.764343,1755
852.88208,1688
852.999939,1689
853.117676,1614
853.235535,1637
853.353271,1610
853.471069,1562
853.588928,1575
853.706604,1579
853.824402,1610
853.9422,1619
854.059998,1569
854.177734,1646
854.295532,1609
854.413269,1624
854.531006,1630
854.648804,1678
854.766541,1612
854.884277,1663
855.002014,1671
855.119751,1621
855.237549,1618
855.355225,1608
855.473022,1628
855.590698,1615
855.708435,1616
855.826172,1666
855.943848,1638
856.061646,1607
856.179321,1579
856.296997,1609
856.414795,1658
856.53241,1683
856.650085,1693
856.767822,1702
856.885559,1722
857.003174,1724
857.120911,1715
857.238586,1712
857.356201,1681
857.473938,1729
857.591614,1686
857.709351,1680
857.826965,1645
857.944641,1709
858.062317,1661
858.179993,1746
858.297668,1703
858.415283,1691
858.532959,1645
858.650574,1665
858.768188,1700
858.885803,1684
859.003479,1682
859.121094,1715
859.23877,1648
859.356384,1674
859.473999,1660
859.591675,1620
859.709229,1660
859.826843,1635
859.944458,1592
860.062012,1630
860.179626,1627
860.297302,1620
860.414856,1586
860.532471,1575
860.650024,1644
860.767639,1633
860.885193,1607
861.002808,1613
861.120361,1580
861.237976,1599
861.35553,1615
861.473022,1602
861.590698,1628
861.708191,1588
861.825745,1615
861.943298,1593
862.060852,1561
862.178406,1568
862.295959,1510
862.413513,1524
862.531006,1548
862.64856,1534
862.766113,1486
862.883667,1507
863.00116,1509
863.118713,1527
863.236206,1506
863.353699,1561
863.471252,1484
863.588745,1556
863.706177,1528
863.82373,1528
863.941162,1572
864.058716,1581
864.176208,1527
864.29364,1554
864.411194,1559
864.528687,1513
864.646118,1527
864.763611,1514
864.881042,1518
864.998535,1539
865.116028,1512
865.233459,1494
865.350891,1498
865.468384,1555
865.585754,1548
865.703308,1543
865.820679,1518
865.938171,1538
866.055542,1525
866.173035,1571
866.290466,1519
866.407837,1518
866.52533,1505
866.6427,1553
866.760071,1538
866.877563,1550
866.994934,1539
867.112305,1545
867.229736,1514
867.347107,1538
867.464539,1509
867.58197,1541
867.699341,1566
867.81665,1618
867.934082,1583
868.051453,1554
868.168823,1524
868.286194,1534
868.403564,1547
868.520935,1519
868.638306,1575
868.755676,1536
868.872986,1550
868.990295,1603
869.107727,1580
869.225037,1602
869.342346,1602
869.459717,1576
869.577026,1579
869.694336,1597
869.811707,1614
869.929016,1632
870.046326,1596
870.163635,1649
870.280945,1603
870.398254,1662
870.515564,1634
870.632812,1659
870.750183,1669
870.867432,1655
870.984741,1660
871.102051,1663
871.219299,1691
871.336609,1701
871.453918,1721
871.571106,1670
871.688416,1743
871.805664,1707
871.922852,1722
872.040222,1778
872.157471,1698
872.274719,1713
872.391968,1707
872.509155,1677
872.626465,1726
872.743652,1676
872.860962,1738
872.978149,1668
873.095337,1646
873.212646,1688
873.329834,1682
873.44696,1653
873.564209,1696
873.681396,1660
873.798645,1666
873.915894,1692
874.03302,1662
874.150208,1647
874.267456,1654
874.384583,1681
874.501831,1687
874.618958,1707
874.736145,1708
874.853333,1733
874.970459,1720
875.087646,1726
875.204834,1733
875.32196,1681
875.439148,1670
875.556274,1679
875.673401,1683
875.790527,1686
875.907715,1690
876.024841,1649
876.141968,1636
876.259094,1646
876.376282,1633
876.493347,1655
876.610474,1586
876.7276,1647
876.844727,1625
876.961853,1610
877.078918,1579
877.195984,1590
877.313171,1588
877.430237,1618
877.547302,1606
877.664368,1627
877.781433,1575
877.898499,1625
878.015625,1613
878.13269,1596
878.249695,1622
878.366821,1587
878.483887,1554
878.600952,1585
878.717957,1568
878.834961,1586
878.952087,1585
879.069092,1579
879.186157,1538
879.303162,1543
879.420227,1553
879.537231,1547
879.654236,1517
879.77124,1516
879.888306,1493
880.005249,1548
880.122314,1512
880.239319,1545
880.356323,1496
880.473328,1524
880.590271,1514
880.707275,1503
880.824341,1482
880.941284,1497
881.058228,1477
881.175232,1517
881.292236,1504
881.40918,1492
881.526123,1512
881.643066,1497
881.760071,1501
881.877014,1465
881.993958,1497
882.11084,1517
882.227783,1486
882.344727,1491
882.46167,1533
882.578613,1513
882.695618,1499
882.812439,1519
882.929382,1511
883.046326,1526
883.163208,1481
883.280151,1535
883.397034,1505
883.513916,1527
883.630798,1574
883.747742,1536
883.864563,1549
883.981506,1558
884.098389,1502
884.21521,1543
884.332153,1587
884.448975,1605
884.565796,1604
884.682678,1652
884.7995,1724
884.916443,1747
885.033264,1772
885.150085,1830
885.266968,1888
885.383789,1886
885.500671,1916
885.617493,1916
885.734314,1930
885.851196,1917
885.967896,1938
886.084717,1862
886.201599,1894
886.318359,1864
886.435181,1898
886.552002,1871
886.668762,1843
886.785645,1823
886.902344,1872
887.019165,1820
887.135925,1829
887.252747,1781
887.369446,1745
887.486267,1799
887.603027,1753
887.719788,1713
887.836548,1702
887.953247,1660
888.070068,1692
888.186829,1644
888.303528,1595
888.420288,1599
888.536987,1499
888.653687,1515
888.770447,1517
888.887146,1514
889.003967,1522
889.120667,1522
889.237305,1486
889.354065,1495
889.470703,1447
889.587463,1497
889.704163,1520
889.820862,1443
889.937561,1495
890.054199,1434
890.170837,1423
890.287598,1485
890.404236,1454
890.520874,1447
890.637634,1478
890.754211,1481
890.87085,1442
890.987549,1505
891.104187,1430
891.220886,1501
891.337463,1474
891.454102,1480
891.57074,1465
891.687378,1452
891.804077,1518
891.920654,1476
892.037231,1526
892.15387,1473
892.270447,1488
892.387085,1485
892.503723,1481
892.6203,1515
892.736877,1484
892.853516,1418
892.970032,1475
893.08667,1443
893.203186,1471
893.319763,1474
893.43634,1452
893.552917,1469
893.669556,1455
893.786011,1470
893.902588,1471
894.019165,1510
894.135681,1413
894.252197,1461
894.368835,1444
894.485291,1413
894.601868,1465
894.718384,1531
894.8349,1469
894.951355,1493
895.067932,1451
895.184448,1465
895.300964,1480
895.417419,1459
895.533936,1474
895.650452,1438
895.766907,1456
895.883423,1491
895.999878,1468
896.116333,1448
896.232849,1478
896.349304,1456
896.465759,1451
896.582214,1435
896.698669,1428
896.815125,1460
896.931641,1492
897.048035,1445
897.164551,1457
897.280884,1442
897.397339,1486
897.513794,1448
897.630249,1494
897.746582,1461
897.863098,1501
897.979431,1460
898.095886,1501
898.212341,1462
898.328674,1508
898.445129,1457
898.561462,1492
898.677795,1448
898.794312,1468
898.910645,1462
899.026978,1483
899.143433,1482
899.259766,1441
899.37616,1506
899.492493,1515
899.608765,1496
899.725159,1509
899.841553,1513
899.957947,1507
900.07428,1527
900.190552,1528
900.306946,1493
900.423157,1505
900.53949,1521
900.655884,1493
900.772156,1519
900.888489,1534
901.004822,1491
901.121033,1514
901.237366,1507
901.353699,1527
901.46991,1509
901.586304,1494
901.702515,1556
901.818787,1519
901.93512,1551
902.051331,1576
902.167603,1625
902.283875,1679
902.400085,1603
902.516418,1658
902.632629,1745
902.74884,1699
902.865112,1724
902.981384,1731
903.097595,1738
903.213867,1714
903.330017,1716
903.446289,1699
903.5625,1659
903.67865,1694
903.794922,1644
903.911072,1667
904.027344,1688
904.143494,1612
904.259705,1643
904.375916,1583
904.492065,1590
904.608215,1591
904.724426,1537
904.840576,1534
904.956726,1576
905.072876,1569
905.189087,1483
905.305176,1517
905.421387,1500
905.537537,1535
905.653687,1536
905.769775,1493
905.885925,1500
906.002014,1482
906.118164,1523
906.234314,1504
906.350403,1459
906.466492,1443
906.582642,1496
906.69873,1471
906.814758,1470
906.930908,1457
907.046936,1465
907.163086,1447
907.279175,1454
907.395264,1440
907.511353,1421
907.62738,1494
907.743408,1455
907.859497,1437
907.975525,1492
908.091553,1434
908.207703,1456
908.32373,1476
908.439758,1463
908.555786,1476
908.671814,1447
908.787842,1437
908.90387,1515
909.019775,1461
909.135864,1474
909.251892,1496
909.367859,1447
909.483826,1470
909.599854,1459
909.715881,1504
909.831848,1487
909.947815,1480
910.063782,1478
910.179749,1479
910.295776,1457
910.411743,1527
910.527649,1458
910.643616,1497
910.759583,1450
910.875488,1495
910.991455,1501
911.107361,1453
911.223267,1468
911.339294,1535
911.4552,1477
911.571106,1466
911.687073,1483
911.802979,1450
911.918823,1466
912.034729,1419
912.150635,1465
912.266602,1485
912.382446,1464
912.498352,1430
912.614197,1463
912.730103,1459
912.846008,1435
