792.44574,2157
792.56488,2137
792.68396,2125
792.80304,2158
792.92218,2054
793.041199,2032
793.160339,2045
793.279419,2047
793.398499,2069
793.517578,2048
793.636658,2082
793.755737,2013
793.874817,2020
793.993896,2025
794.112976,2045
794.232056,1968
794.351074,2001
794.470215,1969
794.589233,2002
794.708313,1983
794.827393,1951
794.946411,1970
795.065552,1998
795.18457,1973
795.303589,1995
795.422668,1940
795.541687,1941
795.660767,1949
795.779846,1934
795.898865,1903
796.017883,1929
796.136963,1930
796.255981,1912
796.375061,1980
796.49408,1904
796.613037,1963
796.732117,1934
796.851135,1880
796.970154,1890
797.089233,1918
797.208191,1856
797.327271,1886
797.446228,1904
797.565186,1904
797.684265,1960
797.803223,1848
797.922241,1906
798.04126,1917
798.160278,1885
798.279297,1885
798.398315,1910
798.517273,1902
798.636292,1923
798.75531,1929
798.874268,1945
798.993286,1880
799.112244,1884
799.231323,1891
799.350281,1888
799.469238,1895
799.588257,1925
799.707153,1859
799.826111,1942
799.945129,1912
800.064087,1898
800.183044,1935
800.302063,1874
800.421021,1916
800.539978,1897
800.658936,1893
800.777893,1916
800.896912,1868
801.015747,1896
801.134705,1948
801.253723,1889
801.37262,1936
801.491638,1914
801.610535,1949
801.729492,1937
801.84845,1907
801.967407,1957
802.086243,1912
802.205261,1924
802.324158,1957
802.443115,1931
802.562073,1952
802.680969,1990
802.799927,1964
802.918762,2001
803.037659,1976
803.156677,2005
803.275574,1980
803.39447,2018
803.513428,1987
803.632263,1960
803.751221,1960
803.870117,2021
803.989014,1946
804.107971,2007
804.226746,1977
804.345642,1997
804.4646,2005
804.583496,2017
804.702393,2040
804.821228,2055
804.940125,2025
805.059021,1977
805.177917,2010
805.296814,2015
805.415649,2071
805.534546,2063
805.653442,2045
805.772278,2063
805.891113,2083
806.01001,2073
806.128906,2070
806.247742,2093
806.366577,2088
806.485413,2067
806.604309,2086
806.723145,2033
806.84198,2068
806.960876,2101
807.079712,2056
807.198486,2126
807.317383,2101
807.436218,2069
807.554993,2098
807.673889,2085
807.792725,2117
807.91156,2085
808.030396,2047
808.14917,2092
808.268005,2111
808.386841,2150
808.505676,2139
808.624451,2129
808.743286,2150
808.862122,2146
808.980896,2142
809.099731,2098
809.218506,2122
809.337341,2140
809.456116,2117
809.57489,2224
809.693726,2140
809.8125,2121
809.931274,2158
810.050049,2208
810.168884,2140
810.287659,2215
810.406372,2172
810.525269,2174
810.643982,2174
810.762756,2182
810.881531,2133
811.000305,2139
811.11908,2151
811.237854,2127
811.356567,2176
811.475403,2130
811.594116,2151
811.71283,2163
811.831604,2150
811.950378,2208
812.069153,2123
812.187927,2226
812.30658,2198
812.425415,2155
812.544128,2176
812.662781,2175
812.781616,2134
812.900269,2146
813.019043,2147
813.137756,2121
813.256531,2170
813.375244,2187
813.493896,2183
813.612671,2209
813.731384,2175
813.850037,2173
813.96875,2141
814.087524,2168
814.206238,2193
814.324951,2078
814.443604,2137
814.562256,2094
814.68103,2147
814.799683,2195
814.918335,2146
815.037109,2113
815.155762,2119
815.274475,2139
815.393188,2149
815.511841,2100
815.630554,2087
815.749146,2086
815.867859,2065
815.986572,2127
816.105164,2071
816.223877,2089
816.342529,2028
816.461182,2100
816.579895,2101
816.698486,2089
816.817139,2126
816.935791,2066
817.054504,2076
817.173096,2076
817.291748,2058
817.4104,2015
817.529053,2038
817.647644,2038
817.766235,1997
817.884949,1897
818.00354,1904
818.122192,1789
818.240845,1793
818.359436,1815
818.478088,1749
818.59668,1738
818.715271,1741
818.833923,1720
818.952515,1713
819.071106,1643
819.189758,1586
819.30835,1611
819.426941,1567
819.545532,1583
819.664124,1567
819.782715,1567
819.901306,1533
820.019897,1544
820.138489,1502
820.25708,1504
820.375671,1546
820.494202,1511
820.612732,1495
820.731384,1500
820.849915,1504
820.968506,1475
821.087097,1482
821.205627,1476
821.324158,1488
821.442749,1464
821.561279,1469
821.679871,1461
821.798401,1442
821.916931,1453
822.035461,1428
822.154053,1419
822.272583,1438
822.391174,1425
822.509583,1440
822.628174,1409
822.746704,1405
822.865234,1427
822.983765,1451
823.102295,1446
823.220825,1428
823.339294,1444
823.457825,1446
823.576355,1464
823.694824,1485
823.813354,1446
823.931885,1467
824.050354,1442
824.168884,1492
824.287354,1478
824.405823,1455
824.524353,1477
824.642822,1498
824.761353,1489
824.879822,1477
824.998291,1450
825.116699,1422
825.235291,1440
825.353699,1463
825.472168,1434
825.590637,1416
825.709106,1389
825.827576,1433
825.946045,1403
826.064453,1401
826.182983,1398
826.301392,1395
826.4198,1404
826.53833,1368
826.656738,1374
826.775208,1380
826.893677,1335
827.012024,1398
827.130493,1333
827.248962,1363
827.36731,1355
827.485779,1373
827.604248,1338
827.722595,1360
827.841064,1370
827.959412,1324
828.077942,1338
828.196289,1305
828.314636,1352
828.433105,1324
828.551514,1358
828.669861,1344
828.78833,1321
828.906677,1291
829.025085,1354
829.143433,1342
829.261841,1335
829.38031,1306
829.498657,1343
829.617004,1304
829.735413,1342
829.85376,1299
829.972107,1310
830.090515,1338
830.208862,1348
830.327209,1336
830.445557,1332
830.563904,1351
830.682312,1319
830.800659,1322
830.919006,1301
831.037354,1354
831.155701,1306
831.274048,1349
831.392395,1302
831.51062,1313
831.629028,1297
831.747314,1343
831.865662,1350
831.984009,1320
832.102356,1329
832.220642,1302
832.338928,1322
832.457275,1291
832.575623,1325
832.693909,1286
832.812134,1332
832.930481,1312
833.048828,1311
833.167114,1317
833.2854,1284
833.403687,1325
833.521973,1310
833.640259,1320
833.758545,1297
833.876831,1321
833.995056,1320
834.113281,1276
834.231628,1323
834.349915,1308
834.468201,1322
834.586426,1331
834.704651,1293
834.822998,1315
834.941162,1296
835.059448,1304
835.177673,1323
835.295959,1283
835.414246,1356
835.53241,1314
835.650635,1297
835.768921,1315
835.887146,1362
836.005371,1319
836.123596,1377
836.241821,1371
836.360046,1345
836.478271,1338
836.596497,1332
836.714722,1356
836.832886,1420
836.95105,1381
837.069336,1426
837.1875,1413
837.305725,1396
837.423889,1393
837.542053,1400
837.660339,1406
837.778503,1453
837.896667,1401
838.014832,1414
838.132996,1374
838.25116,1448
838.369385,1377
838.487488,1413
838.605713,1406
838.723877,1399
838.84198,1353
838.960205,1381
839.078308,1420
839.196472,1347
839.314636,1387
839.4328,1377
839.550964,1354
839.669067,1401
839.787231,1387
839.905396,1358
840.023499,1375
840.141602,1398
840.259766,1383
840.377869,1359
840.495972,1391
840.614136,1326
840.732239,1332
840.850342,1343
840.968445,1323
841.086548,1313
841.204651,1300
841.322754,1376
841.440918,1333
841.55896,1339
841.677002,1285
841.795166,1308
841.913208,1341
842.031311,1359
842.149353,1303
842.267456,1280
842.385498,1281
842.503601,1328
842.621643,1298
842.739746,1294
842.857788,1287
842.97583,1303
843.093933,1287
843.211975,1255
843.330017,1296
843.44812,1273
843.566101,1242
843.684204,1285
843.802246,1288
843.920227,1253
844.038269,1282
844.156311,1318
844.274292,1272
844.392395,1279
844.510376,1275
844.628357,1279
844.74646,1247
844.864441,1279
844.982422,1282
845.100403,1275
845.218384,1235
845.336426,1269
845.454468,1269
845.572449,1268
845.69043,1244
845.808411,1269
845.926453,1279
846.044373,1256
846.162354,1270
846.280396,1276
846.398315,1246
846.516296,1237
846.634216,1264
846.752197,1272
846.870178,1258
846.988098,1275
847.106079,1225
847.22406,1238
847.34198,1254
847.4599,1280
847.577881,1254
847.695801,1280
847.813782,1242
847.931641,1260
848.049561,1275
848.167603,1280
848.285461,1253
848.403381,1275
848.521362,1261
848.639221,1252
848.75708,1263
848.875,1282
848.99292,1258
849.110901,1250
849.22876,1275
849.34668,1237
849.464539,1236
849.582458,1309
849.700317,1262
849.818176,1262
849.936096,1222
850.053955,1282
850.171875,1253
850.289673,1274
850.407593,1220
850.525452,1254
850.643311,1227
850.761169,1225
850.878967,1286
850.996887,1249
851.114746,1233
851.232544,1281
851.350403,1245
851.468262,1250
851.58606,1252
851.703979,1256
851.821777,1245
851.939636,1263
852.057434,1265
852.175232,1282
852.293091,1293
852.410889,1265
852.528687,1257
852.646545,1273
852.764343,1224
852.88208,1283
852.999939,1302
853.117676,1269
853.235535,1265
853.353271,1285
853.471069,1293
853.588928,1303
853.706604,1338
853.824402,1264
853.9422,1304
854.059998,1242
854.177734,1236
854.295532,1295
854.413269,1286
854.531006,1295
854.648804,1316
854.766541,1281
854.884277,1327
855.002014,1250
855.119751,1289
855.237549,1272
855.355225,1308
855.473022,1293
855.590698,1293
855.708435,1310
855.826172,1294
855.943848,1315
856.061646,1335
856.179321,1311
856.296997,1311
856.414795,1281
856.53241,1337
856.650085,1323
856.767822,1296
856.885559,1302
857.003174,1286
857.120911,1326
857.238586,1304
857.356201,1301
857.473938,1284
857.591614,1270
857.709351,1279
857.826965,1287
857.944641,1319
858.062317,1296
858.179993,1274
858.297668,1299
858.415283,1303
858.532959,1290
858.650574,1272
858.768188,1324
858.885803,1287
859.003479,1326
859.121094,1278
859.23877,1279
859.356384,1304
859.473999,1304
859.591675,1299
859.709229,1293
859.826843,1305
859.944458,1296
860.062012,1256
860.179626,1254
860.297302,1254
860.414856,1301
860.532471,1296
860.650024,1339
860.767639,1304
860.885193,1268
861.002808,1251
861.120361,1303
861.237976,1259
861.35553,1317
861.473022,1291
861.590698,1252
861.708191,1315
861.825745,1272
861.943298,1307
862.060852,1301
862.178406,1325
862.295959,1290
862.413513,1304
862.531006,1274
862.64856,1287
862.766113,1273
862.883667,1299
863.00116,1309
863.118713,1278
863.236206,1297
863.353699,1273
863.471252,1256
863.588745,1266
863.706177,1316
863.82373,1308
863.941162,1315
864.058716,1281
864.176208,1310
864.29364,1292
864.411194,1304
864.528687,1343
864.646118,1342
864.763611,1296
864.881042,1292
864.998535,1283
865.116028,1308
865.233459,1296
865.350891,1291
865.468384,1281
865.585754,1259
865.703308,1258
865.820679,1284
865.938171,1301
866.055542,1301
866.173035,1311
866.290466,1295
866.407837,1311
866.52533,1306
866.6427,1312
866.760071,1288
866.877563,1289
866.994934,1286
867.112305,1307
867.229736,1308
867.347107,1306
867.464539,1294
867.58197,1297
867.699341,1310
867.81665,1299
867.934082,1266
868.051453,1306
868.168823,1304
868.286194,1308
868.403564,1294
868.520935,1324
868.638306,1285
868.755676,1275
868.872986,1312
868.990295,1282
869.107727,1319
869.225037,1307
869.342346,1298
869.459717,1279
869.577026,1325
869.694336,1320
869.811707,1284
869.929016,1307
870.046326,1310
870.163635,1283
870.280945,1310
870.398254,1258
870.515564,1294
870.632812,1313
870.750183,1286
870.867432,1334
870.984741,1306
871.102051,1291
871.219299,1304
871.336609,1282
871.453918,1311
871.571106,1255
871.688416,1266
871.805664,1322
871.922852,1255
872.040222,1301
872.157471,1291
872.274719,1280
872.391968,1275
872.509155,1266
872.626465,1309
872.743652,1274
872.860962,1299
872.978149,1275
873.095337,1320
873.212646,1269
873.329834,1277
873.44696,1284
873.564209,1274
873.681396,1292
873.798645,1319
873.915894,1300
874.03302,1289
874.150208,1298
874.267456,1284
874.384583,1278
874.501831,1288
874.618958,1289
874.736145,1303
874.853333,1311
874.970459,1283
875.087646,1260
875.204834,1290
875.32196,1296
875.439148,1277
875.556274,1288
875.673401,1306
875.790527,1307
875.907715,1267
876.024841,1302
876.141968,1283
876.259094,1258
876.376282,1301
876.493347,1317
876.610474,1286
876.7276,1316
876.844727,1309
876.961853,1280
877.078918,1314
877.195984,1300
877.313171,1316
877.430237,1336
877.547302,1277
877.664368,1280
877.781433,1280
877.898499,1282
878.015625,1296
878.13269,1297
878.249695,1314
878.366821,1249
878.483887,1303
878.600952,1346
878.717957,1291
878.834961,1301
878.952087,1278
879.069092,1269
879.186157,1273
879.303162,1331
879.420227,1306
879.537231,1310
879.654236,1284
879.77124,1309
879.888306,1304
880.005249,1294
880.122314,1304
880.239319,1346
880.356323,1284
880.473328,1315
880.590271,1345
880.707275,1286
880.824341,1302
880.941284,1282
881.058228,1295
881.175232,1292
881.292236,1336
881.40918,1263
881.526123,1320
881.643066,1241
881.760071,1323
881.877014,1305
881.993958,1297
882.11084,1291
882.227783,1335
882.344727,1307
882.46167,1338
882.578613,1277
882.695618,1292
882.812439,1314
882.929382,1315
883.046326,1311
883.163208,1351
883.280151,1300
883.397034,1310
883.513916,1333
883.630798,1301
883.747742,1324
883.864563,1308
883.981506,1295
884.098389,1287
884.21521,1311
884.332153,1348
884.448975,1275
884.565796,1331
884.682678,1283
884.7995,1347
884.916443,1326
885.033264,1283
885.150085,1339
885.266968,1328
885.383789,1320
885.500671,1308
885.617493,1359
885.734314,1314
885.851196,1310
885.967896,1322
886.084717,1303
886.201599,1330
886.318359,1332
886.435181,1313
886.552002,1328
886.668762,1368
886.785645,1326
886.902344,1338
887.019165,1356
887.135925,1317
887.252747,1346
887.369446,1308
887.486267,1355
887.603027,1353
887.719788,1330
887.836548,1344
887.953247,1322
888.070068,1348
888.186829,1315
888.303528,1341
888.420288,1330
888.536987,1311
888.653687,1319
888.770447,1316
888.887146,1337
889.003967,1357
889.120667,1343
889.237305,1340
889.354065,1312
889.470703,1342
889.587463,1317
889.704163,1338
889.820862,1338
889.937561,1363
890.054199,1385
890.170837,1368
890.287598,1322
890.404236,1319
890.520874,1362
890.637634,1350
890.754211,1345
890.87085,1343
890.987549,1367
891.104187,1342
891.220886,1298
891.337463,1340
891.454102,1325
891.57074,1381
891.687378,1337
891.804077,1388
891.920654,1366
892.037231,1395
892.15387,1337
892.270447,1342
892.387085,1345
892.503723,1332
892.6203,1321
892.736877,1332
892.853516,1379
892.970032,1327
893.08667,1364
893.203186,1303
893.319763,1321
893.43634,1373
893.552917,1364
893.669556,1362
893.786011,1321
893.902588,1334
894.019165,1362
894.135681,1381
894.252197,1321
894.368835,1359
894.485291,1389
894.601868,1328
894.718384,1354
894.8349,1375
894.951355,1388
895.067932,1382
895.184448,1359
895.300964,1363
895.417419,1365
895.533936,1362
895.650452,1387
895.766907,1350
895.883423,1423
895.999878,1360
896.116333,1356
896.232849,1363
896.349304,1365
896.465759,1409
896.582214,1349
896.698669,1341
896.815125,1365
896.931641,1360
897.048035,1362
897.164551,1363
897.280884,1356
897.397339,1394
897.513794,1398
897.630249,1328
897.746582,1361
897.863098,1373
897.979431,1352
898.095886,1334
898.212341,1347
898.328674,1368
898.445129,1358
898.561462,1359
898.677795,1349
898.794312,1378
898.910645,1355
899.026978,1345
899.143433,1386
899.259766,1356
899.37616,1361
899.492493,1327
899.608765,1395
899.725159,1362
899.841553,1351
899.957947,1361
900.07428,1402
900.190552,1369
900.306946,1364
900.423157,1372
900.53949,1381
900.655884,1379
900.772156,1354
900.888489,1407
901.004822,1380
901.121033,1396
901.237366,1374
901.353699,1386
901.46991,1364
901.586304,1391
901.702515,1379
901.818787,1405
901.93512,1372
902.051331,1394
902.167603,1377
902.283875,1439
902.400085,1392
902.516418,1353
902.632629,1381
902.74884,1400
902.865112,1382
902.981384,1381
903.097595,1364
903.213867,1405
903.330017,1391
903.446289,1392
903.5625,1372
903.67865,1381
903.794922,1363
903.911072,1379
904.027344,1357
904.143494,1404
904.259705,1405
904.375916,1421
904.492065,1325
904.608215,1441
904.724426,1379
904.840576,1391
904.956726,1413
905.072876,1414
905.189087,1384
905.305176,1401
905.421387,1404
905.537537,1412
905.653687,1413
905.769775,1428
905.885925,1431
906.002014,1414
906.118164,1371
906.234314,1347
906.350403,1384
906.466492,1376
906.582642,1367
906.69873,1386
906.814758,1427
906.930908,1407
907.046936,1411
907.163086,1415
907.279175,1434
907.395264,1401
907.511353,1388
907.62738,1399
907.743408,1362
907.859497,1403
907.975525,1408
908.091553,1395
908.207703,1412
908.32373,1376
908.439758,1431
908.555786,1382
908.671814,1407
908.787842,1402
908.90387,1400
909.019775,1372
909.135864,1393
909.251892,1416
909.367859,1369
909.483826,1383
909.599854,1405
909.715881,1366
909.831848,1381
909.947815,1433
910.063782,1406
910.179749,1398
910.295776,1421
910.411743,1441
910.527649,1389
910.643616,1401
910.759583,1434
910.875488,1441
910.991455,1398
911.107361,1418
911.223267,1432
911.339294,1383
911.4552,1394
911.571106,1392
911.687073,1406
911.802979,1396
911.918823,1430
912.034729,1373
912.150635,1401
912.266602,1390
912.382446,1410
912.498352,1413
912.614197,1386
912.730103,1395
912.846008,1398
792.44574,2180
792.56488,2156
792.68396,2207
792.80304,2167
792.92218,2114
793.041199,1989
793.160339,2110
793.279419,2080
793.398499,2095
793.517578,2059
793.636658,2095
793.755737,2092
793.874817,2080
793.993896,2055
794.112976,2048
794.232056,1981
794.351074,1978
794.470215,2073
794.589233,1991
794.708313,1981
794.827393,2016
794.946411,2026
795.065552,2002
795.18457,1956
795.303589,2028
795.422668,1999
795.541687,1970
795.660767,2010
795.779846,1982
795.898865,1925
796.017883,1930
796.136963,1957
796.255981,1974
796.375061,1960
796.49408,1973
796.613037,1941
796.732117,1992
796.851135,1901
796.970154,1961
797.089233,1949
797.208191,1963
797.327271,1979
797.446228,1986
797.565186,1947
797.684265,1946
797.803223,1929
797.922241,1915
798.04126,1980
798.160278,1951
798.279297,1977
798.398315,1895
798.517273,1946
798.636292,1914
798.75531,1985
798.874268,1917
798.993286,1945
799.112244,1919
799.231323,1950
799.350281,1930
799.469238,1930
799.588257,1965
799.707153,1983
799.826111,1957
799.945129,1956
800.064087,1920
800.183044,1999
800.302063,1923
800.421021,1985
800.539978,1935
800.658936,1949
800.777893,1968
800.896912,1913
801.015747,1948
801.134705,1954
801.253723,1964
801.37262,1966
801.491638,1941
801.610535,1962
801.729492,2011
801.84845,1990
801.967407,1973
802.086243,2013
802.205261,2000
802.324158,1967
802.443115,1978
802.562073,1981
802.680969,1986
802.799927,1985
802.918762,1966
803.037659,1986
803.156677,2022
803.275574,2041
803.39447,2040
803.513428,2020
803.632263,2043
803.751221,1991
803.870117,2042
803.989014,2056
804.107971,2022
804.226746,2060
804.345642,2030
804.4646,2056
804.583496,2000
804.702393,2096
804.821228,2044
804.940125,2049
805.059021,2111
805.177917,2079
805.296814,2078
805.415649,2128
805.534546,2072
805.653442,2097
805.772278,2088
805.891113,2117
806.01001,2101
806.128906,2132
806.247742,2079
806.366577,2095
806.485413,2078
806.604309,2107
806.723145,2104
806.84198,2124
806.960876,2057
807.079712,2054
807.198486,2154
807.317383,2130
807.436218,2066
807.554993,2130
807.673889,2138
807.792725,2118
807.91156,2142
808.030396,2101
808.14917,2116
808.268005,2143
808.386841,2134
808.505676,2160
808.624451,2163
808.743286,2147
808.862122,2160
808.980896,2144
809.099731,2127
809.218506,2239
809.337341,2153
809.456116,2195
809.57489,2181
809.693726,2159
809.8125,2193
809.931274,2165
810.050049,2158
810.168884,2141
810.287659,2219
810.406372,2273
810.525269,2200
810.643982,2176
810.762756,2181
810.881531,2167
811.000305,2252
811.11908,2184
811.237854,2145
811.356567,2206
811.475403,2185
811.594116,2182
811.71283,2208
811.831604,2218
811.950378,2234
812.069153,2245
812.187927,2250
812.30658,2214
812.425415,2145
812.544128,2219
812.662781,2224
812.781616,2186
812.900269,2162
813.019043,2257
813.137756,2197
813.256531,2224
813.375244,2224
813.493896,2228
813.612671,2203
813.731384,2144
813.850037,2178
813.96875,2191
814.087524,2152
814.206238,2228
814.324951,2150
814.443604,2208
814.562256,2174
814.68103,2175
814.799683,2141
814.918335,2143
815.037109,2169
815.155762,2152
815.274475,2179
815.393188,2133
815.511841,2123
815.630554,2098
815.749146,2109
815.867859,2116
815.986572,2082
816.105164,2133
816.223877,2079
816.342529,2127
816.461182,2137
816.579895,2104
816.698486,2115
816.817139,2144
816.935791,2138
817.054504,2151
817.173096,2117
817.291748,2109
817.4104,2063
817.529053,2057
817.647644,2028
817.766235,1970
817.884949,1918
818.00354,1955
818.122192,1911
818.240845,1824
818.359436,1858
818.478088,1802
818.59668,1694
818.715271,1741
818.833923,1695
818.952515,1629
819.071106,1659
819.189758,1673
819.30835,1618
819.426941,1585
819.545532,1618
819.664124,1559
819.782715,1590
819.901306,1545
820.019897,1552
820.138489,1590
820.25708,1533
820.375671,1556
820.494202,1510
820.612732,1505
820.731384,1521
820.849915,1531
820.968506,1509
821.087097,1504
821.205627,1497
821.324158,1502
821.442749,1495
821.561279,1495
821.679871,1479
821.798401,1491
821.916931,1509
822.035461,1519
822.154053,1472
822.272583,1439
822.391174,1490
822.509583,1462
822.628174,1488
822.746704,1460
822.865234,1467
822.983765,1478
823.102295,1468
823.220825,1468
823.339294,1454
823.457825,1462
823.576355,1458
823.694824,1480
823.813354,1466
823.931885,1455
824.050354,1503
824.168884,1469
824.287354,1492
824.405823,1487
824.524353,1530
824.642822,1466
824.761353,1489
824.879822,1468
824.998291,1506
825.116699,1483
825.235291,1498
825.353699,1464
825.472168,1470
825.590637,1457
825.709106,1444
825.827576,1460
825.946045,1379
826.064453,1424
826.182983,1399
826.301392,1392
826.4198,1408
826.53833,1440
826.656738,1429
826.775208,1369
826.893677,1410
827.012024,1361
827.130493,1397
827.248962,1375
827.36731,1392
827.485779,1404
827.604248,1386
827.722595,1391
827.841064,1396
827.959412,1402
828.077942,1343
828.196289,1413
828.314636,1360
828.433105,1401
828.551514,1351
828.669861,1388
828.78833,1359
828.906677,1369
829.025085,1375
829.143433,1327
829.261841,1368
829.38031,1385
829.498657,1365
829.617004,1349
829.735413,1369
829.85376,1334
829.972107,1341
830.090515,1347
830.208862,1360
830.327209,1339
830.445557,1334
830.563904,1322
830.682312,1378
830.800659,1339
830.919006,1318
831.037354,1321
831.155701,1354
831.274048,1340
831.392395,1323
831.51062,1378
831.629028,1347
831.747314,1393
831.865662,1352
831.984009,1368
832.102356,1347
832.220642,1367
832.338928,1351
832.457275,1312
832.575623,1320
832.693909,1365
832.812134,1368
832.930481,1330
833.048828,1340
833.167114,1362
833.2854,1323
833.403687,1326
833.521973,1374
833.640259,1353
833.758545,1319
833.876831,1319
833.995056,1326
834.113281,1346
834.231628,1364
834.349915,1329
834.468201,1356
834.586426,1350
834.704651,1319
834.822998,1352
834.941162,1361
835.059448,1343
835.177673,1380
835.295959,1340
835.414246,1348
835.53241,1359
835.650635,1344
835.768921,1355
835.887146,1363
836.005371,1347
836.123596,1344
836.241821,1380
836.360046,1396
836.478271,1364
836.596497,1384
836.714722,1405
836.832886,1417
836.95105,1353
837.069336,1430
837.1875,1417
837.305725,1388
837.423889,1430
837.542053,1451
837.660339,1420
837.778503,1420
837.896667,1437
838.014832,1406
838.132996,1418
838.25116,1407
838.369385,1394
838.487488,1401
838.605713,1427
838.723877,1434
838.84198,1442
838.960205,1420
839.078308,1404
839.196472,1431
839.314636,1401
839.4328,1450
839.550964,1380
839.669067,1416
839.787231,1378
839.905396,1396
840.023499,1433
840.141602,1413
840.259766,1422
840.377869,1432
840.495972,1378
840.614136,1371
840.732239,1360
840.850342,1376
840.968445,1357
841.086548,1342
841.204651,1364
841.322754,1354
841.440918,1388
841.55896,1339
841.677002,1343
841.795166,1311
841.913208,1330
842.031311,1358
842.149353,1325
842.267456,1316
842.385498,1387
842.503601,1318
842.621643,1307
842.739746,1314
842.857788,1329
842.97583,1292
843.093933,1310
843.211975,1322
843.330017,1317
843.44812,1303
843.566101,1328
843.684204,1285
843.802246,1287
843.920227,1303
844.038269,1278
844.156311,1324
844.274292,1307
844.392395,1274
844.510376,1325
844.628357,1307
844.74646,1291
844.864441,1308
844.982422,1319
845.100403,1281
845.218384,1344
845.336426,1288
845.454468,1352
845.572449,1316
845.69043,1289
845.808411,1329
845.926453,1288
846.044373,1279
846.162354,1295
846.280396,1323
846.398315,1269
846.516296,1290
846.634216,1308
846.752197,1322
846.870178,1299
846.988098,1306
847.106079,1307
847.22406,1274
847.34198,1286
847.4599,1308
847.577881,1314
847.695801,1296
847.813782,1311
847.931641,1307
848.049561,1298
848.167603,1276
848.285461,1298
848.403381,1315
848.521362,1286
848.639221,1237
848.75708,1274
848.875,1266
848.99292,1309
849.110901,1255
849.22876,1270
849.34668,1315
849.464539,1318
849.582458,1309
849.700317,1278
849.818176,1301
849.936096,1304
850.053955,1262
850.171875,1304
850.289673,1261
850.407593,1288
850.525452,1292
850.643311,1251
850.761169,1293
850.878967,1302
850.996887,1290
851.114746,1294
851.232544,1278
851.350403,1284
851.468262,1275
851.58606,1275
851.703979,1324
851.821777,1300
851.939636,1263
852.057434,1287
852.175232,1257
852.293091,1301
852.410889,1307
852.528687,1319
852.646545,1292
852.764343,1296
852.88208,1271
852.999939,1296
853.117676,1324
853.235535,1323
853.353271,1280
853.471069,1325
853.588928,1278
853.706604,1277
853.824402,1283
853.9422,1279
854.059998,1283
854.177734,1322
854.295532,1312
854.413269,1289
854.531006,1328
854.648804,1262
854.766541,1308
854.884277,1340
855.002014,1326
855.119751,1316
855.237549,1329
855.355225,1343
855.473022,1351
855.590698,1298
855.708435,1294
855.826172,1325
855.943848,1342
856.061646,1307
856.179321,1343
856.296997,1342
856.414795,1350
856.53241,1329
856.650085,1345
856.767822,1334
856.885559,1319
857.003174,1318
857.120911,1313
857.238586,1342
857.356201,1362
857.473938,1337
857.591614,1304
857.709351,1320
857.826965,1341
857.944641,1315
858.062317,1321
858.179993,1323
858.297668,1322
858.415283,1360
858.532959,1323
858.650574,1318
858.768188,1312
858.885803,1313
859.003479,1305
859.121094,1309
859.23877,1332
859.356384,1296
859.473999,1263
859.591675,1299
859.709229,1296
859.826843,1303
859.944458,1296
860.062012,1317
860.179626,1328
860.297302,1259
860.414856,1303
860.532471,1308
860.650024,1300
860.767639,1317
860.885193,1309
861.002808,1283
861.120361,1274
861.237976,1292
861.35553,1306
861.473022,1298
861.590698,1289
861.708191,1296
861.825745,1320
861.943298,1328
862.060852,1297
862.178406,1326
862.295959,1330
862.413513,1292
862.531006,1300
862.64856,1308
862.766113,1320
862.883667,1292
863.00116,1333
863.118713,1281
863.236206,1324
863.353699,1303
863.471252,1309
863.588745,1311
863.706177,1272
863.82373,1298
863.941162,1331
864.058716,1301
864.176208,1344
864.29364,1303
864.411194,1352
864.528687,1295
864.646118,1340
864.763611,1308
864.881042,1337
864.998535,1298
865.116028,1329
865.233459,1275
865.350891,1353
865.468384,1333
865.585754,1323
865.703308,1303
865.820679,1331
865.938171,1303
866.055542,1312
866.173035,1330
866.290466,1331
866.407837,1344
866.52533,1300
866.6427,1318
866.760071,1308
866.877563,1328
866.994934,1337
867.112305,1324
867.229736,1281
867.347107,1319
867.464539,1361
867.58197,1361
867.699341,1322
867.81665,1298
867.934082,1300
868.051453,1333
868.168823,1314
868.286194,1344
868.403564,1342
868.520935,1311
868.638306,1384
868.755676,1297
868.872986,1321
868.990295,1329
869.107727,1347
869.225037,1331
869.342346,1297
869.459717,1304
869.577026,1342
869.694336,1329
869.811707,1346
869.929016,1349
870.046326,1358
870.163635,1341
870.280945,1321
870.398254,1323
870.515564,1340
870.632812,1309
870.750183,1323
870.867432,1330
870.984741,1357
871.102051,1341
871.219299,1288
871.336609,1331
871.453918,1294
871.571106,1337
871.688416,1319
871.805664,1289
871.922852,1331
872.040222,1339
872.157471,1304
872.274719,1327
872.391968,1312
872.509155,1339
872.626465,1358
872.743652,1334
872.860962,1336
872.978149,1301
873.095337,1353
873.212646,1327
873.329834,1264
873.44696,1327
873.564209,1324
873.681396,1300
873.798645,1327
873.915894,1331
874.03302,1331
874.150208,1338
874.267456,1381
874.384583,1268
874.501831,1316
874.618958,1325
874.736145,1342
874.853333,1316
874.970459,1315
875.087646,1339
875.204834,1343
875.32196,1309
875.439148,1314
875.556274,1321
875.673401,1298
875.790527,1331
875.907715,1333
876.024841,1300
876.141968,1345
876.259094,1324
876.376282,1318
876.493347,1315
876.610474,1313
876.7276,1307
876.844727,1321
876.961853,1329
877.078918,1336
877.195984,1330
877.313171,1332
877.430237,1330
877.547302,1321
877.664368,1341
877.781433,1327
877.898499,1372
878.015625,1310
878.13269,1311
878.249695,1300
878.366821,1338
878.483887,1339
878.600952,1320
878.717957,1325
878.834961,1341
878.952087,1338
879.069092,1327
879.186157,1371
879.303162,1353
879.420227,1324
879.537231,1347
879.654236,1312
879.77124,1338
879.888306,1338
880.005249,1341
880.122314,1309
880.239319,1333
880.356323,1353
880.473328,1313
880.590271,1351
880.707275,1303
880.824341,1355
880.941284,1336
881.058228,1337
881.175232,1362
881.292236,1321
881.40918,1362
881.526123,1304
881.643066,1361
881.760071,1291
881.877014,1345
881.993958,1338
882.11084,1347
882.227783,1350
882.344727,1345
882.46167,1345
882.578613,1336
882.695618,1314
882.812439,1305
882.929382,1321
883.046326,1336
883.163208,1342
883.280151,1363
883.397034,1315
883.513916,1341
883.630798,1370
883.747742,1315
883.864563,1328
883.981506,1324
884.098389,1356
884.21521,1343
884.332153,1370
884.448975,1354
884.565796,1346
884.682678,1338
884.7995,1387
884.916443,1357
885.033264,1372
885.150085,1346
885.266968,1423
885.383789,1357
885.500671,1334
885.617493,1344
885.734314,1383
885.851196,1349
885.967896,1396
886.084717,1326
886.201599,1332
886.318359,1360
886.435181,1377
886.552002,1335
886.668762,1328
886.785645,1365
886.902344,1366
887.019165,1378
887.135925,1355
887.252747,1385
887.369446,1369
887.486267,1390
887.603027,1321
887.719788,1399
887.836548,1369
887.953247,1360
888.070068,1372
888.186829,1348
888.303528,1414
888.420288,1328
888.536987,1416
888.653687,1309
888.770447,1343
888.887146,1363
889.003967,1378
889.120667,1314
889.237305,1387
889.354065,1378
889.470703,1300
889.587463,1385
889.704163,1392
889.820862,1359
889.937561,1333
890.054199,1383
890.170837,1404
890.287598,1328
890.404236,1341
890.520874,1355
890.637634,1373
890.754211,1325
890.87085,1362
890.987549,1354
891.104187,1416
891.220886,1368
891.337463,1353
891.454102,1387
891.57074,1331
891.687378,1378
891.804077,1394
891.920654,1377
892.037231,1388
892.15387,1368
892.270447,1361
892.387085,1399
892.503723,1376
892.6203,1406
892.736877,1367
892.853516,1399
892.970032,1405
893.08667,1386
893.203186,1397
893.319763,1292
893.43634,1367
893.552917,1403
893.669556,1397
893.786011,1380
893.902588,1351
894.019165,1382
894.135681,1400
894.252197,1390
894.368835,1405
894.485291,1396
894.601868,1395
894.718384,1361
894.8349,1382
894.951355,1400
895.067932,1402
895.184448,1386
895.300964,1379
895.417419,1409
895.533936,1408
895.650452,1413
895.766907,1423
895.883423,1386
895.999878,1378
896.116333,1414
896.232849,1400
896.349304,1407
896.465759,1391
896.582214,1363
896.698669,1387
896.815125,1392
896.931641,1365
897.048035,1373
897.164551,1400
897.280884,1399
897.397339,1376
897.513794,1426
897.630249,1412
897.746582,1357
897.863098,1452
897.979431,1356
898.095886,1360
898.212341,1388
898.328674,1412
898.445129,1399
898.561462,1400
898.677795,1390
898.794312,1402
898.910645,1369
899.026978,1388
899.143433,1409
899.259766,1364
899.37616,1423
899.492493,1431
899.608765,1374
899.725159,1380
899.841553,1392
899.957947,1474
900.07428,1424
900.190552,1384
900.306946,1383
900.423157,1402
900.53949,1419
900.655884,1393
900.772156,1396
900.888489,1440
901.004822,1420
901.121033,1410
901.237366,1394
901.353699,1426
901.46991,1405
901.586304,1401
901.702515,1412
901.818787,1405
901.93512,1396
902.051331,1398
902.167603,1430
902.283875,1445
902.400085,1421
902.516418,1399
902.632629,1426
902.74884,1411
902.865112,1436
902.981384,1390
903.097595,1447
903.213867,1417
903.330017,1364
903.446289,1365
903.5625,1417
903.67865,1440
903.794922,1444
903.911072,1427
904.027344,1370
904.143494,1444
904.259705,1422
904.375916,1421
904.492065,1421
904.608215,1420
904.724426,1412
904.840576,1423
904.956726,1401
905.072876,1412
905.189087,1419
905.305176,1423
905.421387,1480
905.537537,1426
905.653687,1483
905.769775,1394
905.885925,1441
906.002014,1425
906.118164,1444
906.234314,1431
906.350403,1438
906.466492,1444
906.582642,1449
906.69873,1412
906.814758,1435
906.930908,1424
907.046936,1410
907.163086,1430
907.279175,1429
907.395264,1457
907.511353,1388
907.62738,1466
907.743408,1483
907.859497,1453
907.975525,1408
908.091553,1470
908.207703,1431
908.32373,1458
908.439758,1452
908.555786,1429
908.671814,1419
908.787842,1423
908.90387,1426
909.019775,1424
909.135864,1433
909.251892,1412
909.367859,1456
909.483826,1406
909.599854,1414
909.715881,1461
909.831848,1454
909.947815,1415
910.063782,1435
910.179749,1418
910.295776,1463
910.411743,1447
910.527649,1436
910.643616,1462
910.759583,1425
910.875488,1448
910.991455,1447
911.107361,1458
911.223267,1452
911.339294,1430
911.4552,1480
911.571106,1451
911.687073,1418
911.802979,1447
911.918823,1454
912.034729,1466
912.150635,1467
912.266602,1423
912.382446,1439
912.498352,1395
912.614197,1442
912.730103,1424
912.846008,1443
792.44574,2260
792.56488,2253
792.68396,2225
792.80304,2217
792.92218,2157
793.041199,2124
793.160339,2147
793.279419,2164
793.398499,2103
793.517578,2098
793.636658,2104
793.755737,2093
793.874817,2097
793.993896,2080
794.112976,2098
794.232056,2039
794.351074,2052
794.470215,2049
794.589233,2027
794.708313,2015
794.827393,1991
794.946411,2001
795.065552,2020
795.18457,1984
795.303589,2011
795.422668,1983
795.541687,2006
795.660767,1987
795.779846,1961
795.898865,2035
796.017883,2001
796.136963,1985
796.255981,2011
796.375061,2014
796.49408,1998
796.613037,1987
796.732117,1989
796.851135,1962
796.970154,1988
797.089233,1955
797.208191,1974
797.327271,1951
797.446228,1945
797.565186,1941
797.684265,1952
797.803223,1983
797.922241,1944
798.04126,2014
798.160278,1973
798.279297,1947
798.398315,1945
798.517273,1935
798.636292,1942
798.75531,2001
798.874268,1926
798.993286,1981
799.112244,1926
799.231323,1950
799.350281,1922
799.469238,1929
799.588257,1979
799.707153,2014
799.826111,1990
799.945129,1961
800.064087,1908
800.183044,1961
800.302063,1949
800.421021,1990
800.539978,1955
800.658936,1910
800.777893,1962
800.896912,1973
801.015747,1991
801.134705,1956
801.253723,1916
801.37262,2004
801.491638,1989
801.610535,1932
801.729492,1962
801.84845,1956
801.967407,1991
802.086243,1997
802.205261,2020
802.324158,2017
802.443115,1987
802.562073,1995
802.680969,2015
802.799927,2016
802.918762,2022
803.037659,2033
803.156677,2028
803.275574,1979
803.39447,1998
803.513428,1974
803.632263,1999
803.751221,2046
803.870117,2017
803.989014,2060
804.107971,2082
804.226746,2054
804.345642,2085
804.4646,2039
804.583496,2135
804.702393,2031
804.821228,2058
804.940125,2111
805.059021,2093
805.177917,2122
805.296814,2033
805.415649,2073
805.534546,2106
805.653442,2073
805.772278,2093
805.891113,2115
806.01001,2086
806.128906,2140
806.247742,2141
806.366577,2132
806.485413,2139
806.604309,2165
806.723145,2113
806.84198,2121
806.960876,2084
807.079712,2124
807.198486,2167
807.317383,2102
807.436218,2089
807.554993,2138
807.673889,2145
807.792725,2116
807.91156,2137
808.030396,2131
808.14917,2166
808.268005,2172
808.386841,2163
808.505676,2110
808.624451,2151
808.743286,2212
808.862122,2146
808.980896,2222
809.099731,2167
809.218506,2176
809.337341,2168
809.456116,2172
809.57489,2174
809.693726,2178
809.8125,2195
809.931274,2197
810.050049,2194
810.168884,2189
810.287659,2142
810.406372,2221
810.525269,2177
810.643982,2203
810.762756,2220
810.881531,2185
811.000305,2170
811.11908,2201
811.237854,2195
811.356567,2170
811.475403,2199
811.594116,2208
811.71283,2185
811.831604,2186
811.950378,2199
812.069153,2188
812.187927,2186
812.30658,2178
812.425415,2250
812.544128,2211
812.662781,2210
812.781616,2231
812.900269,2254
813.019043,2196
813.137756,2231
813.256531,2222
813.375244,2180
813.493896,2184
813.612671,2265
813.731384,2204
813.850037,2224
813.96875,2175
814.087524,2184
814.206238,2206
814.324951,2207
814.443604,2212
814.562256,2234
814.68103,2170
814.799683,2126
814.918335,2159
815.037109,2165
815.155762,2174
815.274475,2139
815.393188,2137
815.511841,2167
815.630554,2103
815.749146,2124
815.867859,2123
815.986572,2075
816.105164,2075
816.223877,2132
816.342529,2101
816.461182,2147
816.579895,2166
816.698486,2172
816.817139,2139
816.935791,2164
817.054504,2171
817.173096,2084
817.291748,2162
817.4104,2095
817.529053,2076
817.647644,2047
817.766235,1985
817.884949,2012
818.00354,1927
818.122192,1909
818.240845,1878
818.359436,1810
818.478088,1783
818.59668,1743
818.715271,1710
818.833923,1684
818.952515,1749
819.071106,1682
819.189758,1661
819.30835,1638
819.426941,1601
819.545532,1623
819.664124,1582
819.782715,1569
819.901306,1560
820.019897,1598
820.138489,1558
820.25708,1536
820.375671,1553
820.494202,1529
820.612732,1530
820.731384,1525
820.849915,1516
820.968506,1528
821.087097,1525
821.205627,1538
821.324158,1522
821.442749,1522
821.561279,1475
821.679871,1493
821.798401,1479
821.916931,1458
822.035461,1495
822.154053,1499
822.272583,1475
822.391174,1507
822.509583,1508
822.628174,1453
822.746704,1453
822.865234,1447
822.983765,1452
823.102295,1445
823.220825,1428
823.339294,1468
823.457825,1454
823.576355,1448
823.694824,1466
823.813354,1509
823.931885,1513
824.050354,1539
824.168884,1518
824.287354,1463
824.405823,1511
824.524353,1543
824.642822,1530
824.761353,1477
824.879822,1501
824.998291,1479
825.116699,1493
825.235291,1522
825.353699,1501
825.472168,1459
825.590637,1491
825.709106,1424
825.827576,1411
825.946045,1438
826.064453,1449
826.182983,1397
826.301392,1468
826.4198,1422
826.53833,1419
826.656738,1429
826.775208,1416
826.893677,1415
827.012024,1417
827.130493,1414
827.248962,1384
827.36731,1378
827.485779,1397
827.604248,1396
827.722595,1371
827.841064,1389
827.959412,1393
828.077942,1377
828.196289,1369
828.314636,1379
828.433105,1389
828.551514,1365
828.669861,1352
828.78833,1393
828.906677,1347
829.025085,1376
829.143433,1378
829.261841,1365
829.38031,1365
829.498657,1354
829.617004,1337
829.735413,1371
829.85376,1347
829.972107,1372
830.090515,1336
830.208862,1364
830.327209,1333
830.445557,1388
830.563904,1358
830.682312,1392
830.800659,1385
830.919006,1399
831.037354,1357
831.155701,1356
831.274048,1350
831.392395,1360
831.51062,1344
831.629028,1360
831.747314,1353
831.865662,1336
831.984009,1333
832.102356,1348
832.220642,1338
832.338928,1328
832.457275,1352
832.575623,1331
832.693909,1322
832.812134,1357
832.930481,1357
833.048828,1346
833.167114,1382
833.2854,1360
833.403687,1372
833.521973,1344
833.640259,1343
833.758545,1357
833.876831,1363
833.995056,1331
834.113281,1337
834.231628,1316
834.349915,1343
834.468201,1348
834.586426,1359
834.704651,1342
834.822998,1336
834.941162,1355
835.059448,1346
835.177673,1351
835.295959,1349
835.414246,1327
835.53241,1361
835.650635,1353
835.768921,1352
835.887146,1411
836.005371,1387
836.123596,1398
836.241821,1423
836.360046,1368
836.478271,1422
836.596497,1393
836.714722,1418
836.832886,1378
836.95105,1410
837.069336,1380
837.1875,1420
837.305725,1423
837.423889,1429
837.542053,1473
837.660339,1430
837.778503,1447
837.896667,1456
838.014832,1436
838.132996,1411
838.25116,1407
838.369385,1483
838.487488,1401
838.605713,1483
838.723877,1439
838.84198,1421
838.960205,1427
839.078308,1423
839.196472,1386
839.314636,1423
839.4328,1416
839.550964,1412
839.669067,1415
839.787231,1373
839.905396,1384
840.023499,1374
840.141602,1383
840.259766,1403
840.377869,1412
840.495972,1368
840.614136,1397
840.732239,1368
840.850342,1429
840.968445,1364
841.086548,1360
841.204651,1342
841.322754,1392
841.440918,1386
841.55896,1374
841.677002,1369
841.795166,1344
841.913208,1328
842.031311,1340
842.149353,1356
842.267456,1312
842.385498,1334
842.503601,1314
842.621643,1307
842.739746,1366
842.857788,1288
842.97583,1294
843.093933,1309
843.211975,1315
843.330017,1288
843.44812,1319
843.566101,1300
843.684204,1354
843.802246,1280
843.920227,1320
844.038269,1338
844.156311,1343
844.274292,1280
844.392395,1320
844.510376,1309
844.628357,1294
844.74646,1313
844.864441,1277
844.982422,1328
845.100403,1290
845.218384,1290
845.336426,1297
845.454468,1310
845.572449,1293
845.69043,1339
845.808411,1280
845.926453,1273
846.044373,1295
846.162354,1310
846.280396,1308
846.398315,1315
846.516296,1305
846.634216,1339
846.752197,1276
846.870178,1308
846.988098,1291
847.106079,1290
847.22406,1299
847.34198,1298
847.4599,1263
847.577881,1317
847.695801,1298
847.813782,1282
847.931641,1310
848.049561,1295
848.167603,1292
848.285461,1328
848.403381,1302
848.521362,1285
848.639221,1332
848.75708,1314
848.875,1256
848.99292,1295
849.110901,1301
849.22876,1294
849.34668,1258
849.464539,1279
849.582458,1327
849.700317,1268
849.818176,1291
849.936096,1335
850.053955,1277
850.171875,1299
850.289673,1288
850.407593,1282
850.525452,1309
850.643311,1315
850.761169,1312
850.878967,1300
850.996887,1301
851.114746,1298
851.232544,1291
851.350403,1327
851.468262,1286
851.58606,1314
851.703979,1312
851.821777,1290
851.939636,1315
852.057434,1350
852.175232,1288
852.293091,1262
852.410889,1301
852.528687,1275
852.646545,1303
852.764343,1306
852.88208,1267
852.999939,1326
853.117676,1299
853.235535,1289
853.353271,1327
853.471069,1323
853.588928,1302
853.706604,1295
853.824402,1360
853.9422,1289
854.059998,1336
854.177734,1328
854.295532,1302
854.413269,1266
854.531006,1345
854.648804,1323
854.766541,1310
854.884277,1303
855.002014,1333
855.119751,1352
855.237549,1308
855.355225,1340
855.473022,1330
855.590698,1308
855.708435,1349
855.826172,1314
855.943848,1311
856.061646,1314
856.179321,1324
856.296997,1308
856.414795,1332
856.53241,1351
856.650085,1374
856.767822,1327
856.885559,1347
857.003174,1359
857.120911,1373
857.238586,1320
857.356201,1333
857.473938,1319
857.591614,1337
857.709351,1331
857.826965,1337
857.944641,1332
858.062317,1335
858.179993,1336
858.297668,1330
858.415283,1311
858.532959,1307
858.650574,1326
858.768188,1334
858.885803,1316
859.003479,1349
859.121094,1327
859.23877,1327
859.356384,1337
859.473999,1337
859.591675,1341
859.709229,1349
859.826843,1318
859.944458,1330
860.062012,1324
860.179626,1325
860.297302,1311
860.414856,1309
860.532471,1325
860.650024,1307
860.767639,1324
860.885193,1282
861.002808,1283
861.120361,1308
861.237976,1278
861.35553,1330
861.473022,1274
861.590698,1327
861.708191,1291
861.825745,1320
861.943298,1281
862.060852,1331
862.178406,1316
862.295959,1292
862.413513,1309
862.531006,1305
862.64856,1329
862.766113,1326
862.883667,1320
863.00116,1326
863.118713,1342
863.236206,1332
863.353699,1291
863.471252,1297
863.588745,1291
863.706177,1298
863.82373,1337
863.941162,1312
864.058716,1331
864.176208,1320
864.29364,1315
864.411194,1352
864.528687,1337
864.646118,1325
864.763611,1296
864.881042,1335
864.998535,1312
865.116028,1304
865.233459,1378
865.350891,1338
865.468384,1330
865.585754,1357
865.703308,1359
865.820679,1350
865.938171,1373
866.055542,1320
866.173035,1330
866.290466,1338
866.407837,1340
866.52533,1346
866.6427,1329
866.760071,1304
866.877563,1333
866.994934,1325
867.112305,1353
867.229736,1295
867.347107,1357
867.464539,1308
867.58197,1348
867.699341,1349
867.81665,1298
867.934082,1359
868.051453,1344
868.168823,1334
868.286194,1332
868.403564,1331
868.520935,1354
868.638306,1310
868.755676,1323
868.872986,1367
868.990295,1351
869.107727,1353
869.225037,1324
869.342346,1343
869.459717,1315
869.577026,1395
869.694336,1337
869.811707,1327
869.929016,1344
870.046326,1333
870.163635,1353
870.280945,1305
870.398254,1372
870.515564,1330
870.632812,1340
870.750183,1300
870.867432,1338
870.984741,1340
871.102051,1318
871.219299,1325
871.336609,1333
871.453918,1291
871.571106,1330
871.688416,1340
871.805664,1329
871.922852,1339
872.040222,1323
872.157471,1308
872.274719,1334
872.391968,1298
872.509155,1291
872.626465,1302
872.743652,1335
872.860962,1330
872.978149,1328
873.095337,1301
873.212646,1328
873.329834,1343
873.44696,1331
873.564209,1321
873.681396,1337
873.798645,1349
873.915894,1351
874.03302,1346
874.150208,1291
874.267456,1355
874.384583,1297
874.501831,1308
874.618958,1307
874.736145,1319
874.853333,1318
874.970459,1365
875.087646,1310
875.204834,1349
875.32196,1326
875.439148,1355
875.556274,1297
875.673401,1283
875.790527,1360
875.907715,1335
876.024841,1306
876.141968,1318
876.259094,1318
876.376282,1323
876.493347,1317
876.610474,1327
876.7276,1337
876.844727,1324
876.961853,1319
877.078918,1369
877.195984,1326
877.313171,1371
877.430237,1323
877.547302,1320
877.664368,1353
877.781433,1327
877.898499,1384
878.015625,1326
878.13269,1292
878.249695,1323
878.366821,1376
878.483887,1346
878.600952,1303
878.717957,1394
878.834961,1327
878.952087,1367
879.069092,1316
879.186157,1330
879.303162,1329
879.420227,1315
879.537231,1318
879.654236,1367
879.77124,1314
879.888306,1375
880.005249,1336
880.122314,1326
880.239319,1343
880.356323,1327
880.473328,1337
880.590271,1327
880.707275,1341
880.824341,1371
880.941284,1332
881.058228,1322
881.175232,1309
881.292236,1337
881.40918,1340
881.526123,1369
881.643066,1346
881.760071,1341
881.877014,1371
881.993958,1334
882.11084,1339
882.227783,1342
882.344727,1373
882.46167,1364
882.578613,1356
882.695618,1350
882.812439,1383
882.929382,1357
883.046326,1351
883.163208,1373
883.280151,1317
883.397034,1361
883.513916,1338
883.630798,1414
883.747742,1401
883.864563,1330
883.981506,1363
884.098389,1313
884.21521,1370
884.332153,1372
884.448975,1342
884.565796,1357
884.682678,1348
884.7995,1383
884.916443,1362
885.033264,1338
885.150085,1359
885.266968,1372
885.383789,1335
885.500671,1349
885.617493,1359
885.734314,1347
885.851196,1360
885.967896,1389
886.084717,1375
886.201599,1347
886.318359,1341
886.435181,1343
886.552002,1361
886.668762,1360
886.785645,1363
886.902344,1374
887.019165,1333
887.135925,1362
887.252747,1368
887.369446,1407
887.486267,1390
887.603027,1389
887.719788,1347
887.836548,1379
887.953247,1360
888.070068,1376
888.186829,1365
888.303528,1336
888.420288,1389
888.536987,1362
888.653687,1389
888.770447,1390
888.887146,1367
889.003967,1393
889.120667,1379
889.237305,1379
889.354065,1370
889.470703,1392
889.587463,1354
889.704163,1400
889.820862,1399
889.937561,1353
890.054199,1380
890.170837,1396
890.287598,1441
890.404236,1361
890.520874,1411
890.637634,1410
890.754211,1425
890.87085,1368
890.987549,1407
891.104187,1330
891.220886,1415
891.337463,1397
891.454102,1397
891.57074,1393
891.687378,1350
891.804077,1410
891.920654,1379
892.037231,1415
892.15387,1354
892.270447,1406
892.387085,1414
892.503723,1374
892.6203,1395
892.736877,1386
892.853516,1370
892.970032,1403
893.08667,1423
893.203186,1377
893.319763,1382
893.43634,1435
893.552917,1388
893.669556,1416
893.786011,1372
893.902588,1394
894.019165,1357
894.135681,1421
894.252197,1352
894.368835,1379
894.485291,1376
894.601868,1381
894.718384,1415
894.8349,1400
894.951355,1390
895.067932,1394
895.184448,1387
895.300964,1414
895.417419,1426
895.533936,1431
895.650452,1389
895.766907,1404
895.883423,1423
895.999878,1414
896.116333,1451
896.232849,1434
896.349304,1387
896.465759,1393
896.582214,1420
896.698669,1389
896.815125,1386
896.931641,1400
897.048035,1404
897.164551,1400
897.280884,1419
897.397339,1387
897.513794,1453
897.630249,1428
897.746582,1393
897.863098,1407
897.979431,1400
898.095886,1400
898.212341,1422
898.328674,1430
898.445129,1429
898.561462,1433
898.677795,1372
898.794312,1436
898.910645,1384
899.026978,1369
899.143433,1397
899.259766,1432
899.37616,1388
899.492493,1379
899.608765,1418
899.725159,1446
899.841553,1409
899.957947,1411
900.07428,1434
900.190552,1428
900.306946,1406
900.423157,1458
900.53949,1422
900.655884,1416
900.772156,1422
900.888489,1380
901.004822,1441
901.121033,1408
901.237366,1418
901.353699,1408
901.46991,1446
901.586304,1387
901.702515,1434
901.818787,1420
901.93512,1407
902.051331,1409
902.167603,1433
902.283875,1480
902.400085,1411
902.516418,1446
902.632629,1417
902.74884,1440
902.865112,1422
902.981384,1426
903.097595,1434
903.213867,1447
903.330017,1433
903.446289,1434
903.5625,1437
903.67865,1427
903.794922,1458
903.911072,1433
904.027344,1425
904.143494,1448
904.259705,1469
904.375916,1430
904.492065,1432
904.608215,1449
904.724426,1429
904.840576,1452
904.956726,1413
905.072876,1479
905.189087,1406
905.305176,1446
905.421387,1447
905.537537,1417
905.653687,1463
905.769775,1431
905.885925,1451
906.002014,1464
906.118164,1422
906.234314,1409
906.350403,1454
906.466492,1460
906.582642,1433
906.69873,1421
906.814758,1451
906.930908,1416
907.046936,1484
907.163086,1452
907.279175,1418
907.395264,1413
907.511353,1470
907.62738,1462
907.743408,1439
907.859497,1426
907.975525,1477
908.091553,1464
908.207703,1468
908.32373,1416
908.439758,1457
908.555786,1464
908.671814,1435
908.787842,1444
908.90387,1454
909.019775,1442
909.135864,1447
909.251892,1439
909.367859,1458
909.483826,1446
909.599854,1452
909.715881,1440
909.831848,1436
909.947815,1451
910.063782,1443
910.179749,1466
910.295776,1452
910.411743,1476
910.527649,1439
910.643616,1485
910.759583,1433
910.875488,1484
910.991455,1453
911.107361,1465
911.223267,1461
911.339294,1469
911.4552,1469
911.571106,1479
911.687073,1449
911.802979,1502
911.918823,1439
912.034729,1443
912.150635,1422
912.266602,1473
912.382446,1445
912.498352,1487
912.614197,1432
912.730103,1459
912.846008,1424
