792.44574,2421
792.56488,2422
792.68396,2439
792.80304,2325
792.92218,2300
793.041199,2243
793.160339,2196
793.279419,2227
793.398499,2195
793.517578,2167
793.636658,2219
793.755737,2170
793.874817,2146
793.993896,2105
794.112976,2087
794.232056,2035
794.351074,2107
794.470215,2089
794.589233,2031
794.708313,2022
794.827393,2022
794.946411,2027
795.065552,1948
795.18457,1991
795.303589,1955
795.422668,1924
795.541687,1952
795.660767,1927
795.779846,1896
795.898865,1894
796.017883,1974
796.136963,1895
796.255981,1940
796.375061,1915
796.49408,2001
796.613037,1890
796.732117,1939
796.851135,1875
796.970154,1872
797.089233,1874
797.208191,1867
797.327271,1877
797.446228,1903
797.565186,1898
797.684265,1851
797.803223,1861
797.922241,1860
798.04126,1839
798.160278,1836
798.279297,1798
798.398315,1816
798.517273,1822
798.636292,1803
798.75531,1822
798.874268,1820
798.993286,1889
799.112244,1820
799.231323,1849
799.350281,1916
799.469238,1838
799.588257,1824
799.707153,1883
799.826111,1849
799.945129,1815
800.064087,1870
800.183044,1847
800.302063,1768
800.421021,1843
800.539978,1826
800.658936,1841
800.777893,1822
800.896912,1883
801.015747,1812
801.134705,1806
801.253723,1816
801.37262,1788
801.491638,1835
801.610535,1808
801.729492,1858
801.84845,1809
801.967407,1808
802.086243,1857
802.205261,1861
802.324158,1847
802.443115,1873
802.562073,1895
802.680969,1820
802.799927,1836
802.918762,1804
803.037659,1859
803.156677,1844
803.275574,1871
803.39447,1875
803.513428,1858
803.632263,1882
803.751221,1894
803.870117,1863
803.989014,1819
804.107971,1859
804.226746,1847
804.345642,1878
804.4646,1851
804.583496,1815
804.702393,1855
804.821228,1880
804.940125,1858
805.059021,1899
805.177917,1886
805.296814,1870
805.415649,1863
805.534546,1877
805.653442,1860
805.772278,1871
805.891113,1856
806.01001,1914
806.128906,1900
806.247742,1878
806.366577,1853
806.485413,1946
806.604309,1881
806.723145,1892
806.84198,1884
806.960876,1871
807.079712,1872
807.198486,1905
807.317383,1894
807.436218,1875
807.554993,1887
807.673889,1908
807.792725,1912
807.91156,1902
808.030396,1909
808.14917,1859
808.268005,1908
808.386841,1924
808.505676,1886
808.624451,1894
808.743286,1911
808.862122,1915
808.980896,1933
809.099731,1919
809.218506,1927
809.337341,1902
809.456116,1962
809.57489,1919
809.693726,1971
809.8125,1940
809.931274,1927
810.050049,1962
810.168884,1943
810.287659,1950
810.406372,1974
810.525269,1931
810.643982,1876
810.762756,1974
810.881531,1922
811.000305,1914
811.11908,1955
811.237854,1920
811.356567,1881
811.475403,1925
811.594116,1948
811.71283,1900
811.831604,1955
811.950378,1953
812.069153,1936
812.187927,1990
812.30658,1979
812.425415,1926
812.544128,1954
812.662781,1944
812.781616,1916
812.900269,1947
813.019043,1933
813.137756,1952
813.256531,1929
813.375244,1925
813.493896,1952
813.612671,1922
813.731384,1940
813.850037,1942
813.96875,1964
814.087524,1942
814.206238,1865
814.324951,1921
814.443604,1858
814.562256,1956
814.68103,1906
814.799683,1880
814.918335,1939
815.037109,1892
815.155762,1864
815.274475,1879
815.393188,1927
815.511841,1855
815.630554,1866
815.749146,1906
815.867859,1869
815.986572,1840
816.105164,1904
816.223877,1846
816.342529,1842
816.461182,1846
816.579895,1830
816.698486,1938
816.817139,1863
816.935791,1851
817.054504,1888
817.173096,1815
817.291748,1854
817.4104,1884
817.529053,1836
817.647644,1826
817.766235,1804
817.884949,1741
818.00354,1732
818.122192,1738
818.240845,1692
818.359436,1623
818.478088,1660
818.59668,1619
818.715271,1630
818.833923,1604
818.952515,1548
819.071106,1512
819.189758,1552
819.30835,1535
819.426941,1492
819.545532,1469
819.664124,1504
819.782715,1459
819.901306,1507
820.019897,1489
820.138489,1466
820.25708,1470
820.375671,1445
820.494202,1495
820.612732,1454
820.731384,1513
820.849915,1445
820.968506,1445
821.087097,1416
821.205627,1426
821.324158,1439
821.442749,1406
821.561279,1414
821.679871,1427
821.798401,1413
821.916931,1413
822.035461,1423
822.154053,1435
822.272583,1382
822.391174,1405
822.509583,1422
822.628174,1406
822.746704,1435
822.865234,1424
822.983765,1430
823.102295,1373
823.220825,1400
823.339294,1393
823.457825,1424
823.576355,1419
823.694824,1335
823.813354,1416
823.931885,1405
824.050354,1419
824.168884,1435
824.287354,1450
824.405823,1393
824.524353,1490
824.642822,1422
824.761353,1430
824.879822,1463
824.998291,1465
825.116699,1406
825.235291,1447
825.353699,1427
825.472168,1402
825.590637,1335
825.709106,1413
825.827576,1379
825.946045,1389
826.064453,1390
826.182983,1392
826.301392,1422
826.4198,1344
826.53833,1394
826.656738,1358
826.775208,1343
826.893677,1357
827.012024,1377
827.130493,1372
827.248962,1361
827.36731,1344
827.485779,1347
827.604248,1334
827.722595,1355
827.841064,1366
827.959412,1358
828.077942,1329
828.196289,1360
828.314636,1327
828.433105,1321
828.551514,1319
828.669861,1335
828.78833,1349
828.906677,1307
829.025085,1322
829.143433,1316
829.261841,1296
829.38031,1312
829.498657,1294
829.617004,1324
829.735413,1364
829.85376,1286
829.972107,1311
830.090515,1342
830.208862,1318
830.327209,1325
830.445557,1315
830.563904,1335
830.682312,1315
830.800659,1304
830.919006,1344
831.037354,1350
831.155701,1360
831.274048,1361
831.392395,1336
831.51062,1280
831.629028,1315
831.747314,1360
831.865662,1280
831.984009,1326
832.102356,1328
832.220642,1305
832.338928,1328
832.457275,1338
832.575623,1303
832.693909,1292
832.812134,1312
832.930481,1339
833.048828,1316
833.167114,1290
833.2854,1322
833.403687,1325
833.521973,1336
833.640259,1300
833.758545,1294
833.876831,1322
833.995056,1304
834.113281,1366
834.231628,1336
834.349915,1316
834.468201,1340
834.586426,1286
834.704651,1298
834.822998,1324
834.941162,1322
835.059448,1342
835.177673,1340
835.295959,1289
835.414246,1330
835.53241,1316
835.650635,1323
835.768921,1333
835.887146,1337
836.005371,1302
836.123596,1330
836.241821,1350
836.360046,1335
836.478271,1333
836.596497,1393
836.714722,1346
836.832886,1323
836.95105,1345
837.069336,1382
837.1875,1388
837.305725,1386
837.423889,1399
837.542053,1423
837.660339,1373
837.778503,1388
837.896667,1397
838.014832,1376
838.132996,1389
838.25116,1367
838.369385,1366
838.487488,1370
838.605713,1359
838.723877,1354
838.84198,1355
838.960205,1382
839.078308,1352
839.196472,1361
839.314636,1341
839.4328,1422
839.550964,1351
839.669067,1382
839.787231,1352
839.905396,1381
840.023499,1357
840.141602,1379
840.259766,1412
840.377869,1346
840.495972,1371
840.614136,1363
840.732239,1381
840.850342,1346
840.968445,1319
841.086548,1351
841.204651,1344
841.322754,1370
841.440918,1320
841.55896,1366
841.677002,1342
841.795166,1378
841.913208,1358
842.031311,1352
842.149353,1324
842.267456,1338
842.385498,1333
842.503601,1348
842.621643,1286
842.739746,1325
842.857788,1346
842.97583,1278
843.093933,1345
843.211975,1315
843.330017,1376
843.44812,1335
843.566101,1337
843.684204,1335
843.802246,1332
843.920227,1365
844.038269,1337
844.156311,1318
844.274292,1330
844.392395,1325
844.510376,1280
844.628357,1290
844.74646,1322
844.864441,1305
844.982422,1305
845.100403,1329
845.218384,1272
845.336426,1328
845.454468,1297
845.572449,1330
845.69043,1285
845.808411,1277
845.926453,1320
846.044373,1296
846.162354,1282
846.280396,1313
846.398315,1322
846.516296,1320
846.634216,1319
846.752197,1281
846.870178,1311
846.988098,1307
847.106079,1333
847.22406,1277
847.34198,1311
847.4599,1278
847.577881,1297
847.695801,1295
847.813782,1312
847.931641,1309
848.049561,1305
848.167603,1291
848.285461,1289
848.403381,1321
848.521362,1309
848.639221,1278
848.75708,1307
848.875,1305
848.99292,1323
849.110901,1297
849.22876,1285
849.34668,1301
849.464539,1322
849.582458,1317
849.700317,1329
849.818176,1281
849.936096,1299
850.053955,1313
850.171875,1295
850.289673,1259
850.407593,1313
850.525452,1316
850.643311,1312
850.761169,1288
850.878967,1276
850.996887,1293
851.114746,1320
851.232544,1283
851.350403,1288
851.468262,1291
851.58606,1305
851.703979,1298
851.821777,1299
851.939636,1327
852.057434,1322
852.175232,1302
852.293091,1282
852.410889,1294
852.528687,1309
852.646545,1334
852.764343,1324
852.88208,1358
852.999939,1299
853.117676,1360
853.235535,1326
853.353271,1319
853.471069,1350
853.588928,1341
853.706604,1348
853.824402,1292
853.9422,1323
854.059998,1298
854.177734,1319
854.295532,1294
854.413269,1319
854.531006,1288
854.648804,1327
854.766541,1334
854.884277,1333
855.002014,1305
855.119751,1332
855.237549,1382
855.355225,1329
855.473022,1360
855.590698,1317
855.708435,1337
855.826172,1322
855.943848,1340
856.061646,1351
856.179321,1305
856.296997,1344
856.414795,1350
856.53241,1335
856.650085,1348
856.767822,1335
856.885559,1388
857.003174,1335
857.120911,1394
857.238586,1334
857.356201,1352
857.473938,1343
857.591614,1360
857.709351,1326
857.826965,1313
857.944641,1335
858.062317,1338
858.179993,1347
858.297668,1353
858.415283,1344
858.532959,1337
858.650574,1364
858.768188,1371
858.885803,1341
859.003479,1355
859.121094,1336
859.23877,1371
859.356384,1315
859.473999,1338
859.591675,1280
859.709229,1349
859.826843,1332
859.944458,1317
860.062012,1334
860.179626,1298
860.297302,1281
860.414856,1307
860.532471,1319
860.650024,1291
860.767639,1309
860.885193,1334
861.002808,1300
861.120361,1301
861.237976,1320
861.35553,1331
861.473022,1316
861.590698,1309
861.708191,1342
861.825745,1299
861.943298,1301
862.060852,1364
862.178406,1287
862.295959,1341
862.413513,1284
862.531006,1316
862.64856,1291
862.766113,1315
862.883667,1314
863.00116,1296
863.118713,1290
863.236206,1323
863.353699,1309
863.471252,1287
863.588745,1364
863.706177,1325
863.82373,1334
863.941162,1309
864.058716,1318
864.176208,1334
864.29364,1295
864.411194,1328
864.528687,1294
864.646118,1287
864.763611,1299
864.881042,1304
864.998535,1281
865.116028,1317
865.233459,1338
865.350891,1326
865.468384,1290
865.585754,1296
865.703308,1324
865.820679,1308
865.938171,1327
866.055542,1320
866.173035,1313
866.290466,1308
866.407837,1326
866.52533,1345
866.6427,1334
866.760071,1305
866.877563,1300
866.994934,1325
867.112305,1355
867.229736,1304
867.347107,1349
867.464539,1316
867.58197,1365
867.699341,1300
867.81665,1285
867.934082,1310
868.051453,1309
868.168823,1344
868.286194,1317
868.403564,1283
868.520935,1326
868.638306,1309
868.755676,1311
868.872986,1340
868.990295,1298
869.107727,1329
869.225037,1350
869.342346,1346
869.459717,1328
869.577026,1361
869.694336,1353
869.811707,1368
869.929016,1295
870.046326,1335
870.163635,1348
870.280945,1323
870.398254,1339
870.515564,1315
870.632812,1325
870.750183,1357
870.867432,1369
870.984741,1297
871.102051,1348
871.219299,1325
871.336609,1350
871.453918,1347
871.571106,1349
871.688416,1346
871.805664,1326
871.922852,1313
872.040222,1353
872.157471,1364
872.274719,1327
872.391968,1336
872.509155,1356
872.626465,1353
872.743652,1374
872.860962,1371
872.978149,1344
873.095337,1322
873.212646,1322
873.329834,1322
873.44696,1364
873.564209,1338
873.681396,1311
873.798645,1336
873.915894,1333
874.03302,1365
874.150208,1371
874.267456,1355
874.384583,1339
874.501831,1351
874.618958,1373
874.736145,1400
874.853333,1328
874.970459,1358
875.087646,1387
875.204834,1374
875.32196,1317
875.439148,1333
875.556274,1370
875.673401,1335
875.790527,1367
875.907715,1356
876.024841,1356
876.141968,1355
876.259094,1353
876.376282,1332
876.493347,1330
876.610474,1302
876.7276,1336
876.844727,1328
876.961853,1332
877.078918,1366
877.195984,1318
877.313171,1325
877.430237,1340
877.547302,1342
877.664368,1348
877.781433,1319
877.898499,1337
878.015625,1302
878.13269,1317
878.249695,1349
878.366821,1330
878.483887,1345
878.600952,1341
878.717957,1330
878.834961,1314
878.952087,1312
879.069092,1319
879.186157,1345
879.303162,1297
879.420227,1327
879.537231,1355
879.654236,1330
879.77124,1318
879.888306,1323
880.005249,1343
880.122314,1298
880.239319,1320
880.356323,1289
880.473328,1315
880.590271,1342
880.707275,1326
880.824341,1289
880.941284,1325
881.058228,1362
881.175232,1329
881.292236,1280
881.40918,1300
881.526123,1303
881.643066,1321
881.760071,1367
881.877014,1285
881.993958,1348
882.11084,1281
882.227783,1315
882.344727,1308
882.46167,1306
882.578613,1324
882.695618,1304
882.812439,1340
882.929382,1288
883.046326,1342
883.163208,1331
883.280151,1318
883.397034,1346
883.513916,1334
883.630798,1342
883.747742,1361
883.864563,1336
883.981506,1362
884.098389,1321
884.21521,1341
884.332153,1374
884.448975,1315
884.565796,1374
884.682678,1322
884.7995,1409
884.916443,1356
885.033264,1400
885.150085,1419
885.266968,1438
885.383789,1411
885.500671,1430
885.617493,1443
885.734314,1420
885.851196,1418
885.967896,1474
886.084717,1425
886.201599,1429
886.318359,1411
886.435181,1408
886.552002,1419
886.668762,1402
886.785645,1393
886.902344,1411
887.019165,1384
887.135925,1446
887.252747,1413
887.369446,1424
887.486267,1423
887.603027,1357
887.719788,1410
887.836548,1393
887.953247,1337
888.070068,1367
888.186829,1392
888.303528,1349
888.420288,1365
888.536987,1343
888.653687,1334
888.770447,1369
888.887146,1356
889.003967,1354
889.120667,1343
889.237305,1332
889.354065,1313
889.470703,1336
889.587463,1328
889.704163,1329
889.820862,1364
889.937561,1327
890.054199,1349
890.170837,1374
890.287598,1296
890.404236,1355
890.520874,1300
890.637634,1348
890.754211,1341
890.87085,1354
890.987549,1355
891.104187,1331
891.220886,1344
891.337463,1348
891.454102,1339
891.57074,1336
891.687378,1357
891.804077,1404
891.920654,1304
892.037231,1334
892.15387,1345
892.270447,1352
892.387085,1331
892.503723,1349
892.6203,1377
892.736877,1310
892.853516,1320
892.970032,1371
893.08667,1324
893.203186,1345
893.319763,1340
893.43634,1380
893.552917,1347
893.669556,1353
893.786011,1334
893.902588,1351
894.019165,1369
894.135681,1362
894.252197,1369
894.368835,1384
894.485291,1374
894.601868,1341
894.718384,1356
894.8349,1334
894.951355,1332
895.067932,1346
895.184448,1340
895.300964,1334
895.417419,1348
895.533936,1360
895.650452,1384
895.766907,1313
895.883423,1338
895.999878,1329
896.116333,1354
896.232849,1389
896.349304,1317
896.465759,1383
896.582214,1398
896.698669,1355
896.815125,1338
896.931641,1371
897.048035,1347
897.164551,1369
897.280884,1364
897.397339,1335
897.513794,1355
897.630249,1315
897.746582,1367
897.863098,1369
897.979431,1369
898.095886,1359
898.212341,1392
898.328674,1325
898.445129,1364
898.561462,1352
898.677795,1391
898.794312,1408
898.910645,1398
899.026978,1356
899.143433,1329
899.259766,1398
899.37616,1332
899.492493,1342
899.608765,1358
899.725159,1361
899.841553,1362
899.957947,1377
900.07428,1366
900.190552,1406
900.306946,1358
900.423157,1351
900.53949,1356
900.655884,1327
900.772156,1353
900.888489,1356
901.004822,1364
901.121033,1344
901.237366,1358
901.353699,1376
901.46991,1381
901.586304,1353
901.702515,1356
901.818787,1384
901.93512,1339
902.051331,1379
902.167603,1383
902.283875,1375
902.400085,1406
902.516418,1382
902.632629,1422
902.74884,1417
902.865112,1460
902.981384,1449
903.097595,1464
903.213867,1411
903.330017,1388
903.446289,1413
903.5625,1407
903.67865,1397
903.794922,1399
903.911072,1395
904.027344,1413
904.143494,1393
904.259705,1406
904.375916,1390
904.492065,1370
904.608215,1403
904.724426,1378
904.840576,1428
904.956726,1345
905.072876,1405
905.189087,1409
905.305176,1408
905.421387,1358
905.537537,1424
905.653687,1416
905.769775,1384
905.885925,1364
906.002014,1363
906.118164,1382
906.234314,1376
906.350403,1361
906.466492,1363
906.582642,1385
906.69873,1362
906.814758,1341
906.930908,1433
907.046936,1375
907.163086,1395
907.279175,1363
907.395264,1399
907.511353,1379
907.62738,1373
907.743408,1386
907.859497,1388
907.975525,1393
908.091553,1375
908.207703,1428
908.32373,1405
908.439758,1369
908.555786,1368
908.671814,1381
908.787842,1382
908.90387,1398
909.019775,1366
909.135864,1386
909.251892,1409
909.367859,1382
909.483826,1364
909.599854,1367
909.715881,1347
909.831848,1363
909.947815,1434
910.063782,1414
910.179749,1387
910.295776,1384
910.411743,1388
910.527649,1380
910.643616,1407
910.759583,1420
910.875488,1377
910.991455,1402
911.107361,1344
911.223267,1430
911.339294,1404
911.4552,1393
911.571106,1368
911.687073,1392
911.802979,1390
911.918823,1389
912.034729,1344
912.150635,1404
912.266602,1373
912.382446,1358
912.498352,1334
912.614197,1345
912.730103,1385
912.846008,1336
792.44574,2480
792.56488,2430
792.68396,2439
792.80304,2412
792.92218,2306
793.041199,2291
793.160339,2248
793.279419,2305
793.398499,2237
793.517578,2241
793.636658,2273
793.755737,2184
793.874817,2165
793.993896,2082
794.112976,2143
794.232056,2112
794.351074,2088
794.470215,2082
794.589233,2062
794.708313,2000
794.827393,2013
794.946411,1987
795.065552,2034
795.18457,2004
795.303589,2060
795.422668,2020
795.541687,2000
795.660767,1969
795.779846,1987
795.898865,2016
796.017883,1936
796.136963,1928
796.255981,2006
796.375061,1977
796.49408,1941
796.613037,1956
796.732117,1943
796.851135,1967
796.970154,1855
797.089233,1910
797.208191,1924
797.327271,1878
797.446228,1939
797.565186,1889
797.684265,1956
797.803223,1881
797.922241,1894
798.04126,1917
798.160278,1901
798.279297,1859
798.398315,1850
798.517273,1875
798.636292,1873
798.75531,1878
798.874268,1891
798.993286,1926
799.112244,1926
799.231323,1852
799.350281,1895
799.469238,1857
799.588257,1835
799.707153,1856
799.826111,1884
799.945129,1880
800.064087,1929
800.183044,1840
800.302063,1876
800.421021,1851
800.539978,1871
800.658936,1914
800.777893,1880
800.896912,1890
801.015747,1864
801.134705,1856
801.253723,1874
801.37262,1858
801.491638,1830
801.610535,1839
801.729492,1839
801.84845,1841
801.967407,1856
802.086243,1823
802.205261,1881
802.324158,1868
802.443115,1836
802.562073,1857
802.680969,1865
802.799927,1891
802.918762,1873
803.037659,1902
803.156677,1913
803.275574,1913
803.39447,1882
803.513428,1898
803.632263,1896
803.751221,1850
803.870117,1843
803.989014,1852
804.107971,1920
804.226746,1922
804.345642,1848
804.4646,1890
804.583496,1970
804.702393,1904
804.821228,1890
804.940125,1879
805.059021,1870
805.177917,1897
805.296814,1912
805.415649,1899
805.534546,1902
805.653442,1910
805.772278,1900
805.891113,1942
806.01001,1963
806.128906,1936
806.247742,1938
806.366577,1930
806.485413,1933
806.604309,1901
806.723145,1938
806.84198,1925
806.960876,1897
807.079712,1925
807.198486,1902
807.317383,1911
807.436218,1939
807.554993,1940
807.673889,1910
807.792725,1900
807.91156,1896
808.030396,1927
808.14917,1901
808.268005,1903
808.386841,1949
808.505676,1992
808.624451,1948
808.743286,1959
808.862122,1930
808.980896,1927
809.099731,1967
809.218506,1959
809.337341,1940
809.456116,1961
809.57489,1958
809.693726,1953
809.8125,1937
809.931274,1909
810.050049,1944
810.168884,2007
810.287659,1958
810.406372,1956
810.525269,1986
810.643982,1947
810.762756,1960
810.881531,1894
811.000305,1988
811.11908,1958
811.237854,1977
811.356567,1945
811.475403,2007
811.594116,1931
811.71283,1948
811.831604,1990
811.950378,1988
812.069153,1973
812.187927,2010
812.30658,1954
812.425415,1952
812.544128,1952
812.662781,1964
812.781616,1979
812.900269,1997
813.019043,2001
813.137756,2009
813.256531,2007
813.375244,1985
813.493896,1995
813.612671,1963
813.731384,1996
813.850037,1976
813.96875,1884
814.087524,2005
814.206238,1956
814.324951,1944
814.443604,1935
814.562256,1927
814.68103,1927
814.799683,1904
814.918335,1916
815.037109,1936
815.155762,1922
815.274475,1895
815.393188,1924
815.511841,1958
815.630554,1907
815.749146,1901
815.867859,1917
815.986572,1881
816.105164,1857
816.223877,1880
816.342529,1885
816.461182,1935
816.579895,1858
816.698486,1913
816.817139,1899
816.935791,1906
817.054504,1952
817.173096,1932
817.291748,1868
817.4104,1851
817.529053,1833
817.647644,1844
817.766235,1823
817.884949,1801
818.00354,1735
818.122192,1781
818.240845,1699
818.359436,1685
818.478088,1681
818.59668,1614
818.715271,1621
818.833923,1624
818.952515,1552
819.071106,1563
819.189758,1541
819.30835,1548
819.426941,1533
819.545532,1509
819.664124,1565
819.782715,1510
819.901306,1498
820.019897,1476
820.138489,1546
820.25708,1532
820.375671,1450
820.494202,1481
820.612732,1462
820.731384,1492
820.849915,1477
820.968506,1549
821.087097,1439
821.205627,1507
821.324158,1465
821.442749,1505
821.561279,1456
821.679871,1435
821.798401,1438
821.916931,1445
822.035461,1493
822.154053,1467
822.272583,1446
822.391174,1461
822.509583,1422
822.628174,1441
822.746704,1410
822.865234,1401
822.983765,1412
823.102295,1416
823.220825,1454
823.339294,1437
823.457825,1410
823.576355,1441
823.694824,1415
823.813354,1486
823.931885,1460
824.050354,1474
824.168884,1476
824.287354,1450
824.405823,1449
824.524353,1478
824.642822,1493
824.761353,1424
824.879822,1505
824.998291,1464
825.116699,1426
825.235291,1450
825.353699,1409
825.472168,1441
825.590637,1419
825.709106,1439
825.827576,1382
825.946045,1395
826.064453,1401
826.182983,1429
826.301392,1393
826.4198,1370
826.53833,1410
826.656738,1358
826.775208,1402
826.893677,1381
827.012024,1412
827.130493,1329
827.248962,1402
827.36731,1347
827.485779,1369
827.604248,1408
827.722595,1398
827.841064,1371
827.959412,1391
828.077942,1375
828.196289,1359
828.314636,1363
828.433105,1367
828.551514,1373
828.669861,1352
828.78833,1378
828.906677,1372
829.025085,1333
829.143433,1366
829.261841,1350
829.38031,1396
829.498657,1331
829.617004,1335
829.735413,1341
829.85376,1329
829.972107,1367
830.090515,1332
830.208862,1324
830.327209,1341
830.445557,1336
830.563904,1339
830.682312,1332
830.800659,1328
830.919006,1378
831.037354,1322
831.155701,1368
831.274048,1352
831.392395,1365
831.51062,1345
831.629028,1369
831.747314,1343
831.865662,1348
831.984009,1336
832.102356,1351
832.220642,1371
832.338928,1360
832.457275,1329
832.575623,1386
832.693909,1370
832.812134,1369
832.930481,1364
833.048828,1329
833.167114,1366
833.2854,1348
833.403687,1323
833.521973,1337
833.640259,1334
833.758545,1339
833.876831,1361
833.995056,1349
834.113281,1350
834.231628,1359
834.349915,1348
834.468201,1374
834.586426,1354
834.704651,1337
834.822998,1369
834.941162,1378
835.059448,1368
835.177673,1386
835.295959,1377
835.414246,1362
835.53241,1338
835.650635,1372
835.768921,1376
835.887146,1367
836.005371,1336
836.123596,1372
836.241821,1351
836.360046,1344
836.478271,1398
836.596497,1427
836.714722,1378
836.832886,1405
836.95105,1363
837.069336,1400
837.1875,1399
837.305725,1413
837.423889,1421
837.542053,1399
837.660339,1371
837.778503,1418
837.896667,1360
838.014832,1354
838.132996,1402
838.25116,1385
838.369385,1405
838.487488,1385
838.605713,1434
838.723877,1406
838.84198,1433
838.960205,1399
839.078308,1391
839.196472,1388
839.314636,1381
839.4328,1414
839.550964,1391
839.669067,1370
839.787231,1406
839.905396,1406
840.023499,1396
840.141602,1373
840.259766,1417
840.377869,1420
840.495972,1335
840.614136,1394
840.732239,1388
840.850342,1397
840.968445,1342
841.086548,1407
841.204651,1397
841.322754,1378
841.440918,1381
841.55896,1366
841.677002,1352
841.795166,1407
841.913208,1388
842.031311,1365
842.149353,1396
842.267456,1355
842.385498,1338
842.503601,1346
842.621643,1373
842.739746,1331
842.857788,1340
842.97583,1378
843.093933,1323
843.211975,1336
843.330017,1306
843.44812,1363
843.566101,1364
843.684204,1292
843.802246,1376
843.920227,1359
844.038269,1369
844.156311,1341
844.274292,1327
844.392395,1353
844.510376,1369
844.628357,1331
844.74646,1341
844.864441,1356
844.982422,1333
845.100403,1340
845.218384,1350
845.336426,1322
845.454468,1367
845.572449,1336
845.69043,1341
845.808411,1296
845.926453,1372
846.044373,1335
846.162354,1334
846.280396,1332
846.398315,1334
846.516296,1375
846.634216,1357
846.752197,1367
846.870178,1325
846.988098,1345
847.106079,1318
847.22406,1379
847.34198,1261
847.4599,1366
847.577881,1336
847.695801,1329
847.813782,1335
847.931641,1278
848.049561,1346
848.167603,1303
848.285461,1298
848.403381,1294
848.521362,1287
848.639221,1380
848.75708,1345
848.875,1333
848.99292,1352
849.110901,1354
849.22876,1299
849.34668,1327
849.464539,1293
849.582458,1333
849.700317,1323
849.818176,1330
849.936096,1277
850.053955,1329
850.171875,1313
850.289673,1319
850.407593,1316
850.525452,1350
850.643311,1308
850.761169,1294
850.878967,1377
850.996887,1331
851.114746,1322
851.232544,1353
851.350403,1344
851.468262,1285
851.58606,1314
851.703979,1317
851.821777,1347
851.939636,1341
852.057434,1325
852.175232,1297
852.293091,1329
852.410889,1319
852.528687,1345
852.646545,1335
852.764343,1367
852.88208,1394
852.999939,1350
853.117676,1356
853.235535,1368
853.353271,1388
853.471069,1310
853.588928,1345
853.706604,1315
853.824402,1379
853.9422,1343
854.059998,1362
854.177734,1337
854.295532,1340
854.413269,1311
854.531006,1348
854.648804,1333
854.766541,1352
854.884277,1345
855.002014,1393
855.119751,1347
855.237549,1373
855.355225,1390
855.473022,1351
855.590698,1402
855.708435,1346
855.826172,1356
855.943848,1350
856.061646,1381
856.179321,1334
856.296997,1382
856.414795,1400
856.53241,1407
856.650085,1400
856.767822,1365
856.885559,1388
857.003174,1361
857.120911,1369
857.238586,1414
857.356201,1338
857.473938,1376
857.591614,1360
857.709351,1375
857.826965,1370
857.944641,1371
858.062317,1401
858.179993,1359
858.297668,1376
858.415283,1382
858.532959,1361
858.650574,1365
858.768188,1410
858.885803,1371
859.003479,1361
859.121094,1379
859.23877,1351
859.356384,1371
859.473999,1365
859.591675,1337
859.709229,1384
859.826843,1356
859.944458,1318
860.062012,1379
860.179626,1332
860.297302,1296
860.414856,1334
860.532471,1337
860.650024,1343
860.767639,1358
860.885193,1341
861.002808,1292
861.120361,1335
861.237976,1362
861.35553,1399
861.473022,1335
861.590698,1355
861.708191,1321
861.825745,1339
861.943298,1348
862.060852,1340
862.178406,1368
862.295959,1352
862.413513,1317
862.531006,1288
862.64856,1329
862.766113,1333
862.883667,1335
863.00116,1334
863.118713,1344
863.236206,1337
863.353699,1342
863.471252,1326
863.588745,1345
863.706177,1326
863.82373,1379
863.941162,1333
864.058716,1364
864.176208,1320
864.29364,1355
864.411194,1345
864.528687,1323
864.646118,1330
864.763611,1328
864.881042,1331
864.998535,1323
865.116028,1329
865.233459,1300
865.350891,1367
865.468384,1334
865.585754,1310
865.703308,1331
865.820679,1313
865.938171,1360
866.055542,1332
866.173035,1362
866.290466,1332
866.407837,1361
866.52533,1362
866.6427,1385
866.760071,1358
866.877563,1335
866.994934,1384
867.112305,1350
867.229736,1369
867.347107,1301
867.464539,1370
867.58197,1362
867.699341,1359
867.81665,1327
867.934082,1325
868.051453,1343
868.168823,1340
868.286194,1346
868.403564,1365
868.520935,1362
868.638306,1348
868.755676,1349
868.872986,1343
868.990295,1324
869.107727,1312
869.225037,1391
869.342346,1331
869.459717,1370
869.577026,1374
869.694336,1361
869.811707,1375
869.929016,1347
870.046326,1374
870.163635,1336
870.280945,1391
870.398254,1334
870.515564,1380
870.632812,1384
870.750183,1403
870.867432,1362
870.984741,1350
871.102051,1368
871.219299,1366
871.336609,1381
871.453918,1467
871.571106,1335
871.688416,1389
871.805664,1384
871.922852,1374
872.040222,1389
872.157471,1358
872.274719,1374
872.391968,1374
872.509155,1430
872.626465,1333
872.743652,1372
872.860962,1367
872.978149,1332
873.095337,1334
873.212646,1366
873.329834,1360
873.44696,1390
873.564209,1367
873.681396,1354
873.798645,1412
873.915894,1380
874.03302,1390
874.150208,1390
874.267456,1425
874.384583,1370
874.501831,1409
874.618958,1350
874.736145,1402
874.853333,1363
874.970459,1421
875.087646,1401
875.204834,1404
875.32196,1363
875.439148,1385
875.556274,1385
875.673401,1381
875.790527,1387
875.907715,1357
876.024841,1361
876.141968,1358
876.259094,1396
876.376282,1380
876.493347,1372
876.610474,1366
876.7276,1379
876.844727,1329
876.961853,1364
877.078918,1335
877.195984,1358
877.313171,1347
877.430237,1362
877.547302,1329
877.664368,1364
877.781433,1342
877.898499,1396
878.015625,1337
878.13269,1340
878.249695,1367
878.366821,1336
878.483887,1365
878.600952,1338
878.717957,1347
878.834961,1344
878.952087,1365
879.069092,1359
879.186157,1384
879.303162,1346
879.420227,1390
879.537231,1327
879.654236,1349
879.77124,1322
879.888306,1323
880.005249,1377
880.122314,1407
880.239319,1353
880.356323,1358
880.473328,1337
880.590271,1330
880.707275,1381
880.824341,1380
880.941284,1359
881.058228,1351
881.175232,1370
881.292236,1347
881.40918,1331
881.526123,1361
881.643066,1352
881.760071,1341
881.877014,1327
881.993958,1381
882.11084,1340
882.227783,1338
882.344727,1384
882.46167,1343
882.578613,1348
882.695618,1381
882.812439,1361
882.929382,1413
883.046326,1341
883.163208,1396
883.280151,1376
883.397034,1352
883.513916,1316
883.630798,1367
883.747742,1367
883.864563,1330
883.981506,1359
884.098389,1355
884.21521,1375
884.332153,1373
884.448975,1359
884.565796,1410
884.682678,1381
884.7995,1449
884.916443,1426
885.033264,1420
885.150085,1451
885.266968,1493
885.383789,1440
885.500671,1454
885.617493,1458
885.734314,1494
885.851196,1481
885.967896,1473
886.084717,1469
886.201599,1422
886.318359,1457
886.435181,1443
886.552002,1463
886.668762,1436
886.785645,1440
886.902344,1443
887.019165,1427
887.135925,1428
887.252747,1425
887.369446,1406
887.486267,1442
887.603027,1416
887.719788,1362
887.836548,1361
887.953247,1394
888.070068,1358
888.186829,1373
888.303528,1391
888.420288,1390
888.536987,1371
888.653687,1371
888.770447,1370
888.887146,1369
889.003967,1367
889.120667,1359
889.237305,1366
889.354065,1373
889.470703,1347
889.587463,1374
889.704163,1401
889.820862,1383
889.937561,1364
890.054199,1384
890.170837,1351
890.287598,1384
890.404236,1371
890.520874,1419
890.637634,1361
890.754211,1391
890.87085,1360
890.987549,1377
891.104187,1351
891.220886,1391
891.337463,1375
891.454102,1367
891.57074,1380
891.687378,1426
891.804077,1360
891.920654,1410
892.037231,1377
892.15387,1427
892.270447,1396
892.387085,1387
892.503723,1397
892.6203,1410
892.736877,1346
892.853516,1391
892.970032,1373
893.08667,1414
893.203186,1391
893.319763,1372
893.43634,1379
893.552917,1402
893.669556,1428
893.786011,1352
893.902588,1406
894.019165,1356
894.135681,1367
894.252197,1412
894.368835,1340
894.485291,1400
894.601868,1415
894.718384,1346
894.8349,1347
894.951355,1377
895.067932,1371
895.184448,1384
895.300964,1406
895.417419,1372
895.533936,1381
895.650452,1402
895.766907,1385
895.883423,1375
895.999878,1378
896.116333,1408
896.232849,1367
896.349304,1375
896.465759,1396
896.582214,1411
896.698669,1399
896.815125,1432
896.931641,1398
897.048035,1358
897.164551,1391
897.280884,1353
897.397339,1384
897.513794,1402
897.630249,1385
897.746582,1391
897.863098,1385
897.979431,1416
898.095886,1376
898.212341,1393
898.328674,1423
898.445129,1384
898.561462,1433
898.677795,1371
898.794312,1432
898.910645,1390
899.026978,1375
899.143433,1389
899.259766,1397
899.37616,1362
899.492493,1400
899.608765,1385
899.725159,1414
899.841553,1439
899.957947,1417
900.07428,1418
900.190552,1422
900.306946,1377
900.423157,1440
900.53949,1363
900.655884,1402
900.772156,1405
900.888489,1420
901.004822,1415
901.121033,1400
901.237366,1398
901.353699,1380
901.46991,1392
901.586304,1439
901.702515,1376
901.818787,1407
901.93512,1390
902.051331,1437
902.167603,1417
902.283875,1419
902.400085,1461
902.516418,1445
902.632629,1484
902.74884,1448
902.865112,1527
902.981384,1468
903.097595,1497
903.213867,1468
903.330017,1480
903.446289,1472
903.5625,1431
903.67865,1472
903.794922,1460
903.911072,1397
904.027344,1450
904.143494,1455
904.259705,1411
904.375916,1455
904.492065,1391
904.608215,1448
904.724426,1426
904.840576,1431
904.956726,1402
905.072876,1450
905.189087,1419
905.305176,1413
905.421387,1417
905.537537,1399
905.653687,1376
905.769775,1410
905.885925,1418
906.002014,1406
906.118164,1423
906.234314,1357
906.350403,1413
906.466492,1420
906.582642,1419
906.69873,1414
906.814758,1441
906.930908,1408
907.046936,1417
907.163086,1411
907.279175,1418
907.395264,1469
907.511353,1381
907.62738,1462
907.743408,1371
907.859497,1440
907.975525,1431
908.091553,1439
908.207703,1423
908.32373,1407
908.439758,1424
908.555786,1407
908.671814,1433
908.787842,1420
908.90387,1426
909.019775,1410
909.135864,1446
909.251892,1403
909.367859,1456
909.483826,1419
909.599854,1424
909.715881,1435
909.831848,1486
909.947815,1445
910.063782,1388
910.179749,1451
910.295776,1447
910.411743,1445
910.527649,1424
910.643616,1475
910.759583,1416
910.875488,1417
910.991455,1439
911.107361,1377
911.223267,1437
911.339294,1392
911.4552,1428
911.571106,1422
911.687073,1443
911.802979,1428
911.918823,1422
912.034729,1436
912.150635,1411
912.266602,1398
912.382446,1428
912.498352,1414
912.614197,1441
912.730103,1423
912.846008,1429
792.44574,2480
792.56488,2393
792.68396,2490
792.80304,2371
792.92218,2310
793.041199,2300
793.160339,2328
793.279419,2273
793.398499,2269
793.517578,2202
793.636658,2207
793.755737,2240
793.874817,2202
793.993896,2153
794.112976,2183
794.232056,2108
794.351074,2103
794.470215,2092
794.589233,2069
794.708313,2056
794.827393,2083
794.946411,2048
795.065552,2021
795.18457,2027
795.303589,2005
795.422668,1965
795.541687,2012
795.660767,2054
795.779846,1998
795.898865,1959
796.017883,1960
796.136963,1909
796.255981,1910
796.375061,2001
796.49408,1994
796.613037,1960
796.732117,1881
796.851135,1934
796.970154,1918
797.089233,1949
797.208191,1926
797.327271,1944
797.446228,1941
797.565186,1886
797.684265,1907
797.803223,1900
797.922241,1889
798.04126,1906
798.160278,1947
798.279297,1886
798.398315,1908
798.517273,1890
798.636292,1884
798.75531,1852
798.874268,1883
798.993286,1895
799.112244,1927
799.231323,1922
799.350281,1868
799.469238,1885
799.588257,1861
799.707153,1881
799.826111,1902
799.945129,1832
800.064087,1893
800.183044,1910
800.302063,1892
800.421021,1939
800.539978,1866
800.658936,1846
800.777893,1871
800.896912,1871
801.015747,1866
801.134705,1886
801.253723,1826
801.37262,1882
801.491638,1845
801.610535,1869
801.729492,1854
801.84845,1864
801.967407,1829
802.086243,1852
802.205261,1885
802.324158,1889
802.443115,1880
802.562073,1919
802.680969,1892
802.799927,1915
802.918762,1905
803.037659,1893
803.156677,1888
803.275574,1912
803.39447,1898
803.513428,1878
803.632263,1917
803.751221,1862
803.870117,1906
803.989014,1962
804.107971,1910
804.226746,1877
804.345642,1909
804.4646,1891
804.583496,1917
804.702393,1944
804.821228,1908
804.940125,1883
805.059021,1942
805.177917,1968
805.296814,1909
805.415649,1925
805.534546,1942
805.653442,1900
805.772278,1909
805.891113,1921
806.01001,1952
806.128906,1930
806.247742,1949
806.366577,1898
806.485413,1913
806.604309,1884
806.723145,1923
806.84198,1974
806.960876,1879
807.079712,1904
807.198486,1906
807.317383,1977
807.436218,1940
807.554993,1949
807.673889,1949
807.792725,1944
807.91156,1941
808.030396,1971
808.14917,1980
808.268005,1969
808.386841,1965
808.505676,1986
808.624451,1919
808.743286,1944
808.862122,1970
808.980896,1917
809.099731,1967
809.218506,1982
809.337341,1950
809.456116,1968
809.57489,1942
809.693726,1980
809.8125,1950
809.931274,1952
810.050049,1984
810.168884,1925
810.287659,1976
810.406372,1985
810.525269,1876
810.643982,1937
810.762756,1964
810.881531,1969
811.000305,1909
811.11908,1990
811.237854,2010
811.356567,1946
811.475403,1912
811.594116,2003
811.71283,1957
811.831604,1984
811.950378,2000
812.069153,1999
812.187927,1962
812.30658,1996
812.425415,2002
812.544128,1994
812.662781,2004
812.781616,2011
812.900269,1983
813.019043,1932
813.137756,1968
813.256531,1995
813.375244,1973
813.493896,1949
813.612671,2041
813.731384,1950
813.850037,1957
813.96875,1927
814.087524,1944
814.206238,1972
814.324951,1923
814.443604,2006
814.562256,1979
814.68103,1953
814.799683,1944
814.918335,1977
815.037109,1914
815.155762,1955
815.274475,1942
815.393188,1961
815.511841,1920
815.630554,1958
815.749146,1902
815.867859,1882
815.986572,1890
816.105164,1854
816.223877,1894
816.342529,1936
816.461182,1884
816.579895,1947
816.698486,1892
816.817139,1947
816.935791,1897
817.054504,1938
817.173096,1955
817.291748,1917
817.4104,1881
817.529053,1849
817.647644,1915
817.766235,1797
817.884949,1784
818.00354,1775
818.122192,1757
818.240845,1772
818.359436,1704
818.478088,1696
818.59668,1633
818.715271,1669
818.833923,1639
818.952515,1605
819.071106,1554
819.189758,1562
819.30835,1542
819.426941,1545
819.545532,1546
819.664124,1579
819.782715,1492
819.901306,1519
820.019897,1507
820.138489,1513
820.25708,1520
820.375671,1500
820.494202,1520
820.612732,1494
820.731384,1492
820.849915,1476
820.968506,1456
821.087097,1483
821.205627,1475
821.324158,1474
821.442749,1516
821.561279,1461
821.679871,1471
821.798401,1479
821.916931,1466
822.035461,1511
822.154053,1507
822.272583,1436
822.391174,1459
822.509583,1442
822.628174,1445
822.746704,1465
822.865234,1449
822.983765,1436
823.102295,1471
823.220825,1442
823.339294,1422
823.457825,1478
823.576355,1429
823.694824,1424
823.813354,1467
823.931885,1449
824.050354,1481
824.168884,1497
824.287354,1495
824.405823,1442
824.524353,1468
824.642822,1492
824.761353,1486
824.879822,1456
824.998291,1457
825.116699,1451
825.235291,1456
825.353699,1438
825.472168,1425
825.590637,1443
825.709106,1373
825.827576,1400
825.946045,1410
826.064453,1407
826.182983,1393
826.301392,1384
826.4198,1417
826.53833,1463
826.656738,1391
826.775208,1370
826.893677,1385
827.012024,1358
827.130493,1398
827.248962,1408
827.36731,1401
827.485779,1406
827.604248,1372
827.722595,1397
827.841064,1369
827.959412,1377
828.077942,1333
828.196289,1389
828.314636,1349
828.433105,1403
828.551514,1371
828.669861,1386
828.78833,1375
828.906677,1339
829.025085,1355
829.143433,1379
829.261841,1379
829.38031,1363
829.498657,1331
829.617004,1382
829.735413,1411
829.85376,1348
829.972107,1369
830.090515,1336
830.208862,1383
830.327209,1341
830.445557,1306
830.563904,1377
830.682312,1364
830.800659,1348
830.919006,1368
831.037354,1376
831.155701,1408
831.274048,1368
831.392395,1384
831.51062,1355
831.629028,1323
831.747314,1382
831.865662,1370
831.984009,1385
832.102356,1354
832.220642,1317
832.338928,1408
832.457275,1358
832.575623,1365
832.693909,1387
832.812134,1370
832.930481,1388
833.048828,1396
833.167114,1376
833.2854,1318
833.403687,1355
833.521973,1381
833.640259,1372
833.758545,1384
833.876831,1346
833.995056,1354
834.113281,1364
834.231628,1370
834.349915,1373
834.468201,1337
834.586426,1382
834.704651,1369
834.822998,1323
834.941162,1351
835.059448,1382
835.177673,1377
835.295959,1408
835.414246,1360
835.53241,1360
835.650635,1403
835.768921,1357
835.887146,1355
836.005371,1369
836.123596,1370
836.241821,1392
836.360046,1393
836.478271,1395
836.596497,1385
836.714722,1378
836.832886,1405
836.95105,1377
837.069336,1382
837.1875,1409
837.305725,1410
837.423889,1363
837.542053,1375
837.660339,1444
837.778503,1406
837.896667,1432
838.014832,1450
838.132996,1383
838.25116,1431
838.369385,1392
838.487488,1371
838.605713,1416
838.723877,1409
838.84198,1406
838.960205,1423
839.078308,1385
839.196472,1429
839.314636,1407
839.4328,1505
839.550964,11161
839.669067,2945
839.787231,1367
839.905396,1396
840.023499,1407
840.141602,1338
840.259766,1379
840.377869,1406
840.495972,1374
840.614136,1383
840.732239,1406
840.850342,1364
840.968445,1354
841.086548,1406
841.204651,1387
841.322754,1395
841.440918,1357
841.55896,1380
841.677002,1401
841.795166,1358
841.913208,1398
842.031311,1404
842.149353,1363
842.267456,1397
842.385498,1347
842.503601,1383
842.621643,1307
842.739746,1338
842.857788,1374
842.97583,1381
843.093933,1364
843.211975,1360
843.330017,1376
843.44812,1345
843.566101,1323
843.684204,1375
843.802246,1357
843.920227,1367
844.038269,1355
844.156311,1383
844.274292,1356
844.392395,1368
844.510376,1378
844.628357,1356
844.74646,1381
844.864441,1324
844.982422,1359
845.100403,1341
845.218384,1314
845.336426,1353
845.454468,1386
845.572449,1336
845.69043,1381
845.808411,1340
845.926453,1361
846.044373,1293
846.162354,1357
846.280396,1349
846.398315,1333
846.516296,1327
846.634216,1342
846.752197,1321
846.870178,1340
846.988098,1328
847.106079,1323
847.22406,1277
847.34198,1356
847.4599,1329
847.577881,1377
847.695801,1344
847.813782,1337
847.931641,1331
848.049561,1314
848.167603,1368
848.285461,1348
848.403381,1355
848.521362,1308
848.639221,1329
848.75708,1390
848.875,1329
848.99292,1360
849.110901,1339
849.22876,1360
849.34668,1337
849.464539,1336
849.582458,1333
849.700317,1344
849.818176,1304
849.936096,1372
850.053955,1348
850.171875,1338
850.289673,1361
850.407593,1330
850.525452,1317
850.643311,1332
850.761169,1349
850.878967,1328
850.996887,1349
851.114746,1328
851.232544,1353
851.350403,1306
851.468262,1325
851.58606,1374
851.703979,1356
851.821777,1315
851.939636,1386
852.057434,1338
852.175232,1329
852.293091,1348
852.410889,1362
852.528687,1385
852.646545,1324
852.764343,1372
852.88208,1383
852.999939,1397
853.117676,1364
853.235535,1336
853.353271,1395
853.471069,1372
853.588928,1333
853.706604,1340
853.824402,1322
853.9422,1372
854.059998,1370
854.177734,1376
854.295532,1345
854.413269,1357
854.531006,1380
854.648804,1362
854.766541,1346
854.884277,1369
855.002014,1396
855.119751,1380
855.237549,1366
855.355225,1363
855.473022,1413
855.590698,1413
855.708435,1377
855.826172,1382
855.943848,1381
856.061646,1374
856.179321,1407
856.296997,1348
856.414795,1383
856.53241,1386
856.650085,1388
856.767822,1400
856.885559,1339
857.003174,1383
857.120911,1396
857.238586,1377
857.356201,1419
857.473938,1386
857.591614,1379
857.709351,1403
857.826965,1412
857.944641,1346
858.062317,1406
858.179993,1376
858.297668,1395
858.415283,1364
858.532959,1435
858.650574,1366
858.768188,1403
858.885803,1411
859.003479,1388
859.121094,1395
859.23877,1356
859.356384,1402
859.473999,1362
859.591675,1349
859.709229,1349
859.826843,1355
859.944458,1352
860.062012,1348
860.179626,1362
860.297302,1323
860.414856,1320
860.532471,1360
860.650024,1333
860.767639,1353
860.885193,1345
861.002808,1280
861.120361,1337
861.237976,1337
861.35553,1373
861.473022,1357
861.590698,1368
861.708191,1331
861.825745,1353
861.943298,1371
862.060852,1318
862.178406,1349
862.295959,1349
862.413513,1308
862.531006,1353
862.64856,1361
862.766113,1322
862.883667,1327
863.00116,1342
863.118713,1364
863.236206,1377
863.353699,1344
863.471252,1357
863.588745,1319
863.706177,1336
863.82373,1338
863.941162,1379
864.058716,1365
864.176208,1374
864.29364,1347
864.411194,1374
864.528687,1391
864.646118,1375
864.763611,1339
864.881042,1371
864.998535,1353
865.116028,1377
865.233459,1336
865.350891,1343
865.468384,1339
865.585754,1352
865.703308,1362
865.820679,1347
865.938171,1356
866.055542,1340
866.173035,1329
866.290466,1364
866.407837,1364
866.52533,1354
866.6427,1340
866.760071,1328
866.877563,1364
866.994934,1378
867.112305,1373
867.229736,1348
867.347107,1342
867.464539,1325
867.58197,1331
867.699341,1367
867.81665,1352
867.934082,1392
868.051453,1376
868.168823,1335
868.286194,1348
868.403564,1341
868.520935,1353
868.638306,1360
868.755676,1338
868.872986,1376
868.990295,1381
869.107727,1371
869.225037,1353
869.342346,1365
869.459717,1334
869.577026,1375
869.694336,1315
869.811707,1359
869.929016,1366
870.046326,1412
870.163635,1405
870.280945,1360
870.398254,1387
870.515564,1345
870.632812,1352
870.750183,1381
870.867432,1354
870.984741,1367
871.102051,1387
871.219299,1374
871.336609,1401
871.453918,1389
871.571106,1381
871.688416,1386
871.805664,1328
871.922852,1384
872.040222,1383
872.157471,1360
872.274719,1437
872.391968,1429
872.509155,1406
872.626465,1392
872.743652,1401
872.860962,1373
872.978149,1373
873.095337,1384
873.212646,1375
873.329834,1374
873.44696,1405
873.564209,1377
873.681396,1409
873.798645,1364
873.915894,1353
874.03302,1392
874.150208,1391
874.267456,1407
874.384583,1377
874.501831,1416
874.618958,1395
874.736145,1376
874.853333,1390
874.970459,1409
875.087646,1373
875.204834,1421
875.32196,1369
875.439148,1371
875.556274,1352
875.673401,1379
875.790527,1373
875.907715,1377
876.024841,1389
876.141968,1377
876.259094,1389
876.376282,1390
876.493347,1376
876.610474,1358
876.7276,1395
876.844727,1405
876.961853,1359
877.078918,1356
877.195984,1371
877.313171,1384
877.430237,1374
877.547302,1325
877.664368,1351
877.781433,1319
877.898499,1375
878.015625,1375
878.13269,1359
878.249695,1374
878.366821,1380
878.483887,1378
878.600952,1343
878.717957,1358
878.834961,1373
878.952087,1347
879.069092,1390
879.186157,1370
879.303162,1401
879.420227,1385
879.537231,1366
879.654236,1395
879.77124,1356
879.888306,1362
880.005249,1339
880.122314,1326
880.239319,1362
880.356323,1383
880.473328,1356
880.590271,1406
880.707275,1370
880.824341,1364
880.941284,1398
881.058228,1382
881.175232,1368
881.292236,1328
881.40918,1330
881.526123,1379
881.643066,1384
881.760071,1362
881.877014,1357
881.993958,1370
882.11084,1364
882.227783,1353
882.344727,1351
882.46167,1350
882.578613,1366
882.695618,1340
882.812439,1365
882.929382,1364
883.046326,1384
883.163208,1347
883.280151,1396
883.397034,1375
883.513916,1392
883.630798,1353
883.747742,1390
883.864563,1365
883.981506,1360
884.098389,1398
884.21521,1336
884.332153,1404
884.448975,1337
884.565796,1403
884.682678,1401
884.7995,1408
884.916443,1402
885.033264,1486
885.150085,1476
885.266968,1486
885.383789,1451
885.500671,1478
885.617493,1437
885.734314,1506
885.851196,1479
885.967896,1482
886.084717,1415
886.201599,1456
886.318359,1431
886.435181,1490
886.552002,1424
886.668762,1478
886.785645,1429
886.902344,1425
887.019165,1405
887.135925,1441
887.252747,1432
887.369446,1405
887.486267,1440
887.603027,1407
887.719788,1411
887.836548,1449
887.953247,1367
888.070068,1403
888.186829,1353
888.303528,1405
888.420288,1396
888.536987,1379
888.653687,1393
888.770447,1396
888.887146,1362
889.003967,1412
889.120667,1364
889.237305,1403
889.354065,1400
889.470703,1377
889.587463,1377
889.704163,1371
889.820862,1390
889.937561,1378
890.054199,1332
890.170837,1355
890.287598,1394
890.404236,1375
890.520874,1394
890.637634,1391
890.754211,1392
890.87085,1364
890.987549,1379
891.104187,1419
891.220886,1384
891.337463,1405
891.454102,1381
891.57074,1389
891.687378,1394
891.804077,1419
891.920654,1362
892.037231,1411
892.15387,1373
892.270447,1385
892.387085,1387
892.503723,1380
892.6203,1402
892.736877,1439
892.853516,1379
892.970032,1357
893.08667,1363
893.203186,1406
893.319763,1377
893.43634,1357
893.552917,1410
893.669556,1408
893.786011,1337
893.902588,1385
894.019165,1370
894.135681,1393
894.252197,1371
894.368835,1381
894.485291,1397
894.601868,1438
894.718384,1398
894.8349,1418
894.951355,1388
895.067932,1398
895.184448,1407
895.300964,1395
895.417419,1452
895.533936,1358
895.650452,1398
895.766907,1392
895.883423,1385
895.999878,1383
896.116333,1364
896.232849,1423
896.349304,1366
896.465759,1377
896.582214,1366
896.698669,1398
896.815125,1380
896.931641,1377
897.048035,1387
897.164551,1384
897.280884,1378
897.397339,1397
897.513794,1346
897.630249,1430
897.746582,1381
897.863098,1358
897.979431,1423
898.095886,1434
898.212341,1426
898.328674,1363
898.445129,1446
898.561462,1418
898.677795,1419
898.794312,1422
898.910645,1415
899.026978,1434
899.143433,1392
899.259766,1446
899.37616,1384
899.492493,1362
899.608765,1402
899.725159,1436
899.841553,1390
899.957947,1428
900.07428,1443
900.190552,1425
900.306946,1393
900.423157,1427
900.53949,1418
900.655884,1421
900.772156,1435
900.888489,1401
901.004822,1413
901.121033,1430
901.237366,1421
901.353699,1407
901.46991,1434
901.586304,1429
901.702515,1406
901.818787,1405
901.93512,1461
902.051331,1436
902.167603,1440
902.283875,1480
902.400085,1443
902.516418,1476
902.632629,1430
902.74884,1449
902.865112,1488
902.981384,1434
903.097595,1445
903.213867,1471
903.330017,1459
903.446289,1478
903.5625,1455
903.67865,1473
903.794922,1439
903.911072,1475
904.027344,1500
904.143494,1433
904.259705,1461
904.375916,1418
904.492065,1470
904.608215,1454
904.724426,1450
904.840576,1441
904.956726,1418
905.072876,1455
905.189087,1432
905.305176,1419
905.421387,1448
905.537537,1420
905.653687,1389
905.769775,1467
905.885925,1464
906.002014,1430
906.118164,1382
906.234314,1428
906.350403,1401
906.466492,1409
906.582642,1465
906.69873,1417
906.814758,1419
906.930908,1406
907.046936,1420
907.163086,1435
907.279175,1411
907.395264,1451
907.511353,1450
907.62738,1443
907.743408,1454
907.859497,1413
907.975525,1478
908.091553,1480
908.207703,1404
908.32373,1462
908.439758,1447
908.555786,1444
908.671814,1408
908.787842,1419
908.90387,1437
909.019775,1436
909.135864,1445
909.251892,1413
909.367859,1467
909.483826,1403
909.599854,1446
909.715881,1421
909.831848,1428
909.947815,1408
910.063782,1428
910.179749,1459
910.295776,1458
910.411743,1425
910.527649,1441
910.643616,1453
910.759583,1408
910.875488,1454
910.991455,1456
911.107361,1450
911.223267,1463
911.339294,1419
911.4552,1403
911.571106,1453
911.687073,1417
911.802979,1454
911.918823,1444
912.034729,1421
912.150635,1463
912.266602,1435
912.382446,1419
912.498352,1452
912.614197,1479
912.730103,1456
912.846008,1458
