792.44574,5155
792.56488,5068
792.68396,4899
792.80304,4758
792.92218,4561
793.041199,4488
793.160339,4359
793.279419,4202
793.398499,4172
793.517578,4168
793.636658,3979
793.755737,3926
793.874817,3742
793.993896,3778
794.112976,3676
794.232056,3584
794.351074,3496
794.470215,3417
794.589233,3443
794.708313,3408
794.827393,3356
794.946411,3283
795.065552,3281
795.18457,3247
795.303589,3140
795.422668,3119
795.541687,3072
795.660767,3021
795.779846,2994
795.898865,2935
796.017883,2913
796.136963,2929
796.255981,2878
796.375061,2841
796.49408,2761
796.613037,2755
796.732117,2750
796.851135,2671
796.970154,2676
797.089233,2629
797.208191,2621
797.327271,2568
797.446228,2607
797.565186,2535
797.684265,2511
797.803223,2501
797.922241,2502
798.04126,2487
798.160278,2497
798.279297,2414
798.398315,2502
798.517273,2484
798.636292,2344
798.75531,2454
798.874268,2379
798.993286,2442
799.112244,2416
799.231323,2334
799.350281,2357
799.469238,2389
799.588257,2355
799.707153,2353
799.826111,2365
799.945129,2393
800.064087,2291
800.183044,2338
800.302063,2312
800.421021,2308
800.539978,2257
800.658936,2204
800.777893,2247
800.896912,2260
801.015747,2218
801.134705,2200
801.253723,2186
801.37262,2236
801.491638,2187
801.610535,2171
801.729492,2220
801.84845,2152
801.967407,2153
802.086243,2129
802.205261,2165
802.324158,2122
802.443115,2153
802.562073,2095
802.680969,2108
802.799927,2079
802.918762,2081
803.037659,2076
803.156677,2019
803.275574,2137
803.39447,2052
803.513428,2092
803.632263,2064
803.751221,2055
803.870117,2117
803.989014,2045
804.107971,2043
804.226746,2082
804.345642,2002
804.4646,2018
804.583496,2029
804.702393,1995
804.821228,2027
804.940125,2011
805.059021,1964
805.177917,1995
805.296814,1976
805.415649,1954
805.534546,1994
805.653442,1955
805.772278,2047
805.891113,1977
806.01001,1977
806.128906,1979
806.247742,1978
806.366577,1954
806.485413,1977
806.604309,1953
806.723145,1942
806.84198,2004
806.960876,2008
807.079712,1927
807.198486,1997
807.317383,1905
807.436218,1932
807.554993,1883
807.673889,1923
807.792725,1958
807.91156,1907
808.030396,1947
808.14917,1948
808.268005,1923
808.386841,1999
808.505676,1947
808.624451,1903
808.743286,1910
808.862122,1905
808.980896,1879
809.099731,1901
809.218506,1948
809.337341,1857
809.456116,1896
809.57489,1910
809.693726,1945
809.8125,1903
809.931274,1856
810.050049,1943
810.168884,1912
810.287659,1878
810.406372,1884
810.525269,1858
810.643982,1866
810.762756,1854
810.881531,1893
811.000305,1923
811.11908,1895
811.237854,1889
811.356567,1927
811.475403,1922
811.594116,1906
811.71283,1913
811.831604,1916
811.950378,1985
812.069153,1948
812.187927,1951
812.30658,1931
812.425415,1980
812.544128,1946
812.662781,1964
812.781616,1928
812.900269,1877
813.019043,1937
813.137756,1930
813.256531,1924
813.375244,1891
813.493896,1864
813.612671,1839
813.731384,1922
813.850037,1861
813.96875,1886
814.087524,1882
814.206238,1858
814.324951,1819
814.443604,1840
814.562256,1878
814.68103,1853
814.799683,1912
814.918335,1837
815.037109,1878
815.155762,1864
815.274475,1878
815.393188,1853
815.511841,1821
815.630554,1860
815.749146,1882
815.867859,1805
815.986572,1834
816.105164,1839
816.223877,1868
816.342529,1846
816.461182,1849
816.579895,1859
816.698486,1853
816.817139,1835
816.935791,1896
817.054504,1925
817.173096,1911
817.291748,1906
817.4104,1821
817.529053,1869
817.647644,1833
817.766235,1844
817.884949,1811
818.00354,1802
818.122192,1838
818.240845,1760
818.359436,1835
818.478088,1822
818.59668,1791
818.715271,1779
818.833923,1744
818.952515,1761
819.071106,1754
819.189758,1695
819.30835,1700
819.426941,1676
819.545532,1725
819.664124,1694
819.782715,1702
819.901306,1703
820.019897,1685
820.138489,1706
820.25708,1662
820.375671,1701
820.494202,1681
820.612732,1679
820.731384,1731
820.849915,1743
820.968506,1663
821.087097,1681
821.205627,1699
821.324158,1720
821.442749,1665
821.561279,1632
821.679871,1691
821.798401,1629
821.916931,1707
822.035461,1655
822.154053,1689
822.272583,1652
822.391174,1647
822.509583,1633
822.628174,1654
822.746704,1630
822.865234,1613
822.983765,1597
823.102295,1645
823.220825,1668
823.339294,1587
823.457825,1579
823.576355,1663
823.694824,1564
823.813354,1601
823.931885,1577
824.050354,1620
824.168884,1609
824.287354,1675
824.405823,1624
824.524353,1669
824.642822,1646
824.761353,1631
824.879822,1661
824.998291,1635
825.116699,1602
825.235291,1618
825.353699,1607
825.472168,1566
825.590637,1638
825.709106,1640
825.827576,1628
825.946045,1621
826.064453,1656
826.182983,1603
826.301392,1597
826.4198,1601
826.53833,1591
826.656738,1626
826.775208,1610
826.893677,1540
827.012024,1617
827.130493,1619
827.248962,1582
827.36731,1650
827.485779,1623
827.604248,1630
827.722595,1582
827.841064,1621
827.959412,1620
828.077942,1540
828.196289,1607
828.314636,1556
828.433105,1589
828.551514,1587
828.669861,1600
828.78833,1598
828.906677,1579
829.025085,1621
829.143433,1590
829.261841,1572
829.38031,1564
829.498657,1556
829.617004,1570
829.735413,1541
829.85376,1615
829.972107,1588
830.090515,1531
830.208862,1539
830.327209,1631
830.445557,1573
830.563904,1562
830.682312,1527
830.800659,1545
830.919006,1589
831.037354,1595
831.155701,1659
831.274048,1651
831.392395,1658
831.51062,1571
831.629028,1605
831.747314,1609
831.865662,1585
831.984009,1588
832.102356,1624
832.220642,1582
832.338928,1631
832.457275,1619
832.575623,1610
832.693909,1599
832.812134,1583
832.930481,1606
833.048828,1581
833.167114,1594
833.2854,1591
833.403687,1603
833.521973,1577
833.640259,1569
833.758545,1628
833.876831,1613
833.995056,1621
834.113281,1594
834.231628,1598
834.349915,1635
834.468201,1617
834.586426,1604
834.704651,1619
834.822998,1596
834.941162,1636
835.059448,1586
835.177673,1639
835.295959,1647
835.414246,1623
835.53241,1697
835.650635,1630
835.768921,1579
835.887146,1588
836.005371,1622
836.123596,1575
836.241821,1579
836.360046,1592
836.478271,1580
836.596497,1587
836.714722,1563
836.832886,1543
836.95105,1581
837.069336,1565
837.1875,1567
837.305725,1585
837.423889,1585
837.542053,1549
837.660339,1588
837.778503,1563
837.896667,1568
838.014832,1592
838.132996,1560
838.25116,1601
838.369385,1629
838.487488,1603
838.605713,1624
838.723877,1631
838.84198,1631
838.960205,1593
839.078308,1628
839.196472,1632
839.314636,1648
839.4328,1643
839.550964,1656
839.669067,1712
839.787231,1666
839.905396,1740
840.023499,1715
840.141602,1762
840.259766,1709
840.377869,1753
840.495972,1760
840.614136,1707
840.732239,1750
840.850342,1757
840.968445,1748
841.086548,1802
841.204651,1760
841.322754,1818
841.440918,1794
841.55896,1824
841.677002,1770
841.795166,1836
841.913208,1863
842.031311,1853
842.149353,1811
842.267456,1798
842.385498,1822
842.503601,1753
842.621643,1805
842.739746,1783
842.857788,1771
842.97583,1775
843.093933,1801
843.211975,1808
843.330017,1776
843.44812,1798
843.566101,1771
843.684204,1800
843.802246,1772
843.920227,1766
844.038269,1791
844.156311,1790
844.274292,1818
844.392395,1772
844.510376,1748
844.628357,1743
844.74646,1754
844.864441,1751
844.982422,1747
845.100403,1741
845.218384,1746
845.336426,1721
845.454468,1742
845.572449,1713
845.69043,1713
845.808411,1716
845.926453,1712
846.044373,1738
846.162354,1730
846.280396,1736
846.398315,1763
846.516296,1733
846.634216,1791
846.752197,1731
846.870178,1807
846.988098,1748
847.106079,1781
847.22406,1736
847.34198,1739
847.4599,1759
847.577881,1755
847.695801,1790
847.813782,1787
847.931641,1753
848.049561,1758
848.167603,1792
848.285461,1727
848.403381,1762
848.521362,1734
848.639221,1782
848.75708,1699
848.875,1770
848.99292,1770
849.110901,1766
849.22876,1779
849.34668,1719
849.464539,1752
849.582458,1778
849.700317,1734
849.818176,1775
849.936096,1770
850.053955,1741
850.171875,1731
850.289673,1743
850.407593,1742
850.525452,1806
850.643311,1769
850.761169,1797
850.878967,1711
850.996887,1790
851.114746,1709
851.232544,1760
851.350403,1740
851.468262,1731
851.58606,1764
851.703979,1717
851.821777,1756
851.939636,1728
852.057434,1773
852.175232,1742
852.293091,1769
852.410889,1863
852.528687,1900
852.646545,1908
852.764343,1926
852.88208,1949
852.999939,1895
853.117676,1821
853.235535,1808
853.353271,1724
853.471069,1754
853.588928,1718
853.706604,1723
853.824402,1742
853.9422,1702
854.059998,1773
854.177734,1704
854.295532,1772
854.413269,1791
854.531006,1775
854.648804,1777
854.766541,1792
854.884277,1804
855.002014,1802
855.119751,1790
855.237549,1765
855.355225,1769
855.473022,1796
855.590698,1769
855.708435,1824
855.826172,1775
855.943848,1807
856.061646,1803
856.179321,1813
856.296997,1805
856.414795,1831
856.53241,1799
856.650085,1839
856.767822,1840
856.885559,1927
857.003174,1872
857.120911,1849
857.238586,1868
857.356201,1854
857.473938,1891
857.591614,1899
857.709351,1831
857.826965,1788
857.944641,1834
858.062317,1860
858.179993,1783
858.297668,1831
858.415283,1914
858.532959,1832
858.650574,1815
858.768188,1865
858.885803,1847
859.003479,1812
859.121094,1808
859.23877,1826
859.356384,1819
859.473999,1781
859.591675,1782
859.709229,1773
859.826843,1741
859.944458,1756
860.062012,1750
860.179626,1750
860.297302,1733
860.414856,1723
860.532471,1731
860.650024,1752
860.767639,1719
860.885193,1728
861.002808,1718
861.120361,1724
861.237976,1762
861.35553,1783
861.473022,1729
861.590698,1692
861.708191,1769
861.825745,1739
861.943298,1704
862.060852,1740
862.178406,1658
862.295959,1740
862.413513,1634
862.531006,1659
862.64856,1597
862.766113,1617
862.883667,1595
863.00116,1593
863.118713,1602
863.236206,1658
863.353699,1642
863.471252,1621
863.588745,1668
863.706177,1678
863.82373,1635
863.941162,1670
864.058716,1637
864.176208,1672
864.29364,1661
864.411194,1640
864.528687,1590
864.646118,1609
864.763611,1651
864.881042,1659
864.998535,1676
865.116028,1639
865.233459,1608
865.350891,1570
865.468384,1639
865.585754,1642
865.703308,1662
865.820679,1621
865.938171,1669
866.055542,1613
866.173035,1595
866.290466,1630
866.407837,1680
866.52533,1610
866.6427,1644
866.760071,1643
866.877563,1628
866.994934,1633
867.112305,1602
867.229736,1676
867.347107,1692
867.464539,1715
867.58197,1709
867.699341,1699
867.81665,1698
867.934082,1723
868.051453,1678
868.168823,1680
868.286194,1672
868.403564,1631
868.520935,1671
868.638306,1662
868.755676,1684
868.872986,1695
868.990295,1710
869.107727,1747
869.225037,1701
869.342346,1720
869.459717,1726
869.577026,1691
869.694336,1700
869.811707,1757
869.929016,1753
870.046326,1734
870.163635,1769
870.280945,1753
870.398254,1787
870.515564,1798
870.632812,1806
870.750183,1801
870.867432,1827
870.984741,1838
871.102051,1833
871.219299,1847
871.336609,1848
871.453918,1839
871.571106,1901
871.688416,1900
871.805664,1903
871.922852,1841
872.040222,1892
872.157471,1943
872.274719,1850
872.391968,1885
872.509155,1859
872.626465,1776
872.743652,1809
872.860962,1902
872.978149,1826
873.095337,1849
873.212646,1816
873.329834,1836
873.44696,1795
873.564209,1840
873.681396,1786
873.798645,1804
873.915894,1795
874.03302,1804
874.150208,1818
874.267456,1893
874.384583,1893
874.501831,1852
874.618958,1895
874.736145,1859
874.853333,1888
874.970459,1886
875.087646,1916
875.204834,1909
875.32196,1919
875.439148,1869
875.556274,1835
875.673401,1848
875.790527,1796
875.907715,1853
876.024841,1887
876.141968,1818
876.259094,1801
876.376282,1773
876.493347,1773
876.610474,1797
876.7276,1773
876.844727,1774
876.961853,1747
877.078918,1750
877.195984,1744
877.313171,1725
877.430237,1698
877.547302,1752
877.664368,1768
877.781433,1732
877.898499,1749
878.015625,1743
878.13269,1712
878.249695,1737
878.366821,1749
878.483887,1701
878.600952,1638
878.717957,1745
878.834961,1729
878.952087,1680
879.069092,1664
879.186157,1681
879.303162,1692
879.420227,1633
879.537231,1640
879.654236,1619
879.77124,1602
879.888306,1612
880.005249,1640
880.122314,1614
880.239319,1557
880.356323,1570
880.473328,1610
880.590271,1581
880.707275,1594
880.824341,1638
880.941284,1598
881.058228,1587
881.175232,1607
881.292236,1593
881.40918,1590
881.526123,1589
881.643066,1606
881.760071,1605
881.877014,1577
881.993958,1602
882.11084,1520
882.227783,1618
882.344727,1598
882.46167,1579
882.578613,1601
882.695618,1592
882.812439,1527
882.929382,1621
883.046326,1578
883.163208,1629
883.280151,1589
883.397034,1627
883.513916,1605
883.630798,1598
883.747742,1643
883.864563,1675
883.981506,1671
884.098389,1648
884.21521,1647
884.332153,1697
884.448975,1672
884.565796,1691
884.682678,1759
884.7995,1815
884.916443,1855
885.033264,1928
885.150085,1993
885.266968,2097
885.383789,2087
885.500671,2175
885.617493,2173
885.734314,2120
885.851196,2123
885.967896,2113
886.084717,2184
886.201599,2158
886.318359,2102
886.435181,2082
886.552002,2079
886.668762,2049
886.785645,2001
886.902344,2037
887.019165,1993
887.135925,1993
887.252747,1950
887.369446,1908
887.486267,1893
887.603027,1880
887.719788,1844
887.836548,1802
887.953247,1821
888.070068,1745
888.186829,1690
888.303528,1671
888.420288,1671
888.536987,1610
888.653687,1624
888.770447,1655
888.887146,1582
889.003967,1608
889.120667,1542
889.237305,1583
889.354065,1471
889.470703,1522
889.587463,1509
889.704163,1453
889.820862,1508
889.937561,1478
890.054199,1492
890.170837,1481
890.287598,1477
890.404236,1501
890.520874,1405
890.637634,1507
890.754211,1512
890.87085,1495
890.987549,1491
891.104187,1512
891.220886,1538
891.337463,1478
891.454102,1520
891.57074,1517
891.687378,1527
891.804077,1542
891.920654,1537
892.037231,1540
892.15387,1514
892.270447,1522
892.387085,1469
892.503723,1563
892.6203,1522
892.736877,1520
892.853516,1490
892.970032,1486
893.08667,1523
893.203186,1502
893.319763,1536
893.43634,1521
893.552917,1507
893.669556,1519
893.786011,1519
893.902588,1515
894.019165,1504
894.135681,1539
894.252197,1499
894.368835,1514
894.485291,1548
894.601868,1522
894.718384,1523
894.8349,1482
894.951355,1537
895.067932,1490
895.184448,1501
895.300964,1517
895.417419,1488
895.533936,1477
895.650452,1460
895.766907,1460
895.883423,1490
895.999878,1501
896.116333,1523
896.232849,1496
896.349304,1465
896.465759,1446
896.582214,1511
896.698669,1490
896.815125,1481
896.931641,1512
897.048035,1493
897.164551,1503
897.280884,1477
897.397339,1522
897.513794,1483
897.630249,1464
897.746582,1501
897.863098,1496
897.979431,1480
898.095886,1502
898.212341,1525
898.328674,1544
898.445129,1535
898.561462,1514
898.677795,1528
898.794312,1538
898.910645,1548
899.026978,1542
899.143433,1517
899.259766,1533
899.37616,1507
899.492493,1549
899.608765,1550
899.725159,1522
899.841553,1505
899.957947,1550
900.07428,1492
900.190552,1515
900.306946,1573
900.423157,1526
900.53949,1518
900.655884,1553
900.772156,1535
900.888489,1596
901.004822,1519
901.121033,1526
901.237366,1532
901.353699,1560
901.46991,1527
901.586304,1561
901.702515,1625
901.818787,1618
901.93512,1635
902.051331,1642
902.167603,1697
902.283875,1727
902.400085,1752
902.516418,1792
902.632629,1779
902.74884,1811
902.865112,1885
902.981384,1863
903.097595,1852
903.213867,1840
903.330017,1774
903.446289,1829
903.5625,1765
903.67865,1823
903.794922,1764
903.911072,1730
904.027344,1736
904.143494,1725
904.259705,1685
904.375916,1688
904.492065,1614
904.608215,1626
904.724426,1626
904.840576,1629
904.956726,1572
905.072876,1579
905.189087,1571
905.305176,1564
905.421387,1543
905.537537,1549
905.653687,1540
905.769775,1545
905.885925,1491
906.002014,1516
906.118164,1499
906.234314,1480
906.350403,1495
906.466492,1469
906.582642,1476
906.69873,1491
906.814758,1448
906.930908,1509
907.046936,1448
907.163086,1439
907.279175,1454
907.395264,1477
907.511353,1449
907.62738,1461
907.743408,1467
907.859497,1485
907.975525,1455
908.091553,1449
908.207703,1512
908.32373,1465
908.439758,1481
908.555786,1463
908.671814,1458
908.787842,1497
908.90387,1461
909.019775,1457
909.135864,1454
909.251892,1528
909.367859,1481
909.483826,1452
909.599854,1483
909.715881,1477
909.831848,1489
909.947815,1443
910.063782,1485
910.179749,1485
910.295776,1479
910.411743,1489
910.527649,1494
910.643616,1500
910.759583,1470
910.875488,1493
910.991455,1453
911.107361,1476
911.223267,1477
911.339294,1464
911.4552,1457
911.571106,1426
911.687073,1474
911.802979,1458
911.918823,1438
912.034729,1457
912.150635,1447
912.266602,1440
912.382446,1459
912.498352,1445
912.614197,1461
912.730103,1439
912.846008,1463
792.44574,5168
792.56488,5115
792.68396,4914
792.80304,4739
792.92218,4593
793.041199,4526
793.160339,4394
793.279419,4258
793.398499,4346
793.517578,4073
793.636658,3966
793.755737,3912
793.874817,3854
793.993896,3694
794.112976,3659
794.232056,3597
794.351074,3537
794.470215,3527
794.589233,3401
794.708313,3350
794.827393,3302
794.946411,3225
795.065552,3218
795.18457,3229
795.303589,3142
795.422668,3119
795.541687,3070
795.660767,3037
795.779846,2994
795.898865,2950
796.017883,2959
796.136963,2844
796.255981,2824
796.375061,2871
796.49408,2823
796.613037,2690
796.732117,2738
796.851135,2750
796.970154,2590
797.089233,2632
797.208191,2613
797.327271,2597
797.446228,2526
797.565186,2617
797.684265,2555
797.803223,2508
797.922241,2510
798.04126,2505
798.160278,2469
798.279297,2454
798.398315,2436
798.517273,2422
798.636292,2450
798.75531,2372
798.874268,2398
798.993286,2406
799.112244,2396
799.231323,2354
799.350281,2330
799.469238,2354
799.588257,2435
799.707153,2325
799.826111,2347
799.945129,2333
800.064087,2265
800.183044,2307
800.302063,2310
800.421021,2352
800.539978,2268
800.658936,2266
800.777893,2232
800.896912,2264
801.015747,2183
801.134705,2185
801.253723,2239
801.37262,2238
801.491638,2213
801.610535,2163
801.729492,2143
801.84845,2196
801.967407,2150
802.086243,2157
802.205261,2164
802.324158,2145
802.443115,2131
802.562073,2153
802.680969,2116
802.799927,2108
802.918762,2148
803.037659,2079
803.156677,2051
803.275574,2075
803.39447,2069
803.513428,2060
803.632263,2110
803.751221,2067
803.870117,2059
803.989014,1996
804.107971,2051
804.226746,2008
804.345642,2073
804.4646,2043
804.583496,2035
804.702393,1999
804.821228,2024
804.940125,2017
805.059021,2027
805.177917,2014
805.296814,1995
805.415649,2038
805.534546,1964
805.653442,1979
805.772278,1971
805.891113,1966
806.01001,1974
806.128906,1971
806.247742,1931
806.366577,1967
806.485413,1968
806.604309,1936
806.723145,1976
806.84198,2013
806.960876,1909
807.079712,1945
807.198486,1954
807.317383,1927
807.436218,1959
807.554993,1901
807.673889,1981
807.792725,1942
807.91156,1885
808.030396,1952
808.14917,1961
808.268005,1920
808.386841,1929
808.505676,1924
808.624451,1870
808.743286,1941
808.862122,1919
808.980896,1901
809.099731,1905
809.218506,1872
809.337341,1910
809.456116,1905
809.57489,1938
809.693726,1881
809.8125,1850
809.931274,1917
810.050049,1882
810.168884,1911
810.287659,1910
810.406372,1840
810.525269,1896
810.643982,1889
810.762756,1865
810.881531,1894
811.000305,1855
811.11908,1917
811.237854,1915
811.356567,1921
811.475403,1911
811.594116,1885
811.71283,1885
811.831604,1958
811.950378,1927
812.069153,1935
812.187927,1934
812.30658,1911
812.425415,1938
812.544128,1941
812.662781,1911
812.781616,1962
812.900269,1904
813.019043,1924
813.137756,1941
813.256531,1914
813.375244,1889
813.493896,1864
813.612671,1929
813.731384,1849
813.850037,1856
813.96875,1856
814.087524,1877
814.206238,1852
814.324951,1815
814.443604,1825
814.562256,1868
814.68103,1882
814.799683,1853
814.918335,1860
815.037109,1835
815.155762,1874
815.274475,1848
815.393188,1833
815.511841,1833
815.630554,1816
815.749146,1851
815.867859,1874
815.986572,1842
816.105164,1837
816.223877,1835
816.342529,1873
816.461182,1868
816.579895,1864
816.698486,1890
816.817139,1898
816.935791,1867
817.054504,1880
817.173096,1900
817.291748,1888
817.4104,1856
817.529053,1824
817.647644,1850
817.766235,1835
817.884949,1813
818.00354,1787
818.122192,1823
818.240845,1750
818.359436,1793
818.478088,1817
818.59668,1776
818.715271,1739
818.833923,1768
818.952515,1790
819.071106,1726
819.189758,1730
819.30835,1733
819.426941,1691
819.545532,1720
819.664124,1688
819.782715,1730
819.901306,1690
820.019897,1656
820.138489,1677
820.25708,1668
820.375671,1705
820.494202,1675
820.612732,1686
820.731384,1696
820.849915,1755
820.968506,1719
821.087097,1738
821.205627,1714
821.324158,1681
821.442749,1646
821.561279,1649
821.679871,1652
821.798401,1660
821.916931,1676
822.035461,1639
822.154053,1633
822.272583,1647
822.391174,1658
822.509583,1693
822.628174,1652
822.746704,1647
822.865234,1623
822.983765,1620
823.102295,1660
823.220825,1585
823.339294,1633
823.457825,1562
823.576355,1641
823.694824,1658
823.813354,1612
823.931885,1704
824.050354,1583
824.168884,1613
824.287354,1655
824.405823,1624
824.524353,1629
824.642822,1659
824.761353,1619
824.879822,1590
824.998291,1607
825.116699,1653
825.235291,1635
825.353699,1628
825.472168,1600
825.590637,1632
825.709106,1607
825.827576,1628
825.946045,1612
826.064453,1614
826.182983,1649
826.301392,1610
826.4198,1588
826.53833,1579
826.656738,1557
826.775208,1573
826.893677,1565
827.012024,1595
827.130493,1593
827.248962,1614
827.36731,1586
827.485779,1606
827.604248,1634
827.722595,1608
827.841064,1537
827.959412,1616
828.077942,1608
828.196289,1590
828.314636,1545
828.433105,1557
828.551514,1625
828.669861,1569
828.78833,1566
828.906677,1559
829.025085,1589
829.143433,1569
829.261841,1548
829.38031,1565
829.498657,1576
829.617004,1533
829.735413,1549
829.85376,1541
829.972107,1617
830.090515,1593
830.208862,1522
830.327209,1583
830.445557,1556
830.563904,1586
830.682312,1578
830.800659,1591
830.919006,1601
831.037354,1619
831.155701,1653
831.274048,1635
831.392395,1605
831.51062,1594
831.629028,1570
831.747314,1564
831.865662,1607
831.984009,1558
832.102356,1586
832.220642,1666
832.338928,1603
832.457275,1582
832.575623,1649
832.693909,1607
832.812134,1644
832.930481,1573
833.048828,1564
833.167114,1613
833.2854,1589
833.403687,1599
833.521973,1576
833.640259,1583
833.758545,1581
833.876831,1602
833.995056,1623
834.113281,1619
834.231628,1590
834.349915,1636
834.468201,1620
834.586426,1596
834.704651,1575
834.822998,1612
834.941162,1625
835.059448,1616
835.177673,1605
835.295959,1662
835.414246,1668
835.53241,1631
835.650635,1604
835.768921,1612
835.887146,1591
836.005371,1623
836.123596,1587
836.241821,1564
836.360046,1577
836.478271,1553
836.596497,1595
836.714722,1571
836.832886,1527
836.95105,1590
837.069336,1583
837.1875,1567
837.305725,1533
837.423889,1557
837.542053,1538
837.660339,1515
837.778503,1592
837.896667,1553
838.014832,1541
838.132996,1565
838.25116,1567
838.369385,1611
838.487488,1597
838.605713,1580
838.723877,1574
838.84198,1640
838.960205,1639
839.078308,1618
839.196472,1602
839.314636,1669
839.4328,1680
839.550964,1647
839.669067,1639
839.787231,1731
839.905396,1710
840.023499,1689
840.141602,1676
840.259766,1736
840.377869,1719
840.495972,1769
840.614136,1765
840.732239,1744
840.850342,1696
840.968445,1835
841.086548,1780
841.204651,1766
841.322754,1772
841.440918,1794
841.55896,1816
841.677002,1821
841.795166,1841
841.913208,1841
842.031311,1811
842.149353,1834
842.267456,1829
842.385498,1790
842.503601,1842
842.621643,1802
842.739746,1802
842.857788,1819
842.97583,1791
843.093933,1807
843.211975,1735
843.330017,1832
843.44812,1822
843.566101,1762
843.684204,1783
843.802246,1795
843.920227,1758
844.038269,1752
844.156311,1769
844.274292,1753
844.392395,1777
844.510376,1787
844.628357,1740
844.74646,1714
844.864441,1780
844.982422,1697
845.100403,1720
845.218384,1724
845.336426,1675
845.454468,1736
845.572449,1688
845.69043,1732
845.808411,1705
845.926453,1721
846.044373,1731
846.162354,1739
846.280396,1767
846.398315,1707
846.516296,1760
846.634216,1715
846.752197,1723
846.870178,1758
846.988098,1806
847.106079,1728
847.22406,1737
847.34198,1752
847.4599,1773
847.577881,1678
847.695801,1770
847.813782,1775
847.931641,1754
848.049561,1751
848.167603,1740
848.285461,1769
848.403381,1706
848.521362,1700
848.639221,1772
848.75708,1761
848.875,1751
848.99292,1763
849.110901,1739
849.22876,1778
849.34668,1774
849.464539,1786
849.582458,1727
849.700317,1780
849.818176,1743
849.936096,1769
850.053955,1749
850.171875,1742
850.289673,1735
850.407593,1768
850.525452,1780
850.643311,1778
850.761169,1738
850.878967,1716
850.996887,1765
851.114746,1759
851.232544,1711
851.350403,1731
851.468262,1723
851.58606,1766
851.703979,1698
851.821777,1739
851.939636,1759
852.057434,1747
852.175232,1725
852.293091,1765
852.410889,1814
852.528687,1879
852.646545,1945
852.764343,1939
852.88208,1955
852.999939,1853
853.117676,1833
853.235535,1788
853.353271,1792
853.471069,1746
853.588928,1707
853.706604,1711
853.824402,1730
853.9422,1698
854.059998,1709
854.177734,1766
854.295532,1735
854.413269,1774
854.531006,1816
854.648804,1802
854.766541,1801
854.884277,1819
855.002014,1762
855.119751,1748
855.237549,1787
855.355225,1776
855.473022,1807
855.590698,1754
855.708435,1704
855.826172,1781
855.943848,1792
856.061646,1801
856.179321,1829
856.296997,1808
856.414795,1840
856.53241,1750
856.650085,1819
856.767822,1845
856.885559,1824
857.003174,1840
857.120911,1882
857.238586,1865
857.356201,1863
857.473938,1841
857.591614,1831
857.709351,1833
857.826965,1802
857.944641,1863
858.062317,1818
858.179993,1833
858.297668,1862
858.415283,1795
858.532959,1783
858.650574,1820
858.768188,1876
858.885803,1824
859.003479,1827
859.121094,1878
859.23877,1807
859.356384,1835
859.473999,1744
859.591675,1775
859.709229,1738
859.826843,1757
859.944458,1737
860.062012,1702
860.179626,1743
860.297302,1732
860.414856,1756
860.532471,1713
860.650024,1722
860.767639,1725
860.885193,1721
861.002808,1724
861.120361,1757
861.237976,1735
861.35553,1699
861.473022,1750
861.590698,1736
861.708191,1731
861.825745,1754
861.943298,1748
862.060852,1668
862.178406,1678
862.295959,1615
862.413513,1637
862.531006,1595
862.64856,1621
862.766113,1672
862.883667,1613
863.00116,1623
863.118713,1593
863.236206,1639
863.353699,1657
863.471252,1636
863.588745,1677
863.706177,1666
863.82373,1662
863.941162,1636
864.058716,1691
864.176208,1646
864.29364,1704
864.411194,1665
864.528687,1628
864.646118,1644
864.763611,1616
864.881042,1641
864.998535,1621
865.116028,1589
865.233459,1622
865.350891,1629
865.468384,1625
865.585754,1633
865.703308,1589
865.820679,1589
865.938171,1638
866.055542,1633
866.173035,1618
866.290466,1623
866.407837,1576
866.52533,1603
866.6427,1640
866.760071,1593
866.877563,1654
866.994934,1607
867.112305,1635
867.229736,1648
867.347107,1635
867.464539,1647
867.58197,1666
867.699341,1627
867.81665,1694
867.934082,1731
868.051453,1654
868.168823,1673
868.286194,1687
868.403564,1696
868.520935,1677
868.638306,1680
868.755676,1659
868.872986,1629
868.990295,1729
869.107727,1715
869.225037,1693
869.342346,1745
869.459717,1708
869.577026,1755
869.694336,1782
869.811707,1731
869.929016,1707
870.046326,1785
870.163635,1766
870.280945,1758
870.398254,1774
870.515564,1808
870.632812,1828
870.750183,1820
870.867432,1861
870.984741,1879
871.102051,1822
871.219299,1814
871.336609,1876
871.453918,1849
871.571106,1866
871.688416,1898
871.805664,1849
871.922852,1882
872.040222,1978
872.157471,1873
872.274719,1869
872.391968,1869
872.509155,1887
872.626465,1867
872.743652,1862
872.860962,1840
872.978149,1866
873.095337,1839
873.212646,1845
873.329834,1831
873.44696,1804
873.564209,1783
873.681396,1797
873.798645,1845
873.915894,1839
874.03302,1836
874.150208,1829
874.267456,1801
874.384583,1862
874.501831,1864
874.618958,1869
874.736145,1866
874.853333,1931
874.970459,1914
875.087646,1869
875.204834,1908
875.32196,1861
875.439148,1819
875.556274,1857
875.673401,1836
875.790527,1817
875.907715,1827
876.024841,1832
876.141968,1823
876.259094,1807
876.376282,1776
876.493347,1782
876.610474,1767
876.7276,1714
876.844727,1703
876.961853,1785
877.078918,1785
877.195984,1739
877.313171,1767
877.430237,1709
877.547302,1769
877.664368,1758
877.781433,1731
877.898499,1756
878.015625,1774
878.13269,1730
878.249695,1729
878.366821,1715
878.483887,1705
878.600952,1693
878.717957,1675
878.834961,1710
878.952087,1689
879.069092,1649
879.186157,1700
879.303162,1664
879.420227,1667
879.537231,1651
879.654236,1638
879.77124,1652
879.888306,1612
880.005249,1654
880.122314,1597
880.239319,1652
880.356323,1572
880.473328,1588
880.590271,1553
880.707275,1616
880.824341,1615
880.941284,1555
881.058228,1584
881.175232,1604
881.292236,1567
881.40918,1571
881.526123,1548
881.643066,1561
881.760071,1571
881.877014,1598
881.993958,1572
882.11084,1589
882.227783,1547
882.344727,1620
882.46167,1611
882.578613,1553
882.695618,1574
882.812439,1596
882.929382,1566
883.046326,1619
883.163208,1589
883.280151,1624
883.397034,1614
883.513916,1614
883.630798,1618
883.747742,1593
883.864563,1607
883.981506,1675
884.098389,1640
884.21521,1650
884.332153,1685
884.448975,1649
884.565796,1769
884.682678,1777
884.7995,1873
884.916443,1908
885.033264,1928
885.150085,1974
885.266968,2052
885.383789,2075
885.500671,2084
885.617493,2204
885.734314,2167
885.851196,2114
885.967896,2148
886.084717,2154
886.201599,2100
886.318359,2104
886.435181,2095
886.552002,2075
886.668762,2010
886.785645,2060
886.902344,2030
887.019165,2060
887.135925,1951
887.252747,1984
887.369446,1969
887.486267,1878
887.603027,1871
887.719788,1856
887.836548,1852
887.953247,1767
888.070068,1731
888.186829,1688
888.303528,1702
888.420288,1674
888.536987,1621
888.653687,1599
888.770447,1530
888.887146,1623
889.003967,1565
889.120667,1538
889.237305,1522
889.354065,1568
889.470703,1512
889.587463,1488
889.704163,1554
889.820862,1530
889.937561,1548
890.054199,1496
890.170837,1513
890.287598,1476
890.404236,1486
890.520874,1494
890.637634,1507
890.754211,1497
890.87085,1503
890.987549,1485
891.104187,1504
891.220886,1465
891.337463,1561
891.454102,1548
891.57074,1598
891.687378,1507
891.804077,1564
891.920654,1523
892.037231,1527
892.15387,1514
892.270447,1491
892.387085,1500
892.503723,1562
892.6203,1520
892.736877,1578
892.853516,1489
892.970032,1510
893.08667,1518
893.203186,1516
893.319763,1534
893.43634,1498
893.552917,1516
893.669556,1503
893.786011,1493
893.902588,1488
894.019165,1527
894.135681,1487
894.252197,1526
894.368835,1535
894.485291,1484
894.601868,1521
894.718384,1520
894.8349,1550
894.951355,1483
895.067932,1511
895.184448,1477
895.300964,1489
895.417419,1525
895.533936,1520
895.650452,1455
895.766907,1540
895.883423,1467
895.999878,1484
896.116333,1477
896.232849,1493
896.349304,1506
896.465759,1487
896.582214,1514
896.698669,1481
896.815125,1495
896.931641,1500
897.048035,1508
897.164551,1487
897.280884,1486
897.397339,1533
897.513794,1506
897.630249,1499
897.746582,1511
897.863098,1494
897.979431,1535
898.095886,1521
898.212341,1539
898.328674,1543
898.445129,1547
898.561462,1514
898.677795,1530
898.794312,1528
898.910645,1565
899.026978,1536
899.143433,1509
899.259766,1538
899.37616,1546
899.492493,1532
899.608765,1622
899.725159,1529
899.841553,1597
899.957947,1536
900.07428,1553
900.190552,1563
900.306946,1505
900.423157,1530
900.53949,1545
900.655884,1577
900.772156,1532
900.888489,1541
901.004822,1560
901.121033,1559
901.237366,1551
901.353699,1564
901.46991,1643
901.586304,1631
901.702515,1584
901.818787,1601
901.93512,1677
902.051331,1675
902.167603,1700
902.283875,1736
902.400085,1761
902.516418,1804
902.632629,1791
902.74884,1843
902.865112,1888
902.981384,1850
903.097595,1849
903.213867,1910
903.330017,1798
903.446289,1794
903.5625,1831
903.67865,1797
903.794922,1794
903.911072,1787
904.027344,1709
904.143494,1693
904.259705,1730
904.375916,1659
904.492065,1634
904.608215,1669
904.724426,1675
904.840576,1564
904.956726,1590
905.072876,1592
905.189087,1585
905.305176,1581
905.421387,1564
905.537537,1521
905.653687,1559
905.769775,1516
905.885925,1537
906.002014,1537
906.118164,1562
906.234314,1514
906.350403,1521
906.466492,1474
906.582642,1468
906.69873,1485
906.814758,1515
906.930908,1480
907.046936,1454
907.163086,1465
907.279175,1479
907.395264,1486
907.511353,1468
907.62738,1462
907.743408,1449
907.859497,1502
907.975525,1469
908.091553,1459
908.207703,1450
908.32373,1469
908.439758,1491
908.555786,1481
908.671814,1475
908.787842,1467
908.90387,1477
909.019775,1479
909.135864,1491
909.251892,1501
909.367859,1504
909.483826,1455
909.599854,1556
909.715881,1494
909.831848,1517
909.947815,1498
910.063782,1496
910.179749,1504
910.295776,1491
910.411743,1524
910.527649,1544
910.643616,1501
910.759583,1503
910.875488,1456
910.991455,1493
911.107361,1457
911.223267,1515
911.339294,1505
911.4552,1502
911.571106,1460
911.687073,1460
911.802979,1506
911.918823,1480
912.034729,1396
912.150635,1495
912.266602,1471
912.382446,1430
912.498352,1426
912.614197,1452
912.730103,1439
912.846008,1488
792.44574,5238
792.56488,5127
792.68396,4923
792.80304,4719
792.92218,4621
793.041199,4464
793.160339,4385
793.279419,4314
793.398499,4198
793.517578,4101
793.636658,3981
793.755737,3957
793.874817,3855
793.993896,3653
794.112976,3641
794.232056,3567
794.351074,3514
794.470215,3527
794.589233,3439
794.708313,3414
794.827393,3340
794.946411,3291
795.065552,3238
795.18457,3205
795.303589,3116
795.422668,3088
795.541687,3063
795.660767,3059
795.779846,2966
795.898865,2907
796.017883,2919
796.136963,2887
796.255981,2833
796.375061,2826
796.49408,2873
796.613037,2747
796.732117,2669
796.851135,2688
796.970154,2702
797.089233,2618
797.208191,2630
797.327271,2596
797.446228,2618
797.565186,2524
797.684265,2503
797.803223,2517
797.922241,2536
798.04126,2505
798.160278,2451
798.279297,2413
798.398315,2432
798.517273,2472
798.636292,2407
798.75531,2438
798.874268,2401
798.993286,2379
799.112244,2407
799.231323,2401
799.350281,2350
799.469238,2392
799.588257,2334
799.707153,2360
799.826111,2353
799.945129,2332
800.064087,2332
800.183044,2321
800.302063,2313
800.421021,2287
800.539978,2306
800.658936,2247
800.777893,2268
800.896912,2272
801.015747,2213
801.134705,2193
801.253723,2233
801.37262,2161
801.491638,2198
801.610535,2194
801.729492,2148
801.84845,2140
801.967407,2127
802.086243,2163
802.205261,2186
802.324158,2134
802.443115,2109
802.562073,2129
802.680969,2120
802.799927,2118
802.918762,2124
803.037659,2050
803.156677,2089
803.275574,2066
803.39447,2103
803.513428,2049
803.632263,2080
803.751221,2088
803.870117,2078
803.989014,2030
804.107971,2060
804.226746,2014
804.345642,2058
804.4646,2044
804.583496,2054
804.702393,1992
804.821228,1932
804.940125,2026
805.059021,1996
805.177917,2005
805.296814,2005
805.415649,1992
805.534546,2007
805.653442,2010
805.772278,1980
805.891113,2003
806.01001,1976
806.128906,1970
806.247742,1986
806.366577,1917
806.485413,1989
806.604309,2015
806.723145,1931
806.84198,1961
806.960876,1960
807.079712,1992
807.198486,1948
807.317383,1964
807.436218,1919
807.554993,1992
807.673889,1890
807.792725,1885
807.91156,1892
808.030396,1911
808.14917,1928
808.268005,1919
808.386841,1910
808.505676,1944
808.624451,1858
808.743286,1882
808.862122,1953
808.980896,1836
809.099731,1868
809.218506,1904
809.337341,1865
809.456116,1878
809.57489,1899
809.693726,1904
809.8125,1893
809.931274,1885
810.050049,1875
810.168884,1906
810.287659,1873
810.406372,1869
810.525269,1832
810.643982,1866
810.762756,1852
810.881531,1827
811.000305,1927
811.11908,1871
811.237854,1886
811.356567,1876
811.475403,1913
811.594116,1883
811.71283,1877
811.831604,1895
811.950378,1975
812.069153,1927
812.187927,1921
812.30658,1962
812.425415,1920
812.544128,1942
812.662781,1966
812.781616,1879
812.900269,1930
813.019043,1977
813.137756,1821
813.256531,1899
813.375244,1847
813.493896,1876
813.612671,1873
813.731384,1873
813.850037,1861
813.96875,1854
814.087524,1886
814.206238,1860
814.324951,1815
814.443604,1789
814.562256,1841
814.68103,1866
814.799683,1819
814.918335,1842
815.037109,1860
815.155762,1855
815.274475,1909
815.393188,1859
815.511841,1821
815.630554,1811
815.749146,1832
815.867859,1812
815.986572,1824
816.105164,1759
816.223877,1810
816.342529,1838
816.461182,1872
816.579895,1879
816.698486,1857
816.817139,1872
816.935791,1895
817.054504,1875
817.173096,1822
817.291748,1880
817.4104,1893
817.529053,1856
817.647644,1843
817.766235,1829
817.884949,1870
818.00354,1838
818.122192,1787
818.240845,1764
818.359436,1791
818.478088,1801
818.59668,1739
818.715271,1752
818.833923,1725
818.952515,1728
819.071106,1713
819.189758,1684
819.30835,1714
819.426941,1683
819.545532,1684
819.664124,1739
819.782715,1675
819.901306,1687
820.019897,1712
820.138489,1657
820.25708,1660
820.375671,1667
820.494202,1699
820.612732,1708
820.731384,1715
820.849915,1711
820.968506,1663
821.087097,1630
821.205627,1675
821.324158,1678
821.442749,1702
821.561279,1642
821.679871,1654
821.798401,1612
821.916931,1616
822.035461,1651
822.154053,1610
822.272583,1640
822.391174,1603
822.509583,1618
822.628174,1605
822.746704,1618
822.865234,1640
822.983765,1637
823.102295,1586
823.220825,1598
823.339294,1619
823.457825,1574
823.576355,1626
823.694824,1613
823.813354,1581
823.931885,1618
824.050354,1628
824.168884,1583
824.287354,1611
824.405823,1589
824.524353,1590
824.642822,1645
824.761353,1611
824.879822,1668
824.998291,1651
825.116699,1607
825.235291,1598
825.353699,1618
825.472168,1590
825.590637,1575
825.709106,1621
825.827576,1587
825.946045,1625
826.064453,1638
826.182983,1588
826.301392,1555
826.4198,1559
826.53833,1568
826.656738,1561
826.775208,1529
826.893677,1554
827.012024,1520
827.130493,1545
827.248962,1539
827.36731,1590
827.485779,1569
827.604248,1616
827.722595,1557
827.841064,1548
827.959412,1507
828.077942,1554
828.196289,1557
828.314636,1556
828.433105,1568
828.551514,1563
828.669861,1558
828.78833,1562
828.906677,1493
829.025085,1598
829.143433,1547
829.261841,1574
829.38031,1625
829.498657,1552
829.617004,1548
829.735413,1579
829.85376,1537
829.972107,1520
830.090515,1555
830.208862,1585
830.327209,1565
830.445557,1516
830.563904,1530
830.682312,1580
830.800659,1513
830.919006,1589
831.037354,1568
831.155701,1554
831.274048,1641
831.392395,1597
831.51062,1642
831.629028,1589
831.747314,1537
831.865662,1565
831.984009,1619
832.102356,1619
832.220642,1587
832.338928,1618
832.457275,1628
832.575623,1602
832.693909,1596
832.812134,1600
832.930481,1619
833.048828,1617
833.167114,1584
833.2854,1626
833.403687,1586
833.521973,1644
833.640259,1564
833.758545,1594
833.876831,1588
833.995056,1605
834.113281,1607
834.231628,1626
834.349915,1583
834.468201,1592
834.586426,1581
834.704651,1607
834.822998,1593
834.941162,1590
835.059448,1570
835.177673,1614
835.295959,1645
835.414246,1624
835.53241,1601
835.650635,1580
835.768921,1548
835.887146,1590
836.005371,1568
836.123596,1572
836.241821,1544
836.360046,1591
836.478271,1569
836.596497,1528
836.714722,1539
836.832886,1561
836.95105,1543
837.069336,1552
837.1875,1548
837.305725,1540
837.423889,1519
837.542053,1537
837.660339,1530
837.778503,1562
837.896667,1503
838.014832,1559
838.132996,1557
838.25116,1627
838.369385,1578
838.487488,1612
838.605713,1583
838.723877,1610
838.84198,1591
838.960205,1604
839.078308,1629
839.196472,1633
839.314636,1600
839.4328,1681
839.550964,1681
839.669067,1634
839.787231,1675
839.905396,1661
840.023499,1714
840.141602,1645
840.259766,1760
840.377869,1692
840.495972,1693
840.614136,1713
840.732239,1752
840.850342,1742
840.968445,1778
841.086548,1731
841.204651,1807
841.322754,1842
841.440918,1798
841.55896,1774
841.677002,1801
841.795166,1817
841.913208,1828
842.031311,1860
842.149353,1816
842.267456,1820
842.385498,1764
842.503601,1816
842.621643,1782
842.739746,1740
842.857788,1794
842.97583,1763
843.093933,1698
843.211975,1754
843.330017,1799
843.44812,1739
843.566101,1790
843.684204,1745
843.802246,1757
843.920227,1750
844.038269,1764
844.156311,1727
844.274292,1763
844.392395,1765
844.510376,1723
844.628357,1746
844.74646,1740
844.864441,1696
844.982422,1765
845.100403,1737
845.218384,1652
845.336426,1710
845.454468,1705
845.572449,1686
845.69043,1673
845.808411,1714
845.926453,1696
846.044373,1742
846.162354,1713
846.280396,1734
846.398315,1717
846.516296,1744
846.634216,1725
846.752197,1722
846.870178,1770
846.988098,1727
847.106079,1735
847.22406,1750
847.34198,1755
847.4599,1766
847.577881,1818
847.695801,1789
847.813782,1715
847.931641,1750
848.049561,1722
848.167603,1699
848.285461,1722
848.403381,1722
848.521362,1798
848.639221,1682
848.75708,1721
848.875,1704
848.99292,1699
849.110901,1762
849.22876,1702
849.34668,1708
849.464539,1796
849.582458,1756
849.700317,1729
849.818176,1762
849.936096,1738
850.053955,1716
850.171875,1746
850.289673,1761
850.407593,1733
850.525452,1740
850.643311,1729
850.761169,1744
850.878967,1710
850.996887,1717
851.114746,1737
851.232544,1727
851.350403,1728
851.468262,1695
851.58606,1670
851.703979,1685
851.821777,1712
851.939636,1681
852.057434,1753
852.175232,1739
852.293091,1758
852.410889,1805
852.528687,1887
852.646545,1920
852.764343,1910
852.88208,1919
852.999939,1822
853.117676,1792
853.235535,1735
853.353271,1786
853.471069,1672
853.588928,1703
853.706604,1725
853.824402,1704
853.9422,1744
854.059998,1756
854.177734,1708
854.295532,1754
854.413269,1787
854.531006,1796
854.648804,1780
854.766541,1739
854.884277,1810
855.002014,1776
855.119751,1741
855.237549,1749
855.355225,1720
855.473022,1749
855.590698,1700
855.708435,1785
855.826172,1764
855.943848,1788
856.061646,1785
856.179321,1758
856.296997,1729
856.414795,1813
856.53241,1783
856.650085,1814
856.767822,1819
856.885559,1836
857.003174,1824
857.120911,1816
857.238586,1872
857.356201,1864
857.473938,1816
857.591614,1789
857.709351,1791
857.826965,1842
857.944641,1790
858.062317,1818
858.179993,1827
858.297668,1874
858.415283,1831
858.532959,1821
858.650574,1826
858.768188,1853
858.885803,1799
859.003479,1810
859.121094,1826
859.23877,1779
859.356384,1771
859.473999,1718
859.591675,1760
859.709229,1771
859.826843,1744
859.944458,1731
860.062012,1737
860.179626,1734
860.297302,1750
860.414856,1717
860.532471,1721
860.650024,1708
860.767639,1728
860.885193,1710
861.002808,1733
861.120361,1762
861.237976,1713
861.35553,1718
861.473022,1719
861.590698,1722
861.708191,1729
861.825745,1711
861.943298,1700
862.060852,1693
862.178406,1663
862.295959,1610
862.413513,1617
862.531006,1609
862.64856,1617
862.766113,1625
862.883667,1583
863.00116,1608
863.118713,1600
863.236206,1622
863.353699,1606
863.471252,1648
863.588745,1646
863.706177,1677
863.82373,1721
863.941162,1734
864.058716,1669
864.176208,1656
864.29364,1668
864.411194,1603
864.528687,1615
864.646118,1619
864.763611,1587
864.881042,1590
864.998535,1625
865.116028,1634
865.233459,1600
865.350891,1589
865.468384,1595
865.585754,1620
865.703308,1607
865.820679,1603
865.938171,1571
866.055542,1627
866.173035,1612
866.290466,1631
866.407837,1546
866.52533,1612
866.6427,1587
866.760071,1626
866.877563,1639
866.994934,1578
867.112305,1646
867.229736,1643
867.347107,1674
867.464539,1643
867.58197,1649
867.699341,1670
867.81665,1689
867.934082,1651
868.051453,1655
868.168823,1632
868.286194,1664
868.403564,1683
868.520935,1670
868.638306,1640
868.755676,1647
868.872986,1699
868.990295,1673
869.107727,1682
869.225037,1746
869.342346,1725
869.459717,1726
869.577026,1757
869.694336,1758
869.811707,1746
869.929016,1725
870.046326,1733
870.163635,1745
870.280945,1771
870.398254,1748
870.515564,1741
870.632812,1800
870.750183,1795
870.867432,1803
870.984741,1819
871.102051,1841
871.219299,1862
871.336609,1826
871.453918,1860
871.571106,1870
871.688416,1879
871.805664,1857
871.922852,1864
872.040222,1892
872.157471,1875
872.274719,1853
872.391968,1873
872.509155,1827
872.626465,1860
872.743652,1901
872.860962,1788
872.978149,1820
873.095337,1814
873.212646,1847
873.329834,1792
873.44696,1815
873.564209,1841
873.681396,1806
873.798645,1809
873.915894,1835
874.03302,1852
874.150208,1825
874.267456,1843
874.384583,1864
874.501831,1856
874.618958,1829
874.736145,1904
874.853333,1839
874.970459,1897
875.087646,1866
875.204834,1910
875.32196,1878
875.439148,1864
875.556274,1825
875.673401,1817
875.790527,1790
875.907715,1787
876.024841,1777
876.141968,1795
876.259094,1793
876.376282,1743
876.493347,1764
876.610474,1751
876.7276,1745
876.844727,1690
876.961853,1752
877.078918,1757
877.195984,1746
877.313171,1758
877.430237,1740
877.547302,1729
877.664368,1785
877.781433,1741
877.898499,1780
878.015625,1730
878.13269,1718
878.249695,1694
878.366821,1719
878.483887,1709
878.600952,1617
878.717957,1699
878.834961,1664
878.952087,1643
879.069092,1642
879.186157,1651
879.303162,1675
879.420227,1636
879.537231,1618
879.654236,1618
879.77124,1622
879.888306,1608
880.005249,1593
880.122314,1624
880.239319,1597
880.356323,1579
880.473328,1609
880.590271,1589
880.707275,1578
880.824341,1563
880.941284,1579
881.058228,1568
881.175232,1568
881.292236,1591
881.40918,1541
881.526123,1570
881.643066,1594
881.760071,1638
881.877014,1603
881.993958,1561
882.11084,1598
882.227783,1598
882.344727,1550
882.46167,1583
882.578613,1529
882.695618,1599
882.812439,1588
882.929382,1629
883.046326,1626
883.163208,1588
883.280151,1580
883.397034,1607
883.513916,1635
883.630798,1612
883.747742,1627
883.864563,1659
883.981506,1672
884.098389,1602
884.21521,1680
884.332153,1597
884.448975,1687
884.565796,1717
884.682678,1757
884.7995,1768
884.916443,1872
885.033264,1913
885.150085,1985
885.266968,2045
885.383789,2093
885.500671,2131
885.617493,2166
885.734314,2173
885.851196,2139
885.967896,2110
886.084717,2162
886.201599,2113
886.318359,2074
886.435181,2098
886.552002,2065
886.668762,2109
886.785645,2039
886.902344,2019
887.019165,1949
887.135925,1967
887.252747,1943
887.369446,1918
887.486267,1889
887.603027,1867
887.719788,1821
887.836548,1796
887.953247,1749
888.070068,1732
888.186829,1738
888.303528,1662
888.420288,1678
888.536987,1627
888.653687,1563
888.770447,1621
888.887146,1574
889.003967,1545
889.120667,1549
889.237305,1570
889.354065,1505
889.470703,1536
889.587463,1501
889.704163,1506
889.820862,1465
889.937561,1521
890.054199,1470
890.170837,1547
890.287598,1484
890.404236,1522
890.520874,1543
890.637634,1501
890.754211,1523
890.87085,1505
890.987549,1538
891.104187,1477
891.220886,1529
891.337463,1515
891.454102,1486
891.57074,1517
891.687378,1548
891.804077,1513
891.920654,1505
892.037231,1530
892.15387,1489
892.270447,1592
892.387085,1506
892.503723,1528
892.6203,1511
892.736877,1517
892.853516,1506
892.970032,1511
893.08667,1473
893.203186,1562
893.319763,1479
893.43634,1507
893.552917,1523
893.669556,1532
893.786011,1492
893.902588,1460
894.019165,1505
894.135681,1502
894.252197,1506
894.368835,1514
894.485291,1494
894.601868,1488
894.718384,1493
894.8349,1453
894.951355,1511
895.067932,1504
895.184448,1462
895.300964,1518
895.417419,1440
895.533936,1501
895.650452,1481
895.766907,1483
895.883423,1496
895.999878,1472
896.116333,1473
896.232849,1453
896.349304,1516
896.465759,1528
896.582214,1508
896.698669,1534
896.815125,1478
896.931641,1526
897.048035,1507
897.164551,1486
897.280884,1501
897.397339,1518
897.513794,1460
897.630249,1515
897.746582,1516
897.863098,1526
897.979431,1491
898.095886,1504
898.212341,1536
898.328674,1492
898.445129,1591
898.561462,1522
898.677795,1556
898.794312,1523
898.910645,1542
899.026978,1563
899.143433,1514
899.259766,1527
899.37616,1558
899.492493,1530
899.608765,1525
899.725159,1540
899.841553,1541
899.957947,1509
900.07428,1518
900.190552,1538
900.306946,1538
900.423157,1555
900.53949,1530
900.655884,1575
900.772156,1556
900.888489,1549
901.004822,1545
901.121033,1622
901.237366,1557
901.353699,1602
901.46991,1554
901.586304,1576
901.702515,1608
901.818787,1649
901.93512,1682
902.051331,1701
902.167603,1720
902.283875,1713
902.400085,1757
902.516418,1830
902.632629,1839
902.74884,1898
902.865112,1847
902.981384,1822
903.097595,1847
903.213867,1836
903.330017,1852
903.446289,1824
903.5625,1834
903.67865,1757
903.794922,1747
903.911072,1760
904.027344,1737
904.143494,1687
904.259705,1694
904.375916,1636
904.492065,1668
904.608215,1618
904.724426,1604
904.840576,1615
904.956726,1625
905.072876,1669
905.189087,1572
905.305176,1574
905.421387,1548
905.537537,1568
905.653687,1478
905.769775,1594
905.885925,1558
906.002014,1511
906.118164,1500
906.234314,1540
906.350403,1523
906.466492,1457
906.582642,1466
906.69873,1510
906.814758,1488
906.930908,1497
907.046936,1472
907.163086,1473
907.279175,1490
907.395264,1479
907.511353,1470
907.62738,1500
907.743408,1477
907.859497,1487
907.975525,1522
908.091553,1456
908.207703,1496
908.32373,1496
908.439758,1509
908.555786,1478
908.671814,1472
908.787842,1523
908.90387,1523
909.019775,1465
909.135864,1487
909.251892,1502
909.367859,1539
909.483826,1492
909.599854,1461
909.715881,1457
909.831848,1450
909.947815,1507
910.063782,1482
910.179749,1486
910.295776,1495
910.411743,1494
910.527649,1517
910.643616,1479
910.759583,1465
910.875488,1510
910.991455,1479
911.107361,1481
911.223267,1454
911.339294,1507
911.4552,1497
911.571106,1462
911.687073,1490
911.802979,1483
911.918823,1460
912.034729,1499
912.150635,1503
912.266602,1461
912.382446,1448
912.498352,1458
912.614197,1491
912.730103,1484
912.846008,1483
