792.44574,2383
792.56488,2277
792.68396,2281
792.80304,2211
792.92218,2155
793.041199,2139
793.160339,2137
793.279419,2115
793.398499,2109
793.517578,2045
793.636658,2003
793.755737,2037
793.874817,2017
793.993896,2026
794.112976,1945
794.232056,1912
794.351074,1912
794.470215,1915
794.589233,1846
794.708313,1877
794.827393,1889
794.946411,1857
795.065552,1862
795.18457,1856
795.303589,1819
795.422668,1855
795.541687,1826
795.660767,1830
795.779846,1777
795.898865,1793
796.017883,1758
796.136963,1741
796.255981,1770
796.375061,1718
796.49408,1720
796.613037,1743
796.732117,1751
796.851135,1712
796.970154,1751
797.089233,1734
797.208191,1670
797.327271,1693
797.446228,1700
797.565186,1661
797.684265,1733
797.803223,1660
797.922241,1673
798.04126,1690
798.160278,1647
798.279297,1638
798.398315,1707
798.517273,1657
798.636292,1661
798.75531,1674
798.874268,1682
798.993286,1636
799.112244,1628
799.231323,1670
799.350281,1655
799.469238,1608
799.588257,1602
799.707153,1637
799.826111,1641
799.945129,1603
800.064087,1642
800.183044,1621
800.302063,1632
800.421021,1656
800.539978,1613
800.658936,1618
800.777893,1594
800.896912,1592
801.015747,1602
801.134705,1619
801.253723,1593
801.37262,1603
801.491638,1619
801.610535,1552
801.729492,1562
801.84845,1552
801.967407,1595
802.086243,1533
802.205261,1566
802.324158,1560
802.443115,1543
802.562073,1566
802.680969,1588
802.799927,1554
802.918762,1619
803.037659,1529
803.156677,1588
803.275574,1507
803.39447,1554
803.513428,1553
803.632263,1563
803.751221,1580
803.870117,1549
803.989014,1538
804.107971,1561
804.226746,1544
804.345642,1561
804.4646,1592
804.583496,1581
804.702393,1554
804.821228,1571
804.940125,1535
805.059021,1542
805.177917,1527
805.296814,1555
805.415649,1603
805.534546,1573
805.653442,1553
805.772278,1562
805.891113,1555
806.01001,1519
806.128906,1527
806.247742,1589
806.366577,1536
806.485413,1565
806.604309,1529
806.723145,1568
806.84198,1531
806.960876,1550
807.079712,1517
807.198486,1527
807.317383,1567
807.436218,1512
807.554993,1534
807.673889,1519
807.792725,1547
807.91156,1565
808.030396,1519
808.14917,1535
808.268005,1522
808.386841,1533
808.505676,1529
808.624451,1485
808.743286,1520
808.862122,1519
808.980896,1522
809.099731,1486
809.218506,1504
809.337341,1502
809.456116,1538
809.57489,1506
809.693726,1533
809.8125,1517
809.931274,1514
810.050049,1554
810.168884,1534
810.287659,1535
810.406372,1503
810.525269,1516
810.643982,1501
810.762756,1498
810.881531,1542
811.000305,1515
811.11908,1491
811.237854,1486
811.356567,1524
811.475403,1552
811.594116,1536
811.71283,1552
811.831604,1529
811.950378,1526
812.069153,1536
812.187927,1510
812.30658,1544
812.425415,1488
812.544128,1566
812.662781,1510
812.781616,1516
812.900269,1523
813.019043,1508
813.137756,1521
813.256531,1533
813.375244,1484
813.493896,1513
813.612671,1541
813.731384,1480
813.850037,1462
813.96875,1509
814.087524,1479
814.206238,1474
814.324951,1460
814.443604,1501
814.562256,1497
814.68103,1541
814.799683,1490
814.918335,1504
815.037109,1510
815.155762,1547
815.274475,1492
815.393188,1481
815.511841,1509
815.630554,1483
815.749146,1484
815.867859,1482
815.986572,1508
816.105164,1480
816.223877,1504
816.342529,1504
816.461182,1489
816.579895,1513
816.698486,1487
816.817139,1449
816.935791,1524
817.054504,1545
817.173096,1487
817.291748,1474
817.4104,1478
817.529053,1486
817.647644,1487
817.766235,1494
817.884949,1420
818.00354,1490
818.122192,1461
818.240845,1465
818.359436,1430
818.478088,1409
818.59668,1445
818.715271,1451
818.833923,1429
818.952515,1470
819.071106,1412
819.189758,1459
819.30835,1452
819.426941,1432
819.545532,1427
819.664124,1405
819.782715,1413
819.901306,1429
820.019897,1380
820.138489,1412
820.25708,1432
820.375671,1411
820.494202,1407
820.612732,1416
820.731384,1411
820.849915,1368
820.968506,1465
821.087097,1407
821.205627,1369
821.324158,1434
821.442749,1414
821.561279,1397
821.679871,1387
821.798401,1385
821.916931,1414
822.035461,1458
822.154053,1357
822.272583,1416
822.391174,1403
822.509583,1390
822.628174,1400
822.746704,1348
822.865234,1375
822.983765,1364
823.102295,1407
823.220825,1415
823.339294,1384
823.457825,1416
823.576355,1340
823.694824,1375
823.813354,1363
823.931885,1371
824.050354,1397
824.168884,1316
824.287354,1374
824.405823,1431
824.524353,1398
824.642822,1372
824.761353,1347
824.879822,1369
824.998291,1401
825.116699,1381
825.235291,1378
825.353699,1371
825.472168,1384
825.590637,1408
825.709106,1411
825.827576,1432
825.946045,1387
826.064453,1324
826.182983,1343
826.301392,1396
826.4198,1372
826.53833,1357
826.656738,1372
826.775208,1332
826.893677,1401
827.012024,1313
827.130493,1367
827.248962,1372
827.36731,1323
827.485779,1395
827.604248,1385
827.722595,1382
827.841064,1338
827.959412,1306
828.077942,1362
828.196289,1377
828.314636,1356
828.433105,1382
828.551514,1336
828.669861,1354
828.78833,1304
828.906677,1358
829.025085,1355
829.143433,1382
829.261841,1345
829.38031,1330
829.498657,1329
829.617004,1358
829.735413,1341
829.85376,1351
829.972107,1345
830.090515,1364
830.208862,1343
830.327209,1329
830.445557,1413
830.563904,1331
830.682312,1351
830.800659,1372
830.919006,1359
831.037354,1372
831.155701,1381
831.274048,1371
831.392395,1342
831.51062,1347
831.629028,1364
831.747314,1336
831.865662,1333
831.984009,1360
832.102356,1344
832.220642,1356
832.338928,1354
832.457275,1361
832.575623,1333
832.693909,1334
832.812134,1363
832.930481,1319
833.048828,1359
833.167114,1358
833.2854,1360
833.403687,1354
833.521973,1338
833.640259,1338
833.758545,1346
833.876831,1324
833.995056,1348
834.113281,1309
834.231628,1388
834.349915,1321
834.468201,1363
834.586426,1340
834.704651,1367
834.822998,1345
834.941162,1366
835.059448,1378
835.177673,1359
835.295959,1350
835.414246,1356
835.53241,1384
835.650635,1280
835.768921,1341
835.887146,1363
836.005371,1377
836.123596,1329
836.241821,1356
836.360046,1345
836.478271,1366
836.596497,1328
836.714722,1360
836.832886,1318
836.95105,1368
837.069336,1332
837.1875,1359
837.305725,1311
837.423889,1345
837.542053,1372
837.660339,1296
837.778503,1360
837.896667,1339
838.014832,1360
838.132996,1331
838.25116,1329
838.369385,1385
838.487488,1308
838.605713,1334
838.723877,1370
838.84198,1342
838.960205,1327
839.078308,1335
839.196472,1341
839.314636,1327
839.4328,1351
839.550964,1361
839.669067,1348
839.787231,1367
839.905396,1401
840.023499,1388
840.141602,1362
840.259766,1352
840.377869,1378
840.495972,1371
840.614136,1382
840.732239,1378
840.850342,1368
840.968445,1380
841.086548,1379
841.204651,1391
841.322754,1406
841.440918,1397
841.55896,1406
841.677002,1371
841.795166,1411
841.913208,1360
842.031311,1382
842.149353,1372
842.267456,1367
842.385498,1376
842.503601,1417
842.621643,1362
842.739746,1399
842.857788,1339
842.97583,1370
843.093933,1411
843.211975,1349
843.330017,1380
843.44812,1355
843.566101,1353
843.684204,1333
843.802246,1347
843.920227,1347
844.038269,1386
844.156311,1341
844.274292,1331
844.392395,1356
844.510376,1343
844.628357,1335
844.74646,1383
844.864441,1367
844.982422,1351
845.100403,1388
845.218384,1326
845.336426,1373
845.454468,1335
845.572449,1372
845.69043,1349
845.808411,1331
845.926453,1366
846.044373,1330
846.162354,1305
846.280396,1395
846.398315,1322
846.516296,1359
846.634216,1335
846.752197,1384
846.870178,1368
846.988098,1361
847.106079,1340
847.22406,1342
847.34198,1386
847.4599,1386
847.577881,1385
847.695801,1335
847.813782,1408
847.931641,1368
848.049561,1365
848.167603,1376
848.285461,1339
848.403381,1349
848.521362,1345
848.639221,1367
848.75708,1376
848.875,1405
848.99292,1392
849.110901,1361
849.22876,1314
849.34668,1383
849.464539,1331
849.582458,1366
849.700317,1375
849.818176,1364
849.936096,1356
850.053955,1376
850.171875,1343
850.289673,1407
850.407593,1377
850.525452,1384
850.643311,1388
850.761169,1324
850.878967,1365
850.996887,1368
851.114746,1355
851.232544,1355
851.350403,1362
851.468262,1384
851.58606,1334
851.703979,1323
851.821777,1376
851.939636,1361
852.057434,1343
852.175232,1388
852.293091,1366
852.410889,1356
852.528687,1378
852.646545,1383
852.764343,1446
852.88208,1387
852.999939,1397
853.117676,1339
853.235535,1382
853.353271,1327
853.471069,1373
853.588928,1373
853.706604,1343
853.824402,1353
853.9422,1337
854.059998,1345
854.177734,1397
854.295532,1337
854.413269,1324
854.531006,1368
854.648804,1364
854.766541,1382
854.884277,1371
855.002014,1353
855.119751,1354
855.237549,1360
855.355225,1390
855.473022,1338
855.590698,1366
855.708435,1347
855.826172,1352
855.943848,1401
856.061646,1388
856.179321,1416
856.296997,1355
856.414795,1382
856.53241,1367
856.650085,1388
856.767822,1379
856.885559,1405
857.003174,1378
857.120911,1381
857.238586,1386
857.356201,1406
857.473938,1398
857.591614,1378
857.709351,1403
857.826965,1368
857.944641,1397
858.062317,1372
858.179993,1373
858.297668,1360
858.415283,1370
858.532959,1398
858.650574,1356
858.768188,1393
858.885803,1389
859.003479,1391
859.121094,1338
859.23877,1399
859.356384,1335
859.473999,1359
859.591675,1342
859.709229,1351
859.826843,1394
859.944458,1345
860.062012,1356
860.179626,1378
860.297302,1331
860.414856,1345
860.532471,1347
860.650024,1357
860.767639,1386
860.885193,1399
861.002808,1302
861.120361,1374
861.237976,1362
861.35553,1350
861.473022,1332
861.590698,1365
861.708191,1330
861.825745,1385
861.943298,1336
862.060852,1336
862.178406,1324
862.295959,1391
862.413513,1310
862.531006,1370
862.64856,1329
862.766113,1328
862.883667,1344
863.00116,1342
863.118713,1334
863.236206,1341
863.353699,1339
863.471252,1345
863.588745,1351
863.706177,1364
863.82373,1298
863.941162,1363
864.058716,1320
864.176208,1350
864.29364,1372
864.411194,1353
864.528687,1276
864.646118,1364
864.763611,1312
864.881042,1315
864.998535,1341
865.116028,1336
865.233459,1305
865.350891,1331
865.468384,1300
865.585754,1332
865.703308,1301
865.820679,1375
865.938171,1312
866.055542,1375
866.173035,1306
866.290466,1347
866.407837,1335
866.52533,1350
866.6427,1323
866.760071,1313
866.877563,1331
866.994934,1318
867.112305,1355
867.229736,1338
867.347107,1342
867.464539,1350
867.58197,1340
867.699341,1370
867.81665,1362
867.934082,1332
868.051453,1322
868.168823,1345
868.286194,1332
868.403564,1301
868.520935,1350
868.638306,1324
868.755676,1365
868.872986,1341
868.990295,1328
869.107727,1347
869.225037,1309
869.342346,1378
869.459717,1336
869.577026,1392
869.694336,1361
869.811707,1391
869.929016,1348
870.046326,1389
870.163635,1392
870.280945,1351
870.398254,1374
870.515564,1344
870.632812,1380
870.750183,1393
870.867432,1358
870.984741,1366
871.102051,1385
871.219299,1416
871.336609,1370
871.453918,1398
871.571106,1394
871.688416,1386
871.805664,1403
871.922852,1417
872.040222,1364
872.157471,1404
872.274719,1401
872.391968,1417
872.509155,1381
872.626465,1388
872.743652,1412
872.860962,1395
872.978149,1402
873.095337,1409
873.212646,1373
873.329834,1375
873.44696,1373
873.564209,1372
873.681396,1412
873.798645,1392
873.915894,1404
874.03302,1360
874.150208,1403
874.267456,1356
874.384583,1406
874.501831,1395
874.618958,1335
874.736145,1411
874.853333,1435
874.970459,1371
875.087646,1363
875.204834,1392
875.32196,1431
875.439148,1374
875.556274,1397
875.673401,1410
875.790527,1373
875.907715,1368
876.024841,1343
876.141968,1386
876.259094,1372
876.376282,1367
876.493347,1345
876.610474,1356
876.7276,1387
876.844727,1331
876.961853,1369
877.078918,1353
877.195984,1401
877.313171,1344
877.430237,1362
877.547302,1385
877.664368,1344
877.781433,1363
877.898499,1371
878.015625,1368
878.13269,1365
878.249695,1354
878.366821,1333
878.483887,1348
878.600952,1338
878.717957,1337
878.834961,1370
878.952087,1390
879.069092,1352
879.186157,1352
879.303162,1364
879.420227,1345
879.537231,1347
879.654236,1337
879.77124,1343
879.888306,1356
880.005249,1331
880.122314,1361
880.239319,1327
880.356323,1359
880.473328,1341
880.590271,1333
880.707275,1368
880.824341,1357
880.941284,1326
881.058228,1355
881.175232,1338
881.292236,1336
881.40918,1364
881.526123,1343
881.643066,1330
881.760071,1358
881.877014,1333
881.993958,1354
882.11084,1324
882.227783,1328
882.344727,1374
882.46167,1341
882.578613,1370
882.695618,1347
882.812439,1358
882.929382,1311
883.046326,1335
883.163208,1339
883.280151,1328
883.397034,1358
883.513916,1320
883.630798,1344
883.747742,1356
883.864563,1383
883.981506,1310
884.098389,1331
884.21521,1349
884.332153,1364
884.448975,1369
884.565796,1368
884.682678,1390
884.7995,1395
884.916443,1408
885.033264,1419
885.150085,1440
885.266968,1445
885.383789,1445
885.500671,1415
885.617493,1494
885.734314,1458
885.851196,1464
885.967896,1441
886.084717,1483
886.201599,1462
886.318359,1450
886.435181,1449
886.552002,1440
886.668762,1446
886.785645,1443
886.902344,1436
887.019165,1435
887.135925,1428
887.252747,1404
887.369446,1411
887.486267,1437
887.603027,1406
887.719788,1425
887.836548,1380
887.953247,1378
888.070068,1393
888.186829,1365
888.303528,1326
888.420288,1387
888.536987,1361
888.653687,1307
888.770447,1331
888.887146,1388
889.003967,1342
889.120667,1351
889.237305,1298
889.354065,1394
889.470703,1350
889.587463,1326
889.704163,1331
889.820862,1361
889.937561,1321
890.054199,1369
890.170837,1355
890.287598,1329
890.404236,1342
890.520874,1376
890.637634,1341
890.754211,1350
890.87085,1372
890.987549,1366
891.104187,1339
891.220886,1330
891.337463,1328
891.454102,1299
891.57074,1381
891.687378,1337
891.804077,1388
891.920654,1374
892.037231,1372
892.15387,1346
892.270447,1400
892.387085,1318
892.503723,1355
892.6203,1322
892.736877,1342
892.853516,1377
892.970032,1349
893.08667,1345
893.203186,1340
893.319763,1329
893.43634,1332
893.552917,1304
893.669556,1367
893.786011,1364
893.902588,1380
894.019165,1327
894.135681,1380
894.252197,1325
894.368835,1393
894.485291,1369
894.601868,1349
894.718384,1360
894.8349,1383
894.951355,1345
895.067932,1381
895.184448,1332
895.300964,1344
895.417419,1348
895.533936,1320
895.650452,1391
895.766907,1340
895.883423,1369
895.999878,1372
896.116333,1313
896.232849,1387
896.349304,1338
896.465759,1374
896.582214,1327
896.698669,1306
896.815125,1367
896.931641,1338
897.048035,1364
897.164551,1341
897.280884,1358
897.397339,1378
897.513794,1361
897.630249,1366
897.746582,1386
897.863098,1313
897.979431,1357
898.095886,1375
898.212341,1315
898.328674,1334
898.445129,1368
898.561462,1366
898.677795,1366
898.794312,1368
898.910645,1328
899.026978,1399
899.143433,1361
899.259766,1397
899.37616,1350
899.492493,1363
899.608765,1350
899.725159,1340
899.841553,1352
899.957947,1368
900.07428,1368
900.190552,1373
900.306946,1372
900.423157,1360
900.53949,1367
900.655884,1378
900.772156,1371
900.888489,1375
901.004822,1369
901.121033,1362
901.237366,1336
901.353699,1399
901.46991,1395
901.586304,1406
901.702515,1381
901.818787,1379
901.93512,1405
902.051331,1439
902.167603,1395
902.283875,1436
902.400085,1401
902.516418,1420
902.632629,1438
902.74884,1452
902.865112,1485
902.981384,1470
903.097595,1442
903.213867,1406
903.330017,1408
903.446289,1432
903.5625,1425
903.67865,1445
903.794922,1392
903.911072,1413
904.027344,1391
904.143494,1447
904.259705,1374
904.375916,1420
904.492065,1404
904.608215,1389
904.724426,1345
904.840576,1365
904.956726,1386
905.072876,1387
905.189087,1377
905.305176,1425
905.421387,1376
905.537537,1451
905.653687,1404
905.769775,1367
905.885925,1355
906.002014,1369
906.118164,1389
906.234314,1297
906.350403,1367
906.466492,1400
906.582642,1379
906.69873,1379
906.814758,1386
906.930908,1351
907.046936,1418
907.163086,1349
907.279175,1388
907.395264,1385
907.511353,1370
907.62738,1377
907.743408,1345
907.859497,1369
907.975525,1360
908.091553,1371
908.207703,1383
908.32373,1368
908.439758,1362
908.555786,1392
908.671814,1379
908.787842,1372
908.90387,1364
909.019775,1382
909.135864,1411
909.251892,1429
909.367859,1374
909.483826,1380
909.599854,1413
909.715881,1411
909.831848,1384
909.947815,1361
910.063782,1404
910.179749,1374
910.295776,1378
910.411743,1366
910.527649,1388
910.643616,1362
910.759583,1358
910.875488,1370
910.991455,1397
911.107361,1380
911.223267,1354
911.339294,1394
911.4552,1385
911.571106,1396
911.687073,1416
911.802979,1423
911.918823,1375
912.034729,1361
912.150635,1359
912.266602,1394
912.382446,1368
912.498352,1371
912.614197,1370
912.730103,1360
912.846008,1339
792.44574,2334
792.56488,2313
792.68396,2350
792.80304,2254
792.92218,2170
793.041199,2137
793.160339,2101
793.279419,2125
793.398499,2092
793.517578,2109
793.636658,2029
793.755737,2037
793.874817,2055
793.993896,1993
794.112976,2004
794.232056,1959
794.351074,1940
794.470215,1921
794.589233,1855
794.708313,1880
794.827393,1885
794.946411,1897
795.065552,1852
795.18457,1851
795.303589,1896
795.422668,1869
795.541687,1860
795.660767,1850
795.779846,1799
795.898865,1812
796.017883,1773
796.136963,1739
796.255981,1793
796.375061,1804
796.49408,1786
796.613037,1791
796.732117,1789
796.851135,1752
796.970154,1733
797.089233,1746
797.208191,1751
797.327271,1734
797.446228,1740
797.565186,1721
797.684265,1661
797.803223,1703
797.922241,1733
798.04126,1707
798.160278,1676
798.279297,1659
798.398315,1681
798.517273,1650
798.636292,1661
798.75531,1672
798.874268,1698
798.993286,1694
799.112244,1644
799.231323,1694
799.350281,1660
799.469238,1676
799.588257,1681
799.707153,1708
799.826111,1628
799.945129,1681
800.064087,1658
800.183044,1649
800.302063,1659
800.421021,1632
800.539978,1627
800.658936,1667
800.777893,1615
800.896912,1661
801.015747,1678
801.134705,1647
801.253723,1629
801.37262,1642
801.491638,1629
801.610535,1628
801.729492,1593
801.84845,1602
801.967407,1607
802.086243,1552
802.205261,1609
802.324158,1632
802.443115,1603
802.562073,1613
802.680969,1599
802.799927,1577
802.918762,1621
803.037659,1571
803.156677,1642
803.275574,1612
803.39447,1549
803.513428,1579
803.632263,1603
803.751221,1593
803.870117,1545
803.989014,1583
804.107971,1594
804.226746,1569
804.345642,1601
804.4646,1592
804.583496,1603
804.702393,1631
804.821228,1569
804.940125,1589
805.059021,1573
805.177917,1579
805.296814,1614
805.415649,1582
805.534546,1575
805.653442,1589
805.772278,1595
805.891113,1578
806.01001,1636
806.128906,1603
806.247742,1602
806.366577,1535
806.485413,1585
806.604309,1556
806.723145,1531
806.84198,1574
806.960876,1532
807.079712,1568
807.198486,1557
807.317383,1597
807.436218,1545
807.554993,1548
807.673889,1587
807.792725,1550
807.91156,1591
808.030396,1538
808.14917,1550
808.268005,1496
808.386841,1581
808.505676,1585
808.624451,1577
808.743286,1541
808.862122,1554
808.980896,1539
809.099731,1533
809.218506,1514
809.337341,1499
809.456116,1534
809.57489,1571
809.693726,1534
809.8125,1557
809.931274,1545
810.050049,1545
810.168884,1550
810.287659,1545
810.406372,1547
810.525269,1554
810.643982,1531
810.762756,1511
810.881531,1539
811.000305,1566
811.11908,1488
811.237854,1500
811.356567,1600
811.475403,1538
811.594116,1558
811.71283,1553
811.831604,1513
811.950378,1530
812.069153,1569
812.187927,1557
812.30658,1552
812.425415,1535
812.544128,1558
812.662781,1537
812.781616,1541
812.900269,1556
813.019043,1525
813.137756,1522
813.256531,1530
813.375244,1547
813.493896,1520
813.612671,1520
813.731384,1533
813.850037,1523
813.96875,1511
814.087524,1541
814.206238,1536
814.324951,1532
814.443604,1534
814.562256,1497
814.68103,1502
814.799683,1526
814.918335,1504
815.037109,1513
815.155762,1505
815.274475,1515
815.393188,1519
815.511841,1525
815.630554,1522
815.749146,1500
815.867859,1494
815.986572,1532
816.105164,1499
816.223877,1506
816.342529,1473
816.461182,1551
816.579895,1444
816.698486,1525
816.817139,1521
816.935791,1501
817.054504,1528
817.173096,1520
817.291748,1493
817.4104,1495
817.529053,1512
817.647644,1491
817.766235,1483
817.884949,1493
818.00354,1473
818.122192,1497
818.240845,1479
818.359436,1494
818.478088,1450
818.59668,1470
818.715271,1474
818.833923,1470
818.952515,1448
819.071106,1476
819.189758,1487
819.30835,1495
819.426941,1470
819.545532,1396
819.664124,1437
819.782715,1451
819.901306,1408
820.019897,1463
820.138489,1464
820.25708,1487
820.375671,1428
820.494202,1460
820.612732,1423
820.731384,1407
820.849915,1397
820.968506,1427
821.087097,1418
821.205627,1413
821.324158,1430
821.442749,1432
821.561279,1401
821.679871,1387
821.798401,1390
821.916931,2153
822.035461,1391
822.154053,1450
822.272583,1434
822.391174,1427
822.509583,1426
822.628174,1417
822.746704,1355
822.865234,1387
822.983765,1388
823.102295,1402
823.220825,1376
823.339294,1425
823.457825,1386
823.576355,1384
823.694824,1440
823.813354,1438
823.931885,1428
824.050354,1428
824.168884,1450
824.287354,1384
824.405823,1386
824.524353,1413
824.642822,1458
824.761353,1367
824.879822,1431
824.998291,1398
825.116699,1396
825.235291,1388
825.353699,1365
825.472168,1393
825.590637,1443
825.709106,1395
825.827576,1402
825.946045,1395
826.064453,1357
826.182983,1423
826.301392,1404
826.4198,1356
826.53833,1361
826.656738,1382
826.775208,1420
826.893677,1394
827.012024,1367
827.130493,1369
827.248962,1398
827.36731,1376
827.485779,1428
827.604248,1378
827.722595,1383
827.841064,1380
827.959412,1431
828.077942,1369
828.196289,1405
828.314636,1377
828.433105,1372
828.551514,1405
828.669861,1350
828.78833,1404
828.906677,1398
829.025085,1373
829.143433,1358
829.261841,1325
829.38031,1361
829.498657,1415
829.617004,1355
829.735413,1363
829.85376,1375
829.972107,1367
830.090515,1394
830.208862,1373
830.327209,1371
830.445557,1341
830.563904,1355
830.682312,1397
830.800659,1375
830.919006,1380
831.037354,1397
831.155701,1356
831.274048,1390
831.392395,1396
831.51062,1375
831.629028,1373
831.747314,1400
831.865662,1348
831.984009,1382
832.102356,1368
832.220642,1357
832.338928,1391
832.457275,1361
832.575623,1403
832.693909,1348
832.812134,1357
832.930481,1394
833.048828,1393
833.167114,1370
833.2854,1375
833.403687,1390
833.521973,1406
833.640259,1360
833.758545,1335
833.876831,1377
833.995056,1376
834.113281,1394
834.231628,1390
834.349915,1377
834.468201,1377
834.586426,1386
834.704651,1394
834.822998,1344
834.941162,1366
835.059448,1361
835.177673,1378
835.295959,1378
835.414246,1371
835.53241,1357
835.650635,1354
835.768921,1336
835.887146,1382
836.005371,1377
836.123596,1380
836.241821,1356
836.360046,1373
836.478271,1370
836.596497,1375
836.714722,1365
836.832886,1355
836.95105,1381
837.069336,1381
837.1875,1362
837.305725,1380
837.423889,1325
837.542053,1378
837.660339,1333
837.778503,1360
837.896667,1354
838.014832,1381
838.132996,1372
838.25116,1365
838.369385,1348
838.487488,1361
838.605713,1357
838.723877,1340
838.84198,1358
838.960205,1395
839.078308,1378
839.196472,1361
839.314636,1355
839.4328,1377
839.550964,1393
839.669067,1406
839.787231,1357
839.905396,1404
840.023499,1366
840.141602,1442
840.259766,1374
840.377869,1415
840.495972,1432
840.614136,1382
840.732239,1393
840.850342,1371
840.968445,1397
841.086548,1395
841.204651,1415
841.322754,1372
841.440918,1410
841.55896,1398
841.677002,1408
841.795166,1397
841.913208,1433
842.031311,1399
842.149353,1439
842.267456,1416
842.385498,1383
842.503601,1441
842.621643,1384
842.739746,1369
842.857788,1355
842.97583,1389
843.093933,1382
843.211975,1416
843.330017,1372
843.44812,1399
843.566101,1380
843.684204,1376
843.802246,1368
843.920227,1401
844.038269,1402
844.156311,1362
844.274292,1369
844.392395,1407
844.510376,1403
844.628357,1374
844.74646,1396
844.864441,1316
844.982422,1393
845.100403,1363
845.218384,1362
845.336426,1343
845.454468,1400
845.572449,1377
845.69043,1353
845.808411,1376
845.926453,1362
846.044373,1395
846.162354,1394
846.280396,1389
846.398315,1303
846.516296,1399
846.634216,1390
846.752197,1369
846.870178,1400
846.988098,1376
847.106079,1375
847.22406,1414
847.34198,1386
847.4599,1355
847.577881,1368
847.695801,1367
847.813782,1387
847.931641,1369
848.049561,1405
848.167603,1358
848.285461,1396
848.403381,1381
848.521362,1339
848.639221,1362
848.75708,1337
848.875,1352
848.99292,1359
849.110901,1437
849.22876,1359
849.34668,1470
849.464539,1371
849.582458,1386
849.700317,1382
849.818176,1354
849.936096,1414
850.053955,1341
850.171875,1384
850.289673,1394
850.407593,1384
850.525452,1415
850.643311,1404
850.761169,1331
850.878967,1400
850.996887,1387
851.114746,1390
851.232544,1385
851.350403,1380
851.468262,1342
851.58606,1445
851.703979,1345
851.821777,1401
851.939636,1374
852.057434,1358
852.175232,1377
852.293091,1374
852.410889,1376
852.528687,1426
852.646545,1410
852.764343,1412
852.88208,1404
852.999939,1389
853.117676,1398
853.235535,1359
853.353271,1380
853.471069,1335
853.588928,1393
853.706604,1324
853.824402,1449
853.9422,1401
854.059998,1378
854.177734,1328
854.295532,1426
854.413269,1385
854.531006,1389
854.648804,1389
854.766541,1359
854.884277,1375
855.002014,1359
855.119751,1401
855.237549,1372
855.355225,1360
855.473022,1422
855.590698,1425
855.708435,1409
855.826172,1376
855.943848,1380
856.061646,1416
856.179321,1409
856.296997,1391
856.414795,1417
856.53241,1406
856.650085,1358
856.767822,1416
856.885559,1370
857.003174,1440
857.120911,1377
857.238586,1389
857.356201,1439
857.473938,1395
857.591614,1401
857.709351,1371
857.826965,1373
857.944641,1393
858.062317,1434
858.179993,1433
858.297668,1426
858.415283,1354
858.532959,1430
858.650574,1376
858.768188,1380
858.885803,1405
859.003479,1386
859.121094,1355
859.23877,1414
859.356384,1317
859.473999,1411
859.591675,1392
859.709229,1447
859.826843,1394
859.944458,1392
860.062012,1352
860.179626,1390
860.297302,1369
860.414856,1399
860.532471,1388
860.650024,1375
860.767639,1376
860.885193,1351
861.002808,1384
861.120361,1377
861.237976,1386
861.35553,1389
861.473022,1372
861.590698,1375
861.708191,1373
861.825745,1380
861.943298,1363
862.060852,1355
862.178406,1309
862.295959,1388
862.413513,1328
862.531006,1337
862.64856,1352
862.766113,1339
862.883667,1414
863.00116,1391
863.118713,1363
863.236206,1363
863.353699,1368
863.471252,1334
863.588745,1341
863.706177,1343
863.82373,1362
863.941162,1371
864.058716,1325
864.176208,1349
864.29364,1349
864.411194,1378
864.528687,1362
864.646118,1374
864.763611,1356
864.881042,1337
864.998535,1373
865.116028,1331
865.233459,1344
865.350891,1330
865.468384,1365
865.585754,1392
865.703308,1345
865.820679,1361
865.938171,1390
866.055542,1325
866.173035,1374
866.290466,1361
866.407837,1364
866.52533,1365
866.6427,1357
866.760071,1392
866.877563,1334
866.994934,1403
867.112305,1356
867.229736,1346
867.347107,1362
867.464539,1343
867.58197,1384
867.699341,1375
867.81665,1380
867.934082,1368
868.051453,1344
868.168823,1383
868.286194,1369
868.403564,1344
868.520935,1327
868.638306,1378
868.755676,1412
868.872986,1365
868.990295,1400
869.107727,1353
869.225037,1420
869.342346,1360
869.459717,1370
869.577026,1358
869.694336,1378
869.811707,1423
869.929016,1373
870.046326,1388
870.163635,1416
870.280945,1393
870.398254,1414
870.515564,1388
870.632812,1381
870.750183,1419
870.867432,1378
870.984741,1391
871.102051,1391
871.219299,1438
871.336609,1397
871.453918,1398
871.571106,1410
871.688416,1433
871.805664,1391
871.922852,1450
872.040222,1434
872.157471,1388
872.274719,1382
872.391968,1409
872.509155,1390
872.626465,1418
872.743652,1425
872.860962,1428
872.978149,1414
873.095337,1390
873.212646,1420
873.329834,1399
873.44696,1452
873.564209,1438
873.681396,1398
873.798645,1419
873.915894,1451
874.03302,1375
874.150208,1433
874.267456,1410
874.384583,1382
874.501831,1415
874.618958,1432
874.736145,1407
874.853333,1402
874.970459,1415
875.087646,1445
875.204834,1354
875.32196,1409
875.439148,1393
875.556274,1444
875.673401,1410
875.790527,1406
875.907715,1383
876.024841,1421
876.141968,1462
876.259094,1407
876.376282,1417
876.493347,1410
876.610474,1408
876.7276,1407
876.844727,1400
876.961853,1372
877.078918,1389
877.195984,1361
877.313171,1360
877.430237,1398
877.547302,1407
877.664368,1383
877.781433,1417
877.898499,1400
878.015625,1402
878.13269,1405
878.249695,1352
878.366821,1360
878.483887,1433
878.600952,1367
878.717957,1391
878.834961,1413
878.952087,1343
879.069092,1335
879.186157,1396
879.303162,1350
879.420227,1394
879.537231,1365
879.654236,1404
879.77124,1335
879.888306,1375
880.005249,1395
880.122314,1375
880.239319,1379
880.356323,1380
880.473328,1367
880.590271,1355
880.707275,1365
880.824341,1379
880.941284,1374
881.058228,1390
881.175232,1371
881.292236,1344
881.40918,1361
881.526123,1398
881.643066,1334
881.760071,1359
881.877014,1369
881.993958,1411
882.11084,1347
882.227783,1363
882.344727,1343
882.46167,1402
882.578613,1394
882.695618,1367
882.812439,1367
882.929382,1380
883.046326,1387
883.163208,1402
883.280151,1398
883.397034,1345
883.513916,1397
883.630798,1408
883.747742,1391
883.864563,1376
883.981506,1354
884.098389,1397
884.21521,1396
884.332153,1407
884.448975,1322
884.565796,1449
884.682678,1372
884.7995,1458
884.916443,1429
885.033264,1484
885.150085,1445
885.266968,1448
885.383789,1468
885.500671,1491
885.617493,1498
885.734314,1495
885.851196,1453
885.967896,1522
886.084717,1484
886.201599,1496
886.318359,1449
886.435181,1502
886.552002,1470
886.668762,1459
886.785645,1463
886.902344,1437
887.019165,1473
887.135925,1480
887.252747,1482
887.369446,1457
887.486267,1416
887.603027,1453
887.719788,1430
887.836548,1463
887.953247,1445
888.070068,1448
888.186829,1425
888.303528,1419
888.420288,1397
888.536987,1418
888.653687,1413
888.770447,1429
888.887146,1358
889.003967,1350
889.120667,1369
889.237305,1355
889.354065,1401
889.470703,1342
889.587463,1381
889.704163,1349
889.820862,1354
889.937561,1344
890.054199,1371
890.170837,1345
890.287598,1332
890.404236,1355
890.520874,1370
890.637634,1331
890.754211,1375
890.87085,1353
890.987549,1346
891.104187,1376
891.220886,1378
891.337463,1353
891.454102,1375
891.57074,1365
891.687378,1378
891.804077,1356
891.920654,1400
892.037231,1318
892.15387,1392
892.270447,1344
892.387085,1338
892.503723,1446
892.6203,1390
892.736877,1370
892.853516,1428
892.970032,1393
893.08667,1348
893.203186,1372
893.319763,1355
893.43634,1331
893.552917,1389
893.669556,1375
893.786011,1415
893.902588,1339
894.019165,1361
894.135681,1375
894.252197,1373
894.368835,1393
894.485291,1375
894.601868,1399
894.718384,1398
894.8349,1386
894.951355,1385
895.067932,1374
895.184448,1383
895.300964,1354
895.417419,1397
895.533936,1317
895.650452,1416
895.766907,1348
895.883423,1372
895.999878,1367
896.116333,1370
896.232849,1378
896.349304,1387
896.465759,1368
896.582214,1371
896.698669,1345
896.815125,1388
896.931641,1362
897.048035,1380
897.164551,1377
897.280884,1337
897.397339,1359
897.513794,1412
897.630249,1362
897.746582,1418
897.863098,1372
897.979431,1417
898.095886,1452
898.212341,1404
898.328674,1409
898.445129,1385
898.561462,1356
898.677795,1411
898.794312,1365
898.910645,1393
899.026978,1409
899.143433,1369
899.259766,1384
899.37616,1376
899.492493,1355
899.608765,1412
899.725159,1392
899.841553,1423
899.957947,1411
900.07428,1400
900.190552,1380
900.306946,1440
900.423157,1387
900.53949,1411
900.655884,1437
900.772156,1389
900.888489,1449
901.004822,1410
901.121033,1435
901.237366,1392
901.353699,1411
901.46991,1408
901.586304,1424
901.702515,1385
901.818787,1375
901.93512,1386
902.051331,1403
902.167603,1423
902.283875,1468
902.400085,1420
902.516418,1452
902.632629,1496
902.74884,1473
902.865112,1484
902.981384,1488
903.097595,1475
903.213867,1496
903.330017,1480
903.446289,1460
903.5625,1441
903.67865,1476
903.794922,1447
903.911072,1406
904.027344,1480
904.143494,1408
904.259705,1415
904.375916,1397
904.492065,1466
904.608215,1432
904.724426,1417
904.840576,1450
904.956726,1391
905.072876,1460
905.189087,1426
905.305176,1410
905.421387,1385
905.537537,1442
905.653687,1394
905.769775,1427
905.885925,1431
906.002014,1394
906.118164,1425
906.234314,1402
906.350403,1415
906.466492,1438
906.582642,1426
906.69873,1372
906.814758,1384
906.930908,1390
907.046936,1460
907.163086,1377
907.279175,1345
907.395264,1410
907.511353,1449
907.62738,1428
907.743408,1412
907.859497,1378
907.975525,1404
908.091553,1447
908.207703,1392
908.32373,1427
908.439758,1386
908.555786,1428
908.671814,1375
908.787842,1411
908.90387,1378
909.019775,1434
909.135864,1403
909.251892,1414
909.367859,1402
909.483826,1395
909.599854,1433
909.715881,1398
909.831848,1428
909.947815,1418
910.063782,1412
910.179749,1405
910.295776,1413
910.411743,1391
910.527649,1395
910.643616,1403
910.759583,1423
910.875488,1408
910.991455,1416
911.107361,1412
911.223267,1421
911.339294,1425
911.4552,1404
911.571106,1401
911.687073,1427
911.802979,1375
911.918823,1417
912.034729,1409
912.150635,1402
912.266602,1428
912.382446,1387
912.498352,1402
912.614197,1412
912.730103,1383
912.846008,1373
792.44574,2345
792.56488,2307
792.68396,2273
792.80304,2284
792.92218,2177
793.041199,2150
793.160339,2124
793.279419,2146
793.398499,2068
793.517578,2061
793.636658,2068
793.755737,2074
793.874817,2048
793.993896,2043
794.112976,1996
794.232056,1977
794.351074,2005
794.470215,1929
794.589233,1856
794.708313,1844
794.827393,1895
794.946411,1874
795.065552,1909
795.18457,1862
795.303589,1852
795.422668,1916
795.541687,1843
795.660767,1875
795.779846,1771
795.898865,1840
796.017883,1816
796.136963,1804
796.255981,1791
796.375061,1769
796.49408,1786
796.613037,1783
796.732117,1641
796.851135,1765
796.970154,1737
797.089233,1758
797.208191,1777
797.327271,1739
797.446228,1751
797.565186,1738
797.684265,1711
797.803223,1704
797.922241,1702
798.04126,1694
798.160278,1674
798.279297,1710
798.398315,1719
798.517273,1748
798.636292,1702
798.75531,1723
798.874268,1669
798.993286,1686
799.112244,1625
799.231323,1668
799.350281,1662
799.469238,1711
799.588257,1676
799.707153,1679
799.826111,1665
799.945129,1648
800.064087,1648
800.183044,1634
800.302063,1667
800.421021,1626
800.539978,1649
800.658936,1647
800.777893,1655
800.896912,1575
801.015747,1632
801.134705,1666
801.253723,1648
801.37262,1667
801.491638,1675
801.610535,1652
801.729492,1619
801.84845,1647
801.967407,1603
802.086243,1621
802.205261,1616
802.324158,1591
802.443115,1654
802.562073,1651
802.680969,1665
802.799927,1608
802.918762,1630
803.037659,1620
803.156677,1587
803.275574,1646
803.39447,1602
803.513428,1616
803.632263,1618
803.751221,1569
803.870117,1606
803.989014,1613
804.107971,1542
804.226746,1604
804.345642,1556
804.4646,1579
804.583496,1582
804.702393,1597
804.821228,1576
804.940125,1570
805.059021,1569
805.177917,1601
805.296814,1549
805.415649,1561
805.534546,1548
805.653442,1564
805.772278,1584
805.891113,1614
806.01001,1518
806.128906,1593
806.247742,1555
806.366577,1601
806.485413,1569
806.604309,1579
806.723145,1595
806.84198,1592
806.960876,1571
807.079712,1582
807.198486,1591
807.317383,1571
807.436218,1535
807.554993,1519
807.673889,1578
807.792725,1531
807.91156,1552
808.030396,1564
808.14917,1582
808.268005,1524
808.386841,1551
808.505676,1601
808.624451,1572
808.743286,1546
808.862122,1586
808.980896,1544
809.099731,1583
809.218506,1579
809.337341,1529
809.456116,1543
809.57489,1564
809.693726,1534
809.8125,1539
809.931274,1519
810.050049,1560
810.168884,1557
810.287659,1576
810.406372,1586
810.525269,1539
810.643982,1545
810.762756,1561
810.881531,1540
811.000305,1537
811.11908,1534
811.237854,1528
811.356567,1557
811.475403,1575
811.594116,1521
811.71283,1563
811.831604,1550
811.950378,1542
812.069153,1556
812.187927,1545
812.30658,1590
812.425415,1549
812.544128,1544
812.662781,1523
812.781616,1585
812.900269,1549
813.019043,1562
813.137756,1546
813.256531,1555
813.375244,1547
813.493896,1523
813.612671,1567
813.731384,1507
813.850037,1537
813.96875,1511
814.087524,1538
814.206238,1555
814.324951,1530
814.443604,1526
814.562256,1505
814.68103,1535
814.799683,1546
814.918335,1531
815.037109,1550
815.155762,1495
815.274475,1525
815.393188,1520
815.511841,1522
815.630554,1537
815.749146,1565
815.867859,1520
815.986572,1488
816.105164,1509
816.223877,1462
816.342529,1546
816.461182,1502
816.579895,1484
816.698486,1542
816.817139,1532
816.935791,1509
817.054504,1516
817.173096,1529
817.291748,1512
817.4104,1497
817.529053,1504
817.647644,1501
817.766235,1486
817.884949,1503
818.00354,1479
818.122192,1462
818.240845,1481
818.359436,1488
818.478088,1491
818.59668,1484
818.715271,1463
818.833923,1496
818.952515,1463
819.071106,1472
819.189758,1446
819.30835,1445
819.426941,1430
819.545532,1450
819.664124,1449
819.782715,1476
819.901306,1481
820.019897,1462
820.138489,1459
820.25708,1468
820.375671,1461
820.494202,1435
820.612732,1410
820.731384,1432
820.849915,1467
820.968506,1418
821.087097,1445
821.205627,1479
821.324158,1409
821.442749,1405
821.561279,1406
821.679871,1366
821.798401,1380
821.916931,1449
822.035461,1458
822.154053,1407
822.272583,1454
822.391174,1428
822.509583,1435
822.628174,1449
822.746704,1403
822.865234,1411
822.983765,1440
823.102295,1447
823.220825,1426
823.339294,1397
823.457825,1438
823.576355,1409
823.694824,1393
823.813354,1432
823.931885,1402
824.050354,1389
824.168884,1409
824.287354,1417
824.405823,1382
824.524353,1431
824.642822,1415
824.761353,1360
824.879822,1406
824.998291,1403
825.116699,1387
825.235291,1430
825.353699,1408
825.472168,1373
825.590637,1380
825.709106,1419
825.827576,1362
825.946045,1400
826.064453,1401
826.182983,1391
826.301392,1402
826.4198,1392
826.53833,1429
826.656738,1394
826.775208,1380
826.893677,1361
827.012024,1392
827.130493,1386
827.248962,1347
827.36731,1416
827.485779,1417
827.604248,1377
827.722595,1387
827.841064,1454
827.959412,1407
828.077942,1353
828.196289,1370
828.314636,1383
828.433105,1380
828.551514,1350
828.669861,1396
828.78833,1422
828.906677,1340
829.025085,1380
829.143433,1391
829.261841,1382
829.38031,1360
829.498657,1354
829.617004,1346
829.735413,1387
829.85376,1387
829.972107,1380
830.090515,1357
830.208862,1376
830.327209,1401
830.445557,1356
830.563904,1399
830.682312,1390
830.800659,1397
830.919006,1372
831.037354,1382
831.155701,1408
831.274048,1396
831.392395,1401
831.51062,1371
831.629028,1366
831.747314,1331
831.865662,1381
831.984009,1336
832.102356,1377
832.220642,1366
832.338928,1371
832.457275,1402
832.575623,1399
832.693909,1363
832.812134,1363
832.930481,1372
833.048828,1347
833.167114,1373
833.2854,1372
833.403687,1379
833.521973,1339
833.640259,1406
833.758545,1343
833.876831,1408
833.995056,1342
834.113281,1390
834.231628,1353
834.349915,1352
834.468201,1365
834.586426,1326
834.704651,1398
834.822998,1336
834.941162,1367
835.059448,1363
835.177673,1376
835.295959,1342
835.414246,1372
835.53241,1332
835.650635,1379
835.768921,1368
835.887146,1422
836.005371,1362
836.123596,1322
836.241821,1370
836.360046,1332
836.478271,1372
836.596497,1348
836.714722,1365
836.832886,1358
836.95105,1372
837.069336,1361
837.1875,1380
837.305725,1404
837.423889,1377
837.542053,1394
837.660339,1321
837.778503,1390
837.896667,1354
838.014832,1364
838.132996,1310
838.25116,1375
838.369385,1315
838.487488,1381
838.605713,1394
838.723877,1338
838.84198,1348
838.960205,1373
839.078308,1383
839.196472,1359
839.314636,1383
839.4328,1407
839.550964,1400
839.669067,1346
839.787231,1398
839.905396,1394
840.023499,1390
840.141602,1365
840.259766,1402
840.377869,1385
840.495972,1371
840.614136,1397
840.732239,1396
840.850342,1422
840.968445,1415
841.086548,1401
841.204651,1430
841.322754,1401
841.440918,1413
841.55896,1436
841.677002,1409
841.795166,1436
841.913208,1347
842.031311,1417
842.149353,1421
842.267456,1436
842.385498,1427
842.503601,1397
842.621643,1398
842.739746,1416
842.857788,1422
842.97583,1393
843.093933,1373
843.211975,1413
843.330017,1413
843.44812,1397
843.566101,1371
843.684204,1357
843.802246,1378
843.920227,1347
844.038269,1418
844.156311,1408
844.274292,1386
844.392395,1405
844.510376,1397
844.628357,1402
844.74646,1395
844.864441,1368
844.982422,1399
845.100403,1406
845.218384,1377
845.336426,1360
845.454468,1370
845.572449,1351
845.69043,1423
845.808411,1377
845.926453,1363
846.044373,1382
846.162354,1380
846.280396,1363
846.398315,1373
846.516296,1360
846.634216,1381
846.752197,1404
846.870178,1383
846.988098,1387
847.106079,1369
847.22406,1404
847.34198,1403
847.4599,1414
847.577881,1378
847.695801,1383
847.813782,1350
847.931641,1394
848.049561,1406
848.167603,1359
848.285461,1389
848.403381,1357
848.521362,1397
848.639221,1377
848.75708,1404
848.875,1367
848.99292,1399
849.110901,1367
849.22876,1384
849.34668,1388
849.464539,1385
849.582458,1367
849.700317,1429
849.818176,1360
849.936096,1383
850.053955,1366
850.171875,1394
850.289673,1400
850.407593,1370
850.525452,1383
850.643311,1388
850.761169,1363
850.878967,1365
850.996887,1375
851.114746,1384
851.232544,1375
851.350403,1355
851.468262,1382
851.58606,1387
851.703979,1399
851.821777,1362
851.939636,1376
852.057434,1378
852.175232,1374
852.293091,1388
852.410889,1376
852.528687,1404
852.646545,1404
852.764343,1376
852.88208,1407
852.999939,1390
853.117676,1428
853.235535,1424
853.353271,1375
853.471069,1395
853.588928,1352
853.706604,1418
853.824402,1403
853.9422,1404
854.059998,1394
854.177734,1399
854.295532,1375
854.413269,1386
854.531006,1377
854.648804,1353
854.766541,1387
854.884277,1380
855.002014,1397
855.119751,1344
855.237549,1393
855.355225,1354
855.473022,1423
855.590698,1377
855.708435,1399
855.826172,1349
855.943848,1388
856.061646,1382
856.179321,1437
856.296997,1365
856.414795,1475
856.53241,1359
856.650085,1419
856.767822,1375
856.885559,1434
857.003174,1393
857.120911,1426
857.238586,1430
857.356201,1398
857.473938,1421
857.591614,1415
857.709351,1405
857.826965,1400
857.944641,1368
858.062317,1387
858.179993,1404
858.297668,1451
858.415283,1414
858.532959,1415
858.650574,1415
858.768188,1395
858.885803,1378
859.003479,1383
859.121094,1386
859.23877,1402
859.356384,1439
859.473999,1427
859.591675,1355
859.709229,1384
859.826843,1365
859.944458,1383
860.062012,1371
860.179626,1377
860.297302,1365
860.414856,1369
860.532471,1337
860.650024,1421
860.767639,1411
860.885193,1365
861.002808,1396
861.120361,1390
861.237976,1339
861.35553,1418
861.473022,1385
861.590698,1411
861.708191,1373
861.825745,1409
861.943298,1405
862.060852,1350
862.178406,1353
862.295959,1372
862.413513,1360
862.531006,1369
862.64856,1363
862.766113,1342
862.883667,1338
863.00116,1356
863.118713,1334
863.236206,1404
863.353699,1352
863.471252,1379
863.588745,1345
863.706177,1394
863.82373,1392
863.941162,1394
864.058716,1369
864.176208,1370
864.29364,1373
864.411194,1393
864.528687,1371
864.646118,1350
864.763611,1398
864.881042,1323
864.998535,1368
865.116028,1362
865.233459,1381
865.350891,1352
865.468384,1324
865.585754,1381
865.703308,1385
865.820679,1388
865.938171,1359
866.055542,1358
866.173035,1353
866.290466,1324
866.407837,1324
866.52533,1349
866.6427,1348
866.760071,1344
866.877563,1357
866.994934,1389
867.112305,1361
867.229736,1339
867.347107,1322
867.464539,1370
867.58197,1363
867.699341,1401
867.81665,1376
867.934082,1349
868.051453,1398
868.168823,1357
868.286194,1394
868.403564,1370
868.520935,1364
868.638306,1358
868.755676,1357
868.872986,1377
868.990295,1367
869.107727,1415
869.225037,1414
869.342346,1371
869.459717,1394
869.577026,1392
869.694336,1378
869.811707,1375
869.929016,1391
870.046326,1384
870.163635,1373
870.280945,1420
870.398254,1378
870.515564,1388
870.632812,1385
870.750183,1429
870.867432,1421
870.984741,1418
871.102051,1400
871.219299,1399
871.336609,1436
871.453918,1420
871.571106,1466
871.688416,1432
871.805664,1476
871.922852,1433
872.040222,1428
872.157471,1427
872.274719,1434
872.391968,1438
872.509155,1380
872.626465,1421
872.743652,1358
872.860962,1458
872.978149,1377
873.095337,1423
873.212646,1376
873.329834,1431
873.44696,1389
873.564209,1394
873.681396,1366
873.798645,1405
873.915894,1398
874.03302,1428
874.150208,1421
874.267456,1427
874.384583,1409
874.501831,1418
874.618958,1418
874.736145,1443
874.853333,1391
874.970459,1454
875.087646,1411
875.204834,1427
875.32196,1431
875.439148,1429
875.556274,1456
875.673401,1423
875.790527,1423
875.907715,1370
876.024841,1425
876.141968,1388
876.259094,1401
876.376282,1418
876.493347,1382
876.610474,1398
876.7276,1409
876.844727,1402
876.961853,1407
877.078918,1388
877.195984,1406
877.313171,1398
877.430237,1400
877.547302,1459
877.664368,1412
877.781433,1410
877.898499,1397
878.015625,1401
878.13269,1389
878.249695,1398
878.366821,1381
878.483887,1389
878.600952,1399
878.717957,1384
878.834961,1394
878.952087,1376
879.069092,1382
879.186157,1357
879.303162,1389
879.420227,1404
879.537231,1347
879.654236,1382
879.77124,1332
879.888306,1384
880.005249,1360
880.122314,1358
880.239319,1386
880.356323,1371
880.473328,1358
880.590271,1390
880.707275,1368
880.824341,1354
880.941284,1357
881.058228,1358
881.175232,1379
881.292236,1377
881.40918,1397
881.526123,1356
881.643066,1361
881.760071,1398
881.877014,1344
881.993958,1377
882.11084,1394
882.227783,1366
882.344727,1367
882.46167,1415
882.578613,1346
882.695618,1385
882.812439,1375
882.929382,1365
883.046326,1375
883.163208,1404
883.280151,1405
883.397034,1313
883.513916,1414
883.630798,1396
883.747742,1389
883.864563,1407
883.981506,1384
884.098389,1402
884.21521,1388
884.332153,1372
884.448975,1371
884.565796,1412
884.682678,1409
884.7995,1406
884.916443,1437
885.033264,1423
885.150085,1465
885.266968,1455
885.383789,1507
885.500671,1487
885.617493,1492
885.734314,1476
885.851196,1485
885.967896,1485
886.084717,1487
886.201599,1505
886.318359,1491
886.435181,1519
886.552002,1482
886.668762,1501
886.785645,1472
886.902344,1471
887.019165,1498
887.135925,1487
887.252747,1470
887.369446,1441
887.486267,1433
887.603027,1484
887.719788,1437
887.836548,1444
887.953247,1429
888.070068,1418
888.186829,1437
888.303528,1392
888.420288,1367
888.536987,1351
888.653687,1442
888.770447,1415
888.887146,1388
889.003967,1352
889.120667,1413
889.237305,1389
889.354065,1384
889.470703,1359
889.587463,1359
889.704163,1396
889.820862,1408
889.937561,1354
890.054199,1359
890.170837,1341
890.287598,1386
890.404236,1355
890.520874,1385
890.637634,1351
890.754211,1400
890.87085,1380
890.987549,1391
891.104187,1394
891.220886,1410
891.337463,1417
891.454102,1395
891.57074,1379
891.687378,1400
891.804077,1399
891.920654,1383
892.037231,1389
892.15387,1371
892.270447,1371
892.387085,1409
892.503723,1409
892.6203,1346
892.736877,1395
892.853516,1379
892.970032,1399
893.08667,1371
893.203186,1361
893.319763,1374
893.43634,1380
893.552917,1385
893.669556,1420
893.786011,1361
893.902588,1412
894.019165,1401
894.135681,1420
894.252197,1381
894.368835,1437
894.485291,1391
894.601868,1368
894.718384,1412
894.8349,1389
894.951355,1388
895.067932,1404
895.184448,1444
895.300964,1405
895.417419,1396
895.533936,1391
895.650452,1400
895.766907,1390
895.883423,1358
895.999878,1403
896.116333,1420
896.232849,1408
896.349304,1357
896.465759,1386
896.582214,1377
896.698669,1417
896.815125,1413
896.931641,1416
897.048035,1391
897.164551,1404
897.280884,1435
897.397339,1383
897.513794,1384
897.630249,1385
897.746582,1369
897.863098,1411
897.979431,1394
898.095886,1419
898.212341,1394
898.328674,1422
898.445129,1379
898.561462,1398
898.677795,1431
898.794312,1402
898.910645,1405
899.026978,1398
899.143433,1385
899.259766,1382
899.37616,1423
899.492493,1377
899.608765,1396
899.725159,1391
899.841553,1438
899.957947,1380
900.07428,1428
900.190552,1440
900.306946,1418
900.423157,1406
900.53949,1402
900.655884,1397
900.772156,1424
900.888489,1420
901.004822,1458
901.121033,1438
901.237366,1437
901.353699,1454
901.46991,1390
901.586304,1436
901.702515,1383
901.818787,1425
901.93512,1436
902.051331,1422
902.167603,1421
902.283875,1480
902.400085,1442
902.516418,1429
902.632629,1465
902.74884,1446
902.865112,1497
902.981384,1499
903.097595,1446
903.213867,1467
903.330017,1467
903.446289,1487
903.5625,1523
903.67865,1474
903.794922,1475
903.911072,1470
904.027344,1473
904.143494,1438
904.259705,1477
904.375916,1443
904.492065,1421
904.608215,1439
904.724426,1427
904.840576,1400
904.956726,1418
905.072876,1431
905.189087,1404
905.305176,1452
905.421387,1410
905.537537,1394
905.653687,1402
905.769775,1427
905.885925,1424
906.002014,1423
906.118164,1428
906.234314,1427
906.350403,1385
906.466492,1442
906.582642,1403
906.69873,1433
906.814758,1411
906.930908,1403
907.046936,1412
907.163086,1410
907.279175,1445
907.395264,1446
907.511353,1439
907.62738,1387
907.743408,1468
907.859497,1395
907.975525,1438
908.091553,1416
908.207703,1416
908.32373,1406
908.439758,1411
908.555786,1431
908.671814,1407
908.787842,1431
908.90387,1452
909.019775,1413
909.135864,1362
909.251892,1422
909.367859,1400
909.483826,1450
909.599854,1414
909.715881,1409
909.831848,1476
909.947815,1458
910.063782,1414
910.179749,1443
910.295776,1411
910.411743,1452
910.527649,1420
910.643616,1452
910.759583,1437
910.875488,1409
910.991455,1427
911.107361,1415
911.223267,1451
911.339294,1443
911.4552,1423
911.571106,1403
911.687073,1482
911.802979,1389
911.918823,1400
912.034729,1416
912.150635,1443
912.266602,1413
912.382446,1473
912.498352,1457
912.614197,1376
912.730103,1422
912.846008,1372
