792.44574,2400
792.56488,2425
792.68396,2404
792.80304,2346
792.92218,2285
793.041199,2285
793.160339,2198
793.279419,2277
793.398499,2281
793.517578,2212
793.636658,2215
793.755737,2200
793.874817,2175
793.993896,2181
794.112976,2127
794.232056,2113
794.351074,2135
794.470215,2176
794.589233,2116
794.708313,2113
794.827393,2027
794.946411,2052
795.065552,2062
795.18457,2055
795.303589,2061
795.422668,2067
795.541687,2021
795.660767,2056
795.779846,2057
795.898865,2065
796.017883,1980
796.136963,2020
796.255981,2008
796.375061,2015
796.49408,1987
796.613037,2083
796.732117,2015
796.851135,2022
796.970154,1949
797.089233,1992
797.208191,1982
797.327271,1981
797.446228,1957
797.565186,1946
797.684265,1981
797.803223,1939
797.922241,1931
798.04126,1943
798.160278,1969
798.279297,1900
798.398315,1908
798.517273,1933
798.636292,1931
798.75531,1998
798.874268,1962
798.993286,1971
799.112244,1917
799.231323,1940
799.350281,1925
799.469238,1930
799.588257,1963
799.707153,1946
799.826111,1927
799.945129,1964
800.064087,1963
800.183044,1940
800.302063,1958
800.421021,1925
800.539978,1904
800.658936,1921
800.777893,1975
800.896912,1929
801.015747,1972
801.134705,1941
801.253723,1938
801.37262,1957
801.491638,1979
801.610535,1941
801.729492,1930
801.84845,1960
801.967407,1944
802.086243,1962
802.205261,1994
802.324158,1987
802.443115,1994
802.562073,2012
802.680969,1995
802.799927,1990
802.918762,1926
803.037659,1961
803.156677,1995
803.275574,1983
803.39447,2014
803.513428,2016
803.632263,2012
803.751221,2006
803.870117,2000
803.989014,1992
804.107971,2010
804.226746,2043
804.345642,2020
804.4646,2023
804.583496,2003
804.702393,2004
804.821228,2009
804.940125,2083
805.059021,2043
805.177917,2025
805.296814,2023
805.415649,2049
805.534546,2076
805.653442,2050
805.772278,2064
805.891113,2061
806.01001,2097
806.128906,2084
806.247742,2056
806.366577,2043
806.485413,2061
806.604309,2128
806.723145,2035
806.84198,2052
806.960876,2043
807.079712,2063
807.198486,2037
807.317383,2080
807.436218,2080
807.554993,2065
807.673889,2110
807.792725,2025
807.91156,2060
808.030396,2077
808.14917,2100
808.268005,2091
808.386841,2108
808.505676,2048
808.624451,2119
808.743286,2085
808.862122,2073
808.980896,2081
809.099731,2088
809.218506,2140
809.337341,2159
809.456116,2161
809.57489,2112
809.693726,2167
809.8125,2137
809.931274,2131
810.050049,2155
810.168884,2109
810.287659,2110
810.406372,2111
810.525269,2113
810.643982,2094
810.762756,2104
810.881531,2066
811.000305,2099
811.11908,2104
811.237854,2141
811.356567,2142
811.475403,2187
811.594116,2128
811.71283,2126
811.831604,2165
811.950378,2155
812.069153,2161
812.187927,2203
812.30658,2122
812.425415,2121
812.544128,2144
812.662781,2144
812.781616,2175
812.900269,2185
813.019043,2180
813.137756,2180
813.256531,2164
813.375244,2182
813.493896,2115
813.612671,2110
813.731384,2156
813.850037,2070
813.96875,2200
814.087524,2123
814.206238,2116
814.324951,2121
814.443604,2136
814.562256,2093
814.68103,2116
814.799683,2138
814.918335,2110
815.037109,2066
815.155762,2072
815.274475,2062
815.393188,2055
815.511841,2078
815.630554,2071
815.749146,2056
815.867859,2095
815.986572,2070
816.105164,2021
816.223877,2007
816.342529,1993
816.461182,2019
816.579895,2024
816.698486,2121
816.817139,2092
816.935791,2094
817.054504,2073
817.173096,2058
817.291748,2099
817.4104,2044
817.529053,2014
817.647644,1993
817.766235,1967
817.884949,1910
818.00354,1891
818.122192,1905
818.240845,1832
818.359436,1788
818.478088,1749
818.59668,1753
818.715271,1696
818.833923,1677
818.952515,1653
819.071106,1614
819.189758,1601
819.30835,1584
819.426941,1608
819.545532,1575
819.664124,1606
819.782715,1633
819.901306,1539
820.019897,1521
820.138489,1574
820.25708,1517
820.375671,1528
820.494202,1508
820.612732,1488
820.731384,1486
820.849915,1491
820.968506,1526
821.087097,1474
821.205627,1485
821.324158,1503
821.442749,1463
821.561279,1484
821.679871,1511
821.798401,1449
821.916931,1473
822.035461,1486
822.154053,1452
822.272583,1459
822.391174,1430
822.509583,1437
822.628174,1485
822.746704,1469
822.865234,1470
822.983765,1429
823.102295,1428
823.220825,1451
823.339294,1454
823.457825,1452
823.576355,1430
823.694824,1411
823.813354,1462
823.931885,1470
824.050354,1509
824.168884,1443
824.287354,1498
824.405823,1443
824.524353,1487
824.642822,1446
824.761353,1447
824.879822,1459
824.998291,1463
825.116699,1413
825.235291,1467
825.353699,1408
825.472168,1441
825.590637,1449
825.709106,1457
825.827576,1440
825.946045,1418
826.064453,1389
826.182983,1410
826.301392,1380
826.4198,1441
826.53833,1382
826.656738,1356
826.775208,1353
826.893677,1378
827.012024,1347
827.130493,1396
827.248962,1403
827.36731,1379
827.485779,1377
827.604248,1401
827.722595,1342
827.841064,1360
827.959412,1358
828.077942,1325
828.196289,1394
828.314636,1356
828.433105,1343
828.551514,1328
828.669861,1352
828.78833,1331
828.906677,1325
829.025085,1335
829.143433,1382
829.261841,1334
829.38031,1333
829.498657,1359
829.617004,1349
829.735413,1355
829.85376,1355
829.972107,1334
830.090515,1319
830.208862,1373
830.327209,1328
830.445557,1354
830.563904,1376
830.682312,1321
830.800659,1349
830.919006,1342
831.037354,1354
831.155701,1355
831.274048,1362
831.392395,1343
831.51062,1297
831.629028,1290
831.747314,1346
831.865662,1319
831.984009,1375
832.102356,1332
832.220642,1348
832.338928,1362
832.457275,1324
832.575623,1350
832.693909,1317
832.812134,1316
832.930481,1338
833.048828,1294
833.167114,1360
833.2854,1318
833.403687,1340
833.521973,1329
833.640259,1355
833.758545,1356
833.876831,1337
833.995056,1332
834.113281,1294
834.231628,1348
834.349915,1303
834.468201,1344
834.586426,1334
834.704651,1308
834.822998,1323
834.941162,1316
835.059448,1329
835.177673,1377
835.295959,1298
835.414246,1353
835.53241,1351
835.650635,1333
835.768921,1353
835.887146,1323
836.005371,1386
836.123596,1358
836.241821,1420
836.360046,1348
836.478271,1393
836.596497,1397
836.714722,1381
836.832886,1387
836.95105,1385
837.069336,1410
837.1875,1399
837.305725,1387
837.423889,1411
837.542053,1382
837.660339,1401
837.778503,1426
837.896667,1420
838.014832,1446
838.132996,1395
838.25116,1395
838.369385,1404
838.487488,1412
838.605713,1406
838.723877,1417
838.84198,1405
838.960205,1419
839.078308,1376
839.196472,1374
839.314636,1395
839.4328,1379
839.550964,1370
839.669067,1397
839.787231,1403
839.905396,1356
840.023499,1379
840.141602,1416
840.259766,1382
840.377869,1382
840.495972,1404
840.614136,1371
840.732239,1383
840.850342,1365
840.968445,1365
841.086548,1402
841.204651,1350
841.322754,1403
841.440918,1414
841.55896,1349
841.677002,1375
841.795166,1393
841.913208,1342
842.031311,1375
842.149353,1348
842.267456,1319
842.385498,1336
842.503601,1283
842.621643,1371
842.739746,1308
842.857788,1331
842.97583,1338
843.093933,1324
843.211975,1324
843.330017,1319
843.44812,1347
843.566101,1319
843.684204,1314
843.802246,1305
843.920227,1291
844.038269,1340
844.156311,1327
844.274292,1321
844.392395,1309
844.510376,1304
844.628357,1286
844.74646,1283
844.864441,1295
844.982422,1283
845.100403,1296
845.218384,1325
845.336426,1275
845.454468,1338
845.572449,1255
845.69043,1319
845.808411,1335
845.926453,1323
846.044373,1284
846.162354,1275
846.280396,1309
846.398315,1283
846.516296,1305
846.634216,1296
846.752197,1295
846.870178,1320
846.988098,1325
847.106079,1294
847.22406,1291
847.34198,1285
847.4599,1324
847.577881,1272
847.695801,1298
847.813782,1304
847.931641,1348
848.049561,1310
848.167603,1265
848.285461,1282
848.403381,1279
848.521362,1297
848.639221,1299
848.75708,1282
848.875,1307
848.99292,1285
849.110901,1292
849.22876,1290
849.34668,1277
849.464539,1311
849.582458,1290
849.700317,1301
849.818176,1290
849.936096,1328
850.053955,1303
850.171875,1323
850.289673,1334
850.407593,1270
850.525452,1277
850.643311,1291
850.761169,1287
850.878967,1312
850.996887,1279
851.114746,1275
851.232544,1292
851.350403,1298
851.468262,1275
851.58606,1279
851.703979,1293
851.821777,1312
851.939636,1272
852.057434,1299
852.175232,1238
852.293091,1303
852.410889,1306
852.528687,1284
852.646545,1339
852.764343,1301
852.88208,1308
852.999939,1320
853.117676,1332
853.235535,1308
853.353271,1296
853.471069,1341
853.588928,1290
853.706604,1283
853.824402,1366
853.9422,1331
854.059998,1282
854.177734,1323
854.295532,1315
854.413269,1314
854.531006,1281
854.648804,1313
854.766541,1351
854.884277,1319
855.002014,1286
855.119751,1340
855.237549,1331
855.355225,1364
855.473022,1301
855.590698,1356
855.708435,1308
855.826172,1351
855.943848,1370
856.061646,1309
856.179321,1341
856.296997,1362
856.414795,1327
856.53241,1323
856.650085,1330
856.767822,1326
856.885559,1398
857.003174,1358
857.120911,1352
857.238586,1344
857.356201,1382
857.473938,1307
857.591614,1360
857.709351,1385
857.826965,1340
857.944641,1375
858.062317,1351
858.179993,1325
858.297668,1360
858.415283,1322
858.532959,1338
858.650574,1332
858.768188,1319
858.885803,1344
859.003479,1326
859.121094,1361
859.23877,1295
859.356384,1308
859.473999,1332
859.591675,1282
859.709229,1335
859.826843,1313
859.944458,1298
860.062012,1310
860.179626,1279
860.297302,1314
860.414856,1282
860.532471,1303
860.650024,1290
860.767639,1312
860.885193,1321
861.002808,1286
861.120361,1336
861.237976,1302
861.35553,1330
861.473022,1266
861.590698,1295
861.708191,1299
861.825745,1348
861.943298,1317
862.060852,1346
862.178406,1348
862.295959,1304
862.413513,1286
862.531006,1317
862.64856,1285
862.766113,1283
862.883667,1308
863.00116,1307
863.118713,1306
863.236206,1312
863.353699,1313
863.471252,1305
863.588745,1312
863.706177,1292
863.82373,1339
863.941162,1290
864.058716,1296
864.176208,1315
864.29364,1292
864.411194,1288
864.528687,1292
864.646118,1326
864.763611,1296
864.881042,1334
864.998535,1331
865.116028,1311
865.233459,1324
865.350891,1297
865.468384,1320
865.585754,1343
865.703308,1334
865.820679,1324
865.938171,1280
866.055542,1295
866.173035,1348
866.290466,1286
866.407837,1302
866.52533,1366
866.6427,1315
866.760071,1268
866.877563,1328
866.994934,1323
867.112305,1353
867.229736,1328
867.347107,1301
867.464539,1332
867.58197,1353
867.699341,1311
867.81665,1290
867.934082,1322
868.051453,1318
868.168823,1287
868.286194,1319
868.403564,1283
868.520935,1329
868.638306,1348
868.755676,1293
868.872986,1302
868.990295,1321
869.107727,1334
869.225037,1303
869.342346,1334
869.459717,1327
869.577026,1305
869.694336,1331
869.811707,1319
869.929016,1354
870.046326,1340
870.163635,1329
870.280945,1351
870.398254,1341
870.515564,1332
870.632812,1340
870.750183,1323
870.867432,1326
870.984741,1350
871.102051,1363
871.219299,1359
871.336609,1341
871.453918,1343
871.571106,1350
871.688416,1338
871.805664,1339
871.922852,1361
872.040222,1287
872.157471,1328
872.274719,1365
872.391968,1345
872.509155,1325
872.626465,1312
872.743652,1298
872.860962,1321
872.978149,1316
873.095337,1368
873.212646,1295
873.329834,1294
873.44696,1328
873.564209,1309
873.681396,1353
873.798645,1303
873.915894,1329
874.03302,1338
874.150208,1326
874.267456,1306
874.384583,1351
874.501831,1348
874.618958,1355
874.736145,1338
874.853333,1324
874.970459,1318
875.087646,1375
875.204834,1353
875.32196,1334
875.439148,1320
875.556274,1344
875.673401,1336
875.790527,1283
875.907715,1338
876.024841,1350
876.141968,1377
876.259094,1325
876.376282,1363
876.493347,1366
876.610474,1303
876.7276,1316
876.844727,1353
876.961853,1299
877.078918,1298
877.195984,1304
877.313171,1321
877.430237,1312
877.547302,1357
877.664368,1346
877.781433,1306
877.898499,1337
878.015625,1349
878.13269,1345
878.249695,1281
878.366821,1299
878.483887,1351
878.600952,1295
878.717957,1302
878.834961,1293
878.952087,1321
879.069092,1295
879.186157,1306
879.303162,1302
879.420227,1353
879.537231,1353
879.654236,1301
879.77124,1319
879.888306,1333
880.005249,1318
880.122314,1301
880.239319,1326
880.356323,1310
880.473328,1314
880.590271,1342
880.707275,1296
880.824341,1290
880.941284,1291
881.058228,1281
881.175232,1348
881.292236,1299
881.40918,1289
881.526123,1295
881.643066,1315
881.760071,1291
881.877014,1343
881.993958,1304
882.11084,1335
882.227783,1300
882.344727,1311
882.46167,1338
882.578613,1332
882.695618,1349
882.812439,1287
882.929382,1329
883.046326,1375
883.163208,1335
883.280151,1343
883.397034,1296
883.513916,1325
883.630798,1327
883.747742,1347
883.864563,1314
883.981506,1310
884.098389,1331
884.21521,1307
884.332153,1336
884.448975,1312
884.565796,1364
884.682678,1373
884.7995,1382
884.916443,1346
885.033264,1350
885.150085,1398
885.266968,1386
885.383789,1416
885.500671,1371
885.617493,1439
885.734314,1390
885.851196,1384
885.967896,1409
886.084717,1408
886.201599,1379
886.318359,1386
886.435181,1393
886.552002,1390
886.668762,1434
886.785645,1383
886.902344,1340
887.019165,1377
887.135925,1358
887.252747,1360
887.369446,1411
887.486267,1408
887.603027,1362
887.719788,1357
887.836548,1383
887.953247,1344
888.070068,1384
888.186829,1356
888.303528,1355
888.420288,1337
888.536987,1337
888.653687,1331
888.770447,1326
888.887146,1311
889.003967,1307
889.120667,1353
889.237305,1352
889.354065,1368
889.470703,1330
889.587463,1342
889.704163,1330
889.820862,1329
889.937561,1363
890.054199,1342
890.170837,1333
890.287598,1344
890.404236,1345
890.520874,1321
890.637634,1356
890.754211,1314
890.87085,1346
890.987549,1329
891.104187,1341
891.220886,1329
891.337463,1259
891.454102,1359
891.57074,1369
891.687378,1380
891.804077,1333
891.920654,1313
892.037231,1382
892.15387,1328
892.270447,1378
892.387085,1330
892.503723,1356
892.6203,1334
892.736877,1362
892.853516,1364
892.970032,1338
893.08667,1370
893.203186,1372
893.319763,1352
893.43634,1303
893.552917,1367
893.669556,1350
893.786011,1337
893.902588,1377
894.019165,1339
894.135681,1342
894.252197,1344
894.368835,1323
894.485291,1360
894.601868,1352
894.718384,1360
894.8349,1378
894.951355,1357
895.067932,1372
895.184448,1367
895.300964,1375
895.417419,1341
895.533936,1314
895.650452,1353
895.766907,1359
895.883423,1385
895.999878,1365
896.116333,1398
896.232849,1395
896.349304,1404
896.465759,1329
896.582214,1374
896.698669,1322
896.815125,1377
896.931641,1313
897.048035,1330
897.164551,1369
897.280884,1365
897.397339,1347
897.513794,1335
897.630249,1353
897.746582,1395
897.863098,1367
897.979431,1409
898.095886,1404
898.212341,1341
898.328674,1355
898.445129,1339
898.561462,1344
898.677795,1363
898.794312,1352
898.910645,1367
899.026978,1371
899.143433,1400
899.259766,1366
899.37616,1391
899.492493,1383
899.608765,1380
899.725159,1363
899.841553,1358
899.957947,1365
900.07428,1424
900.190552,1334
900.306946,1384
900.423157,1388
900.53949,1362
900.655884,1352
900.772156,1418
900.888489,1356
901.004822,1371
901.121033,1323
901.237366,1372
901.353699,1368
901.46991,1381
901.586304,1381
901.702515,1378
901.818787,1400
901.93512,1395
902.051331,1387
902.167603,1372
902.283875,1405
902.400085,1374
902.516418,1419
902.632629,1396
902.74884,1392
902.865112,1432
902.981384,1442
903.097595,1427
903.213867,1427
903.330017,1411
903.446289,1435
903.5625,1411
903.67865,1437
903.794922,1452
903.911072,1398
904.027344,1429
904.143494,1376
904.259705,1409
904.375916,1417
904.492065,1401
904.608215,1428
904.724426,1344
904.840576,1364
904.956726,1415
905.072876,1390
905.189087,1437
905.305176,1411
905.421387,1409
905.537537,1397
905.653687,1396
905.769775,1437
905.885925,1344
906.002014,1354
906.118164,1359
906.234314,1387
906.350403,1408
906.466492,1404
906.582642,1377
906.69873,1381
906.814758,1420
906.930908,1364
907.046936,1356
907.163086,1373
907.279175,1389
907.395264,1356
907.511353,1393
907.62738,1413
907.743408,1386
907.859497,1388
907.975525,1384
908.091553,1391
908.207703,1341
908.32373,1409
908.439758,1403
908.555786,1467
908.671814,1393
908.787842,1374
908.90387,1414
909.019775,1388
909.135864,1383
909.251892,1407
909.367859,1404
909.483826,1423
909.599854,1362
909.715881,1373
909.831848,1393
909.947815,1389
910.063782,1381
910.179749,1382
910.295776,1380
910.411743,1370
910.527649,1401
910.643616,1408
910.759583,1404
910.875488,1421
910.991455,1424
911.107361,1415
911.223267,1364
911.339294,1411
911.4552,1381
911.571106,1389
911.687073,1339
911.802979,1402
911.918823,1401
912.034729,1420
912.150635,1379
912.266602,1374
912.382446,1413
912.498352,1376
912.614197,1445
912.730103,1387
912.846008,1367
792.44574,2466
792.56488,2460
792.68396,2434
792.80304,2335
792.92218,2359
793.041199,2269
793.160339,2279
793.279419,2322
793.398499,2252
793.517578,2223
793.636658,2221
793.755737,2229
793.874817,2240
793.993896,2195
794.112976,2164
794.232056,2144
794.351074,2154
794.470215,2114
794.589233,2121
794.708313,2086
794.827393,2108
794.946411,2089
795.065552,2079
795.18457,2083
795.303589,2126
795.422668,2092
795.541687,2111
795.660767,2072
795.779846,2072
795.898865,2074
796.017883,2009
796.136963,2037
796.255981,2037
796.375061,2073
796.49408,2064
796.613037,2021
796.732117,2020
796.851135,2066
796.970154,2082
797.089233,1992
797.208191,1960
797.327271,1999
797.446228,1967
797.565186,2026
797.684265,2010
797.803223,2025
797.922241,2016
798.04126,1946
798.160278,1986
798.279297,1962
798.398315,1994
798.517273,1963
798.636292,1952
798.75531,1997
798.874268,1973
798.993286,1950
799.112244,1948
799.231323,1954
799.350281,1965
799.469238,2001
799.588257,2017
799.707153,1987
799.826111,1972
799.945129,2009
800.064087,2002
800.183044,1968
800.302063,1980
800.421021,1944
800.539978,1988
800.658936,1999
800.777893,2022
800.896912,1975
801.015747,1987
801.134705,1995
801.253723,1959
801.37262,1919
801.491638,2032
801.610535,2031
801.729492,1984
801.84845,1992
801.967407,2016
802.086243,2023
802.205261,1978
802.324158,2002
802.443115,2013
802.562073,1998
802.680969,2055
802.799927,2047
802.918762,1984
803.037659,2044
803.156677,1995
803.275574,2034
803.39447,2005
803.513428,2065
803.632263,2036
803.751221,2011
803.870117,2037
803.989014,2064
804.107971,2016
804.226746,2079
804.345642,2060
804.4646,2085
804.583496,2089
804.702393,2065
804.821228,2066
804.940125,2090
805.059021,2102
805.177917,2060
805.296814,2119
805.415649,2125
805.534546,2120
805.653442,2080
805.772278,2110
805.891113,2155
806.01001,2130
806.128906,2092
806.247742,2163
806.366577,2089
806.485413,2104
806.604309,2116
806.723145,2108
806.84198,2078
806.960876,2093
807.079712,2080
807.198486,2121
807.317383,2136
807.436218,2091
807.554993,2144
807.673889,2126
807.792725,2093
807.91156,2105
808.030396,2147
808.14917,2134
808.268005,2135
808.386841,2210
808.505676,2131
808.624451,2131
808.743286,2151
808.862122,2185
808.980896,2159
809.099731,2160
809.218506,2117
809.337341,2141
809.456116,2152
809.57489,2162
809.693726,2199
809.8125,2203
809.931274,2162
810.050049,2154
810.168884,2218
810.287659,2205
810.406372,2198
810.525269,2149
810.643982,2195
810.762756,2171
810.881531,2168
811.000305,2175
811.11908,2174
811.237854,2183
811.356567,2205
811.475403,2198
811.594116,2139
811.71283,2181
811.831604,2150
811.950378,2183
812.069153,2200
812.187927,2178
812.30658,2152
812.425415,2177
812.544128,2251
812.662781,2217
812.781616,2213
812.900269,2208
813.019043,2168
813.137756,2153
813.256531,2202
813.375244,2179
813.493896,2171
813.612671,2229
813.731384,2111
813.850037,2145
813.96875,2174
814.087524,2137
814.206238,2107
814.324951,2149
814.443604,2208
814.562256,2179
814.68103,2173
814.799683,2151
814.918335,2159
815.037109,2155
815.155762,2139
815.274475,2152
815.393188,2096
815.511841,2085
815.630554,2065
815.749146,2087
815.867859,2089
815.986572,2089
816.105164,2078
816.223877,2066
816.342529,2044
816.461182,2130
816.579895,2120
816.698486,2077
816.817139,2160
816.935791,2145
817.054504,2110
817.173096,2118
817.291748,2079
817.4104,2058
817.529053,2052
817.647644,1976
817.766235,1955
817.884949,1955
818.00354,1905
818.122192,1877
818.240845,1875
818.359436,1852
818.478088,1796
818.59668,1733
818.715271,1738
818.833923,1718
818.952515,1647
819.071106,1680
819.189758,1650
819.30835,1590
819.426941,1628
819.545532,1641
819.664124,1607
819.782715,1561
819.901306,1580
820.019897,1546
820.138489,1562
820.25708,1599
820.375671,1559
820.494202,1586
820.612732,1527
820.731384,1585
820.849915,1553
820.968506,1509
821.087097,1465
821.205627,1487
821.324158,1522
821.442749,1486
821.561279,1510
821.679871,1487
821.798401,1483
821.916931,1492
822.035461,1507
822.154053,1456
822.272583,1492
822.391174,1532
822.509583,1436
822.628174,1517
822.746704,1485
822.865234,1478
822.983765,1496
823.102295,1490
823.220825,1499
823.339294,1486
823.457825,1473
823.576355,1460
823.694824,1474
823.813354,1481
823.931885,1504
824.050354,1460
824.168884,1486
824.287354,1483
824.405823,1545
824.524353,1498
824.642822,1464
824.761353,1514
824.879822,1476
824.998291,1483
825.116699,1459
825.235291,1482
825.353699,1475
825.472168,1473
825.590637,1450
825.709106,1468
825.827576,1455
825.946045,1461
826.064453,1429
826.182983,1444
826.301392,1380
826.4198,1427
826.53833,1469
826.656738,1436
826.775208,1431
826.893677,1437
827.012024,1422
827.130493,1431
827.248962,1409
827.36731,1403
827.485779,1392
827.604248,1430
827.722595,1393
827.841064,1390
827.959412,1386
828.077942,1387
828.196289,1376
828.314636,1380
828.433105,1374
828.551514,1408
828.669861,1396
828.78833,1325
828.906677,1331
829.025085,1419
829.143433,1402
829.261841,1341
829.38031,1366
829.498657,1371
829.617004,1332
829.735413,1370
829.85376,1356
829.972107,1396
830.090515,1332
830.208862,1358
830.327209,1332
830.445557,1361
830.563904,1375
830.682312,1383
830.800659,1365
830.919006,1377
831.037354,1368
831.155701,1379
831.274048,1369
831.392395,1377
831.51062,1371
831.629028,1372
831.747314,1389
831.865662,1327
831.984009,1371
832.102356,1378
832.220642,1341
832.338928,1363
832.457275,1344
832.575623,1344
832.693909,1334
832.812134,1386
832.930481,1349
833.048828,1384
833.167114,1346
833.2854,1384
833.403687,1365
833.521973,1346
833.640259,1340
833.758545,1361
833.876831,1358
833.995056,1342
834.113281,1366
834.231628,1363
834.349915,1390
834.468201,1360
834.586426,1342
834.704651,1383
834.822998,1390
834.941162,1373
835.059448,1362
835.177673,1384
835.295959,1394
835.414246,1353
835.53241,1346
835.650635,1384
835.768921,1356
835.887146,1391
836.005371,1330
836.123596,1366
836.241821,1340
836.360046,1381
836.478271,1387
836.596497,1430
836.714722,1439
836.832886,1439
836.95105,1403
837.069336,1429
837.1875,1404
837.305725,1422
837.423889,1445
837.542053,1434
837.660339,1421
837.778503,1486
837.896667,1428
838.014832,1408
838.132996,1423
838.25116,1437
838.369385,1428
838.487488,1404
838.605713,1453
838.723877,1439
838.84198,1397
838.960205,1393
839.078308,1434
839.196472,1384
839.314636,1417
839.4328,1450
839.550964,1386
839.669067,1410
839.787231,1415
839.905396,1460
840.023499,1400
840.141602,1424
840.259766,1410
840.377869,1420
840.495972,1390
840.614136,1423
840.732239,1391
840.850342,1382
840.968445,1389
841.086548,1402
841.204651,1412
841.322754,1368
841.440918,1409
841.55896,1392
841.677002,1417
841.795166,1426
841.913208,1442
842.031311,1346
842.149353,1379
842.267456,1387
842.385498,1355
842.503601,1361
842.621643,1352
842.739746,1363
842.857788,1337
842.97583,1365
843.093933,1385
843.211975,1353
843.330017,1354
843.44812,1332
843.566101,1335
843.684204,1359
843.802246,1327
843.920227,1317
844.038269,1334
844.156311,1330
844.274292,1356
844.392395,1367
844.510376,1301
844.628357,1307
844.74646,1325
844.864441,1346
844.982422,1326
845.100403,1346
845.218384,1356
845.336426,1333
845.454468,1337
845.572449,1329
845.69043,1343
845.808411,1323
845.926453,1328
846.044373,1356
846.162354,1339
846.280396,1358
846.398315,1302
846.516296,1328
846.634216,1320
846.752197,1302
846.870178,1323
846.988098,1328
847.106079,1317
847.22406,1327
847.34198,1379
847.4599,1332
847.577881,1312
847.695801,1339
847.813782,1329
847.931641,1352
848.049561,1289
848.167603,1311
848.285461,1283
848.403381,1321
848.521362,1322
848.639221,1340
848.75708,1318
848.875,1357
848.99292,1314
849.110901,1313
849.22876,1328
849.34668,1283
849.464539,1323
849.582458,1298
849.700317,1298
849.818176,1341
849.936096,1328
850.053955,1316
850.171875,1335
850.289673,1297
850.407593,1313
850.525452,1316
850.643311,1305
850.761169,1303
850.878967,1317
850.996887,1336
851.114746,1348
851.232544,1320
851.350403,1348
851.468262,1328
851.58606,1334
851.703979,1357
851.821777,1337
851.939636,1312
852.057434,1329
852.175232,1351
852.293091,1311
852.410889,1337
852.528687,1296
852.646545,1342
852.764343,1352
852.88208,1365
852.999939,1373
853.117676,1346
853.235535,1328
853.353271,1346
853.471069,1339
853.588928,1335
853.706604,1310
853.824402,1347
853.9422,1344
854.059998,1357
854.177734,1330
854.295532,1358
854.413269,1343
854.531006,1407
854.648804,1366
854.766541,1305
854.884277,1347
855.002014,1409
855.119751,1342
855.237549,1374
855.355225,1325
855.473022,1345
855.590698,1341
855.708435,1370
855.826172,1360
855.943848,1367
856.061646,1387
856.179321,1384
856.296997,1337
856.414795,1350
856.53241,1344
856.650085,1377
856.767822,1359
856.885559,1381
857.003174,1393
857.120911,1377
857.238586,1375
857.356201,1359
857.473938,1363
857.591614,1354
857.709351,1414
857.826965,1373
857.944641,1336
858.062317,1365
858.179993,1345
858.297668,1398
858.415283,1345
858.532959,1341
858.650574,1365
858.768188,1376
858.885803,1336
859.003479,1327
859.121094,1370
859.23877,1367
859.356384,1370
859.473999,1324
859.591675,1319
859.709229,1330
859.826843,1354
859.944458,1311
860.062012,1328
860.179626,1297
860.297302,1334
860.414856,1303
860.532471,1365
860.650024,1313
860.767639,1289
860.885193,1328
861.002808,1290
861.120361,1354
861.237976,1357
861.35553,1330
861.473022,1339
861.590698,1325
861.708191,1341
861.825745,1317
861.943298,1321
862.060852,1372
862.178406,1302
862.295959,1339
862.413513,1322
862.531006,1304
862.64856,1332
862.766113,1351
862.883667,1321
863.00116,1315
863.118713,1326
863.236206,1339
863.353699,1301
863.471252,1329
863.588745,1339
863.706177,1308
863.82373,1323
863.941162,1345
864.058716,1333
864.176208,1340
864.29364,1354
864.411194,1300
864.528687,1344
864.646118,1314
864.763611,1369
864.881042,1300
864.998535,1343
865.116028,1318
865.233459,1325
865.350891,1330
865.468384,1350
865.585754,1369
865.703308,1330
865.820679,1362
865.938171,1352
866.055542,1332
866.173035,1353
866.290466,1337
866.407837,1331
866.52533,1364
866.6427,1365
866.760071,1342
866.877563,1338
866.994934,1343
867.112305,1366
867.229736,1326
867.347107,1367
867.464539,1323
867.58197,1377
867.699341,1356
867.81665,1376
867.934082,1343
868.051453,1375
868.168823,1327
868.286194,1362
868.403564,1312
868.520935,1353
868.638306,1327
868.755676,1391
868.872986,1348
868.990295,1334
869.107727,1359
869.225037,1360
869.342346,1388
869.459717,1360
869.577026,1400
869.694336,1338
869.811707,1346
869.929016,1326
870.046326,1364
870.163635,1349
870.280945,1388
870.398254,1340
870.515564,1296
870.632812,1342
870.750183,1381
870.867432,1357
870.984741,1356
871.102051,1404
871.219299,1319
871.336609,1391
871.453918,1354
871.571106,1362
871.688416,1360
871.805664,1345
871.922852,1384
872.040222,1367
872.157471,1369
872.274719,1332
872.391968,1334
872.509155,1381
872.626465,1342
872.743652,1354
872.860962,1338
872.978149,1371
873.095337,1352
873.212646,1364
873.329834,1345
873.44696,1359
873.564209,1370
873.681396,1313
873.798645,1386
873.915894,1392
874.03302,1364
874.150208,1379
874.267456,1361
874.384583,1364
874.501831,1368
874.618958,1330
874.736145,1358
874.853333,1371
874.970459,1363
875.087646,1374
875.204834,1353
875.32196,1410
875.439148,1309
875.556274,1378
875.673401,1343
875.790527,1358
875.907715,1382
876.024841,1327
876.141968,1368
876.259094,1374
876.376282,1330
876.493347,1360
876.610474,1352
876.7276,1380
876.844727,1385
876.961853,1372
877.078918,1366
877.195984,1369
877.313171,1356
877.430237,1325
877.547302,1340
877.664368,1355
877.781433,1329
877.898499,1364
878.015625,1354
878.13269,1346
878.249695,1385
878.366821,1343
878.483887,1330
878.600952,1373
878.717957,1348
878.834961,1408
878.952087,1341
879.069092,1315
879.186157,1359
879.303162,1327
879.420227,1350
879.537231,1321
879.654236,1354
879.77124,1328
879.888306,1347
880.005249,1368
880.122314,1376
880.239319,1387
880.356323,1336
880.473328,1366
880.590271,1315
880.707275,1334
880.824341,1318
880.941284,1357
881.058228,1339
881.175232,1366
881.292236,1369
881.40918,1338
881.526123,1336
881.643066,1325
881.760071,1359
881.877014,1349
881.993958,1370
882.11084,1343
882.227783,1309
882.344727,1383
882.46167,1347
882.578613,1335
882.695618,1366
882.812439,1352
882.929382,1356
883.046326,1396
883.163208,1341
883.280151,1318
883.397034,1329
883.513916,1384
883.630798,1377
883.747742,1358
883.864563,1329
883.981506,1344
884.098389,1358
884.21521,1344
884.332153,1355
884.448975,1349
884.565796,1335
884.682678,1368
884.7995,1390
884.916443,1419
885.033264,1423
885.150085,1410
885.266968,1413
885.383789,1431
885.500671,1390
885.617493,1441
885.734314,1430
885.851196,1430
885.967896,1428
886.084717,1428
886.201599,1432
886.318359,1414
886.435181,1441
886.552002,1408
886.668762,1412
886.785645,1429
886.902344,1422
887.019165,1421
887.135925,1426
887.252747,1409
887.369446,1403
887.486267,1404
887.603027,1419
887.719788,1400
887.836548,1368
887.953247,1344
888.070068,1356
888.186829,1392
888.303528,1401
888.420288,1388
888.536987,1360
888.653687,1384
888.770447,1348
888.887146,1357
889.003967,1319
889.120667,1396
889.237305,1330
889.354065,1394
889.470703,1372
889.587463,1358
889.704163,1394
889.820862,1349
889.937561,1387
890.054199,1352
890.170837,1382
890.287598,1404
890.404236,1357
890.520874,1356
890.637634,1397
890.754211,1355
890.87085,1375
890.987549,1376
891.104187,1363
891.220886,1348
891.337463,1409
891.454102,1406
891.57074,1414
891.687378,1378
891.804077,1379
891.920654,1377
892.037231,1319
892.15387,1440
892.270447,1339
892.387085,1381
892.503723,1374
892.6203,1377
892.736877,1407
892.853516,1357
892.970032,1373
893.08667,1420
893.203186,1346
893.319763,1379
893.43634,1436
893.552917,1396
893.669556,1390
893.786011,1356
893.902588,1407
894.019165,1360
894.135681,1389
894.252197,1374
894.368835,1389
894.485291,1397
894.601868,1364
894.718384,1411
894.8349,1381
894.951355,1376
895.067932,1434
895.184448,1382
895.300964,1425
895.417419,1421
895.533936,1372
895.650452,1433
895.766907,1391
895.883423,1395
895.999878,1380
896.116333,1403
896.232849,1390
896.349304,1367
896.465759,1378
896.582214,1411
896.698669,1412
896.815125,1424
896.931641,1432
897.048035,1399
897.164551,1385
897.280884,1396
897.397339,1370
897.513794,1396
897.630249,1431
897.746582,1402
897.863098,1366
897.979431,1401
898.095886,1412
898.212341,1364
898.328674,1397
898.445129,1423
898.561462,1447
898.677795,1397
898.794312,1491
898.910645,1366
899.026978,1424
899.143433,1421
899.259766,1417
899.37616,1386
899.492493,1413
899.608765,1433
899.725159,1387
899.841553,1390
899.957947,1384
900.07428,1412
900.190552,1406
900.306946,1387
900.423157,1418
900.53949,1407
900.655884,1420
900.772156,1385
900.888489,1398
901.004822,1383
901.121033,1361
901.237366,1410
901.353699,1402
901.46991,1402
901.586304,1424
901.702515,1419
901.818787,1409
901.93512,1399
902.051331,1432
902.167603,1462
902.283875,1410
902.400085,1452
902.516418,1467
902.632629,1418
902.74884,1412
902.865112,1472
902.981384,1422
903.097595,1466
903.213867,1484
903.330017,1449
903.446289,1447
903.5625,1427
903.67865,1504
903.794922,1437
903.911072,1488
904.027344,1450
904.143494,1434
904.259705,1420
904.375916,1415
904.492065,1430
904.608215,1428
904.724426,1442
904.840576,1423
904.956726,1424
905.072876,1419
905.189087,1428
905.305176,1455
905.421387,1409
905.537537,1431
905.653687,1438
905.769775,1451
905.885925,1440
906.002014,1433
906.118164,1434
906.234314,1404
906.350403,1435
906.466492,1433
906.582642,1455
906.69873,1375
906.814758,1405
906.930908,1429
907.046936,1422
907.163086,1422
907.279175,1432
907.395264,1409
907.511353,1445
907.62738,1427
907.743408,1417
907.859497,1443
907.975525,1413
908.091553,1429
908.207703,1435
908.32373,1439
908.439758,1440
908.555786,1410
908.671814,1439
908.787842,1410
908.90387,1428
909.019775,1472
909.135864,1390
909.251892,1487
909.367859,1470
909.483826,1448
909.599854,1412
909.715881,1435
909.831848,1454
909.947815,1432
910.063782,1438
910.179749,1407
910.295776,1473
910.411743,1408
910.527649,1439
910.643616,1440
910.759583,1409
910.875488,1404
910.991455,1404
911.107361,1430
911.223267,1465
911.339294,1408
911.4552,1449
911.571106,1414
911.687073,1444
911.802979,1426
911.918823,1424
912.034729,1431
912.150635,1431
912.266602,1443
912.382446,1455
912.498352,1450
912.614197,1424
912.730103,1428
912.846008,1422
792.44574,2457
792.56488,2423
792.68396,2445
792.80304,2406
792.92218,2331
793.041199,2257
793.160339,2358
793.279419,2333
793.398499,2276
793.517578,2262
793.636658,2274
793.755737,2265
793.874817,2285
793.993896,2226
794.112976,2231
794.232056,2142
794.351074,2162
794.470215,2157
794.589233,2178
794.708313,2173
794.827393,2151
794.946411,2148
795.065552,2123
795.18457,2109
795.303589,2103
795.422668,2123
795.541687,2121
795.660767,2140
795.779846,2150
795.898865,2014
796.017883,2101
796.136963,2003
796.255981,2081
796.375061,2100
796.49408,2033
796.613037,2069
796.732117,2068
796.851135,2038
796.970154,2018
797.089233,2026
797.208191,2027
797.327271,2018
797.446228,2009
797.565186,2046
797.684265,2002
797.803223,1967
797.922241,2018
798.04126,1964
798.160278,1994
798.279297,1980
798.398315,2027
798.517273,2026
798.636292,1985
798.75531,2033
798.874268,2004
798.993286,1991
799.112244,1962
799.231323,1971
799.350281,1940
799.469238,1986
799.588257,2038
799.707153,2007
799.826111,2005
799.945129,1989
800.064087,1974
800.183044,1995
800.302063,1922
800.421021,2048
800.539978,1980
800.658936,2006
800.777893,2008
800.896912,2037
801.015747,1991
801.134705,2021
801.253723,2020
801.37262,1971
801.491638,2008
801.610535,2023
801.729492,1983
801.84845,1987
801.967407,2014
802.086243,2010
802.205261,2031
802.324158,1997
802.443115,2013
802.562073,2001
802.680969,2041
802.799927,2035
802.918762,2045
803.037659,2028
803.156677,2048
803.275574,2055
803.39447,2033
803.513428,2026
803.632263,2084
803.751221,2024
803.870117,2042
803.989014,2079
804.107971,2042
804.226746,2091
804.345642,2143
804.4646,2060
804.583496,2068
804.702393,2058
804.821228,2112
804.940125,2089
805.059021,2107
805.177917,2148
805.296814,2111
805.415649,2022
805.534546,2121
805.653442,2086
805.772278,2116
805.891113,2075
806.01001,2055
806.128906,2126
806.247742,2098
806.366577,2060
806.485413,2131
806.604309,2172
806.723145,2172
806.84198,2133
806.960876,2088
807.079712,2107
807.198486,2092
807.317383,2167
807.436218,2126
807.554993,2131
807.673889,2165
807.792725,2113
807.91156,2150
808.030396,2144
808.14917,2108
808.268005,2216
808.386841,2134
808.505676,2184
808.624451,2145
808.743286,2162
808.862122,2158
808.980896,2136
809.099731,2131
809.218506,2141
809.337341,2180
809.456116,2165
809.57489,2199
809.693726,2194
809.8125,2193
809.931274,2114
810.050049,2173
810.168884,2182
810.287659,2186
810.406372,2188
810.525269,2167
810.643982,2104
810.762756,2168
810.881531,2190
811.000305,2173
811.11908,2221
811.237854,2200
811.356567,2170
811.475403,2231
811.594116,2190
811.71283,2175
811.831604,2170
811.950378,2222
812.069153,2185
812.187927,2227
812.30658,2161
812.425415,2223
812.544128,2189
812.662781,2152
812.781616,2176
812.900269,2167
813.019043,2208
813.137756,2165
813.256531,2145
813.375244,2268
813.493896,2184
813.612671,2178
813.731384,2144
813.850037,2159
813.96875,2130
814.087524,2164
814.206238,2155
814.324951,2138
814.443604,2159
814.562256,2131
814.68103,2124
814.799683,2170
814.918335,2156
815.037109,2177
815.155762,2079
815.274475,2103
815.393188,2111
815.511841,2139
815.630554,2124
815.749146,2095
815.867859,2102
815.986572,2045
816.105164,2055
816.223877,2073
816.342529,2038
816.461182,2095
816.579895,2111
816.698486,2150
816.817139,2161
816.935791,2121
817.054504,2147
817.173096,2093
817.291748,2036
817.4104,2069
817.529053,2079
817.647644,2044
817.766235,2005
817.884949,1923
818.00354,1909
818.122192,1902
818.240845,1896
818.359436,1821
818.478088,1870
818.59668,1761
818.715271,1763
818.833923,1730
818.952515,1687
819.071106,1668
819.189758,1580
819.30835,1579
819.426941,1637
819.545532,1615
819.664124,1648
819.782715,1606
819.901306,1575
820.019897,1572
820.138489,1610
820.25708,1540
820.375671,1546
820.494202,1573
820.612732,1525
820.731384,1563
820.849915,1540
820.968506,1575
821.087097,1543
821.205627,1545
821.324158,1499
821.442749,1488
821.561279,1556
821.679871,1488
821.798401,1515
821.916931,1477
822.035461,1488
822.154053,1489
822.272583,1493
822.391174,1525
822.509583,1474
822.628174,1470
822.746704,1504
822.865234,1470
822.983765,1494
823.102295,1474
823.220825,1500
823.339294,1439
823.457825,1483
823.576355,1482
823.694824,1468
823.813354,1470
823.931885,1545
824.050354,1462
824.168884,1461
824.287354,1547
824.405823,1501
824.524353,1514
824.642822,1523
824.761353,1541
824.879822,1562
824.998291,1473
825.116699,1542
825.235291,1503
825.353699,1491
825.472168,1488
825.590637,1521
825.709106,1487
825.827576,1472
825.946045,1431
826.064453,1447
826.182983,1432
826.301392,1422
826.4198,1432
826.53833,1412
826.656738,1434
826.775208,1396
826.893677,1406
827.012024,1433
827.130493,1411
827.248962,1410
827.36731,1420
827.485779,1419
827.604248,1351
827.722595,1438
827.841064,1370
827.959412,1391
828.077942,1370
828.196289,1399
828.314636,1423
828.433105,1387
828.551514,1362
828.669861,1390
828.78833,1374
828.906677,1395
829.025085,1383
829.143433,1417
829.261841,1372
829.38031,1357
829.498657,1391
829.617004,1398
829.735413,1407
829.85376,1398
829.972107,1367
830.090515,1371
830.208862,1399
830.327209,1432
830.445557,1335
830.563904,1360
830.682312,1356
830.800659,1405
830.919006,1349
831.037354,1367
831.155701,1361
831.274048,1372
831.392395,1385
831.51062,1388
831.629028,1376
831.747314,1392
831.865662,1369
831.984009,1355
832.102356,1343
832.220642,1363
832.338928,1418
832.457275,1396
832.575623,1396
832.693909,1369
832.812134,1360
832.930481,1353
833.048828,1396
833.167114,1350
833.2854,1400
833.403687,1385
833.521973,1331
833.640259,1376
833.758545,1370
833.876831,1367
833.995056,1355
834.113281,1354
834.231628,1410
834.349915,1366
834.468201,1379
834.586426,1362
834.704651,1365
834.822998,1346
834.941162,1391
835.059448,1364
835.177673,1410
835.295959,1370
835.414246,1366
835.53241,1356
835.650635,1374
835.768921,1353
835.887146,1368
836.005371,1361
836.123596,1384
836.241821,1427
836.360046,1350
836.478271,1418
836.596497,1399
836.714722,1403
836.832886,1416
836.95105,1438
837.069336,1469
837.1875,1436
837.305725,1421
837.423889,1452
837.542053,1471
837.660339,1447
837.778503,1433
837.896667,1464
838.014832,1454
838.132996,1424
838.25116,1427
838.369385,1434
838.487488,1463
838.605713,1439
838.723877,1421
838.84198,1465
838.960205,1444
839.078308,1462
839.196472,1437
839.314636,1398
839.4328,1410
839.550964,1413
839.669067,1451
839.787231,1424
839.905396,1438
840.023499,1435
840.141602,1432
840.259766,1465
840.377869,1404
840.495972,1446
840.614136,1393
840.732239,1369
840.850342,1452
840.968445,1377
841.086548,1413
841.204651,1440
841.322754,1402
841.440918,1454
841.55896,1415
841.677002,1407
841.795166,1400
841.913208,1403
842.031311,1355
842.149353,1367
842.267456,1375
842.385498,1359
842.503601,1373
842.621643,1359
842.739746,1430
842.857788,1347
842.97583,1340
843.093933,1374
843.211975,1375
843.330017,1297
843.44812,1345
843.566101,1311
843.684204,1357
843.802246,1307
843.920227,1382
844.038269,1366
844.156311,1361
844.274292,1368
844.392395,1363
844.510376,1331
844.628357,1392
844.74646,1384
844.864441,1315
844.982422,1375
845.100403,1350
845.218384,1329
845.336426,1362
845.454468,1320
845.572449,1329
845.69043,1363
845.808411,1336
845.926453,1340
846.044373,1352
846.162354,1328
846.280396,1345
846.398315,1322
846.516296,1348
846.634216,1342
846.752197,1310
846.870178,1356
846.988098,1325
847.106079,1288
847.22406,1345
847.34198,1335
847.4599,1321
847.577881,1367
847.695801,1292
847.813782,1334
847.931641,1354
848.049561,1352
848.167603,1340
848.285461,1300
848.403381,1292
848.521362,1298
848.639221,1353
848.75708,1311
848.875,1355
848.99292,1357
849.110901,1346
849.22876,1320
849.34668,1376
849.464539,1333
849.582458,1358
849.700317,1290
849.818176,1310
849.936096,1315
850.053955,1340
850.171875,1345
850.289673,1348
850.407593,1355
850.525452,1296
850.643311,1325
850.761169,1377
850.878967,1318
850.996887,1330
851.114746,1282
851.232544,1299
851.350403,1312
851.468262,1303
851.58606,1316
851.703979,1332
851.821777,1331
851.939636,1324
852.057434,1332
852.175232,1349
852.293091,1324
852.410889,1358
852.528687,1340
852.646545,1374
852.764343,1346
852.88208,1333
852.999939,1329
853.117676,1405
853.235535,1353
853.353271,1298
853.471069,1322
853.588928,1335
853.706604,1313
853.824402,1356
853.9422,1361
854.059998,1336
854.177734,1352
854.295532,1340
854.413269,1337
854.531006,1333
854.648804,1378
854.766541,1359
854.884277,1380
855.002014,1362
855.119751,1361
855.237549,1359
855.355225,1334
855.473022,1408
855.590698,1346
855.708435,1408
855.826172,1415
855.943848,1391
856.061646,1401
856.179321,1410
856.296997,1374
856.414795,1422
856.53241,1372
856.650085,1369
856.767822,1375
856.885559,1402
857.003174,1407
857.120911,1361
857.238586,1371
857.356201,1349
857.473938,1386
857.591614,1399
857.709351,1371
857.826965,1361
857.944641,1389
858.062317,1354
858.179993,1377
858.297668,1395
858.415283,1385
858.532959,1381
858.650574,1386
858.768188,1410
858.885803,1374
859.003479,1395
859.121094,1415
859.23877,1355
859.356384,1356
859.473999,1347
859.591675,1363
859.709229,1384
859.826843,1361
859.944458,1346
860.062012,1338
860.179626,1340
860.297302,1381
860.414856,1341
860.532471,1332
860.650024,1369
860.767639,1314
860.885193,1350
861.002808,1342
861.120361,1376
861.237976,1368
861.35553,1373
861.473022,1328
861.590698,1355
861.708191,1356
861.825745,1354
861.943298,1350
862.060852,1337
862.178406,1351
862.295959,1327
862.413513,1311
862.531006,1339
862.64856,1332
862.766113,1355
862.883667,1327
863.00116,1384
863.118713,1318
863.236206,1355
863.353699,1337
863.471252,1332
863.588745,1326
863.706177,1335
863.82373,1343
863.941162,1316
864.058716,1338
864.176208,1353
864.29364,1340
864.411194,1366
864.528687,1338
864.646118,1378
864.763611,1343
864.881042,1357
864.998535,1351
865.116028,1372
865.233459,1336
865.350891,1352
865.468384,1332
865.585754,1371
865.703308,1345
865.820679,1367
865.938171,1324
866.055542,1372
866.173035,1359
866.290466,1374
866.407837,1342
866.52533,1394
866.6427,1294
866.760071,1370
866.877563,1359
866.994934,1354
867.112305,1374
867.229736,1343
867.347107,1315
867.464539,1397
867.58197,1364
867.699341,1358
867.81665,1349
867.934082,1343
868.051453,1362
868.168823,1394
868.286194,1314
868.403564,1351
868.520935,1361
868.638306,1319
868.755676,1376
868.872986,1355
868.990295,1376
869.107727,1373
869.225037,1347
869.342346,1318
869.459717,1329
869.577026,1383
869.694336,1364
869.811707,1367
869.929016,1375
870.046326,1402
870.163635,1347
870.280945,1348
870.398254,1352
870.515564,1383
870.632812,1344
870.750183,1371
870.867432,1346
870.984741,1349
871.102051,1378
871.219299,1361
871.336609,1384
871.453918,1385
871.571106,1345
871.688416,1392
871.805664,1377
871.922852,1366
872.040222,1370
872.157471,1388
872.274719,1347
872.391968,1406
872.509155,1403
872.626465,1373
872.743652,1415
872.860962,1337
872.978149,1364
873.095337,1369
873.212646,1395
873.329834,1374
873.44696,1417
873.564209,1352
873.681396,1393
873.798645,1369
873.915894,1362
874.03302,1379
874.150208,1381
874.267456,1361
874.384583,1388
874.501831,1338
874.618958,1380
874.736145,1358
874.853333,1397
874.970459,1397
875.087646,1354
875.204834,1373
875.32196,1397
875.439148,1372
875.556274,1361
875.673401,1373
875.790527,1351
875.907715,1337
876.024841,1338
876.141968,1344
876.259094,1355
876.376282,1365
876.493347,1346
876.610474,1339
876.7276,1364
876.844727,1371
876.961853,1372
877.078918,1371
877.195984,1368
877.313171,1376
877.430237,1350
877.547302,1380
877.664368,1379
877.781433,1384
877.898499,1298
878.015625,1347
878.13269,1373
878.249695,1382
878.366821,1372
878.483887,1348
878.600952,1378
878.717957,1339
878.834961,1424
878.952087,1351
879.069092,1366
879.186157,1345
879.303162,1379
879.420227,1375
879.537231,1355
879.654236,1367
879.77124,1341
879.888306,1337
880.005249,1372
880.122314,1347
880.239319,1344
880.356323,1390
880.473328,1349
880.590271,1337
880.707275,1382
880.824341,1381
880.941284,1368
881.058228,1360
881.175232,1393
881.292236,1370
881.40918,1332
881.526123,1388
881.643066,1353
881.760071,1349
881.877014,1355
881.993958,1362
882.11084,1353
882.227783,1370
882.344727,1330
882.46167,1377
882.578613,1346
882.695618,1378
882.812439,1368
882.929382,1376
883.046326,1387
883.163208,1395
883.280151,1368
883.397034,1374
883.513916,1380
883.630798,1352
883.747742,1359
883.864563,1403
883.981506,1358
884.098389,1378
884.21521,1366
884.332153,1424
884.448975,1388
884.565796,1342
884.682678,1366
884.7995,1380
884.916443,1376
885.033264,1423
885.150085,1425
885.266968,1426
885.383789,1443
885.500671,1468
885.617493,1452
885.734314,1454
885.851196,1429
885.967896,1438
886.084717,1405
886.201599,1459
886.318359,1441
886.435181,1422
886.552002,1410
886.668762,1432
886.785645,1425
886.902344,1414
887.019165,1423
887.135925,1432
887.252747,1441
887.369446,1424
887.486267,1395
887.603027,1374
887.719788,1426
887.836548,1388
887.953247,1424
888.070068,1345
888.186829,1405
888.303528,1379
888.420288,1414
888.536987,1345
888.653687,1372
888.770447,1400
888.887146,1380
889.003967,1372
889.120667,1414
889.237305,1420
889.354065,1379
889.470703,1418
889.587463,1388
889.704163,1391
889.820862,1330
889.937561,1370
890.054199,1407
890.170837,1384
890.287598,1402
890.404236,1386
890.520874,1397
890.637634,1420
890.754211,1412
890.87085,1334
890.987549,1411
891.104187,1438
891.220886,1361
891.337463,1417
891.454102,1415
891.57074,1372
891.687378,1355
891.804077,1398
891.920654,1367
892.037231,1377
892.15387,1414
892.270447,1379
892.387085,1400
892.503723,1406
892.6203,1412
892.736877,1399
892.853516,1390
892.970032,1416
893.08667,1364
893.203186,1394
893.319763,1374
893.43634,1422
893.552917,1422
893.669556,1356
893.786011,1394
893.902588,1374
894.019165,1382
894.135681,1399
894.252197,1400
894.368835,1435
894.485291,1411
894.601868,1423
894.718384,1411
894.8349,1398
894.951355,1382
895.067932,1399
895.184448,1391
895.300964,1396
895.417419,1403
895.533936,1433
895.650452,1423
895.766907,1382
895.883423,1422
895.999878,1418
896.116333,1398
896.232849,1381
896.349304,1367
896.465759,1432
896.582214,1376
896.698669,1420
896.815125,1399
896.931641,1426
897.048035,1389
897.164551,1405
897.280884,1422
897.397339,1405
897.513794,1398
897.630249,1415
897.746582,1398
897.863098,1426
897.979431,1389
898.095886,1403
898.212341,1426
898.328674,1370
898.445129,1419
898.561462,1410
898.677795,1378
898.794312,1403
898.910645,1381
899.026978,1413
899.143433,1440
899.259766,1406
899.37616,1416
899.492493,1407
899.608765,1417
899.725159,1407
899.841553,1402
899.957947,1424
900.07428,1450
900.190552,1421
900.306946,1433
900.423157,1421
900.53949,1398
900.655884,1430
900.772156,1438
900.888489,1429
901.004822,1426
901.121033,1408
901.237366,1413
901.353699,1412
901.46991,1410
901.586304,1439
901.702515,1407
901.818787,1451
901.93512,1414
902.051331,1443
902.167603,1444
902.283875,1462
902.400085,1423
902.516418,1454
902.632629,1440
902.74884,1498
902.865112,1485
902.981384,1464
903.097595,1468
903.213867,1457
903.330017,1489
903.446289,1488
903.5625,1492
903.67865,1477
903.794922,1454
903.911072,1426
904.027344,1464
904.143494,1425
904.259705,1504
904.375916,1460
904.492065,1414
904.608215,1491
904.724426,1471
904.840576,1422
904.956726,1468
905.072876,1436
905.189087,1423
905.305176,1443
905.421387,1424
905.537537,1453
905.653687,1395
905.769775,1455
905.885925,1467
906.002014,1427
906.118164,1441
906.234314,1365
906.350403,1411
906.466492,1400
906.582642,1436
906.69873,1426
906.814758,1476
906.930908,1466
907.046936,1431
907.163086,1427
907.279175,1432
907.395264,1404
907.511353,1450
907.62738,1467
907.743408,1455
907.859497,1446
907.975525,1444
908.091553,1433
908.207703,1443
908.32373,1462
908.439758,1440
908.555786,1458
908.671814,1427
908.787842,1464
908.90387,1454
909.019775,1470
909.135864,1473
909.251892,1436
909.367859,1477
909.483826,1442
909.599854,1438
909.715881,1455
909.831848,1428
909.947815,1452
910.063782,1431
910.179749,1445
910.295776,1473
910.411743,1477
910.527649,1461
910.643616,1405
910.759583,1471
910.875488,1494
910.991455,1424
911.107361,1448
911.223267,1474
911.339294,1429
911.4552,1421
911.571106,1468
911.687073,1430
911.802979,1483
911.918823,1459
912.034729,1424
912.150635,1478
912.266602,1473
912.382446,1470
912.498352,1425
912.614197,1459
912.730103,1472
912.846008,1431
