792.44574,4226
792.56488,4075
792.68396,3970
792.80304,3936
792.92218,3801
793.041199,3705
793.160339,3656
793.279419,3587
793.398499,3557
793.517578,3410
793.636658,3418
793.755737,3280
793.874817,3226
793.993896,3239
794.112976,3195
794.232056,3086
794.351074,3032
794.470215,2944
794.589233,2964
794.708313,2893
794.827393,2863
794.946411,2858
795.065552,2878
795.18457,2782
795.303589,2768
795.422668,2748
795.541687,2735
795.660767,2705
795.779846,2625
795.898865,2585
796.017883,2600
796.136963,2610
796.255981,2538
796.375061,2532
796.49408,2550
796.613037,2479
796.732117,2489
796.851135,2426
796.970154,2468
797.089233,2414
797.208191,2354
797.327271,2374
797.446228,2378
797.565186,2317
797.684265,2376
797.803223,2329
797.922241,2301
798.04126,2302
798.160278,2295
798.279297,2268
798.398315,2288
798.517273,2264
798.636292,2259
798.75531,2276
798.874268,2275
798.993286,2244
799.112244,2224
799.231323,2211
799.350281,2251
799.469238,2221
799.588257,2207
799.707153,2151
799.826111,2207
799.945129,2132
800.064087,2206
800.183044,2241
800.302063,2160
800.421021,2161
800.539978,2121
800.658936,2085
800.777893,2128
800.896912,2100
801.015747,2138
801.134705,2141
801.253723,2095
801.37262,2164
801.491638,2127
801.610535,2037
801.729492,2103
801.84845,2004
801.967407,2080
802.086243,2078
802.205261,2107
802.324158,2053
802.443115,2011
802.562073,2063
802.680969,2063
802.799927,2049
802.918762,2040
803.037659,2051
803.156677,2026
803.275574,2008
803.39447,2038
803.513428,1985
803.632263,2026
803.751221,2023
803.870117,2041
803.989014,1978
804.107971,2029
804.226746,1978
804.345642,2012
804.4646,1958
804.583496,1983
804.702393,1965
804.821228,1983
804.940125,1971
805.059021,1994
805.177917,1952
805.296814,2011
805.415649,1986
805.534546,1955
805.653442,1959
805.772278,2005
805.891113,1947
806.01001,1973
806.128906,1975
806.247742,1978
806.366577,1963
806.485413,2004
806.604309,2018
806.723145,1957
806.84198,1977
806.960876,1988
807.079712,2011
807.198486,1945
807.317383,2005
807.436218,1937
807.554993,1993
807.673889,1918
807.792725,1929
807.91156,1955
808.030396,1948
808.14917,1955
808.268005,1924
808.386841,1924
808.505676,1924
808.624451,1944
808.743286,1949
808.862122,1968
808.980896,1951
809.099731,1967
809.218506,1927
809.337341,1933
809.456116,1976
809.57489,1951
809.693726,1965
809.8125,1962
809.931274,1960
810.050049,1988
810.168884,1961
810.287659,1957
810.406372,1971
810.525269,1964
810.643982,1978
810.762756,1985
810.881531,1932
811.000305,1993
811.11908,1976
811.237854,1950
811.356567,1973
811.475403,2000
811.594116,2005
811.71283,1926
811.831604,2032
811.950378,1998
812.069153,2003
812.187927,2018
812.30658,2014
812.425415,1970
812.544128,1985
812.662781,1981
812.781616,1990
812.900269,1992
813.019043,1959
813.137756,1926
813.256531,1962
813.375244,1918
813.493896,1934
813.612671,1972
813.731384,1942
813.850037,1955
813.96875,1983
814.087524,1922
814.206238,1886
814.324951,1950
814.443604,1861
814.562256,1884
814.68103,1920
814.799683,1966
814.918335,1898
815.037109,1906
815.155762,1927
815.274475,1896
815.393188,1887
815.511841,1865
815.630554,1919
815.749146,1920
815.867859,1878
815.986572,1905
816.105164,1880
816.223877,1889
816.342529,1889
816.461182,1950
816.579895,1957
816.698486,1922
816.817139,1927
816.935791,1937
817.054504,1949
817.173096,1916
817.291748,1959
817.4104,1881
817.529053,1890
817.647644,1859
817.766235,1848
817.884949,1791
818.00354,1827
818.122192,1847
818.240845,1828
818.359436,1770
818.478088,1727
818.59668,1741
818.715271,1729
818.833923,1728
818.952515,1716
819.071106,1710
819.189758,1671
819.30835,1683
819.426941,1665
819.545532,1612
819.664124,1663
819.782715,1601
819.901306,1644
820.019897,1665
820.138489,1621
820.25708,1568
820.375671,1643
820.494202,1613
820.612732,1640
820.731384,1650
820.849915,1619
820.968506,1641
821.087097,1640
821.205627,1584
821.324158,1650
821.442749,1593
821.561279,1585
821.679871,1537
821.798401,1572
821.916931,1553
822.035461,1592
822.154053,1586
822.272583,1572
822.391174,1594
822.509583,1618
822.628174,1507
822.746704,1559
822.865234,1538
822.983765,1541
823.102295,1558
823.220825,1572
823.339294,1531
823.457825,1547
823.576355,1567
823.694824,1604
823.813354,1615
823.931885,1551
824.050354,1560
824.168884,1606
824.287354,1574
824.405823,1579
824.524353,1583
824.642822,1545
824.761353,1546
824.879822,1582
824.998291,1578
825.116699,1596
825.235291,1568
825.353699,1538
825.472168,1519
825.590637,1535
825.709106,1562
825.827576,1552
825.946045,1489
826.064453,1534
826.182983,1543
826.301392,1517
826.4198,1530
826.53833,1523
826.656738,1509
826.775208,1496
826.893677,1457
827.012024,1453
827.130493,1551
827.248962,1518
827.36731,1483
827.485779,1514
827.604248,1536
827.722595,1506
827.841064,1473
827.959412,1469
828.077942,1500
828.196289,1501
828.314636,1495
828.433105,1464
828.551514,1500
828.669861,1435
828.78833,1487
828.906677,1514
829.025085,1483
829.143433,1496
829.261841,1467
829.38031,1469
829.498657,1506
829.617004,1415
829.735413,1448
829.85376,1452
829.972107,1480
830.090515,1452
830.208862,1464
830.327209,1464
830.445557,1483
830.563904,1479
830.682312,1477
830.800659,1466
830.919006,1535
831.037354,1507
831.155701,1516
831.274048,1486
831.392395,1558
831.51062,1563
831.629028,1496
831.747314,1514
831.865662,1502
831.984009,1466
832.102356,1527
832.220642,1515
832.338928,1486
832.457275,1511
832.575623,1551
832.693909,1547
832.812134,1555
832.930481,1531
833.048828,1494
833.167114,1464
833.2854,1462
833.403687,1556
833.521973,1503
833.640259,1476
833.758545,1484
833.876831,1535
833.995056,1480
834.113281,1450
834.231628,1524
834.349915,1522
834.468201,1497
834.586426,1485
834.704651,1509
834.822998,1496
834.941162,1481
835.059448,1502
835.177673,1553
835.295959,1478
835.414246,1522
835.53241,1496
835.650635,1525
835.768921,1493
835.887146,1519
836.005371,1487
836.123596,1463
836.241821,1535
836.360046,1547
836.478271,1509
836.596497,1450
836.714722,1510
836.832886,1507
836.95105,1454
837.069336,1522
837.1875,1477
837.305725,1531
837.423889,1480
837.542053,1481
837.660339,1506
837.778503,1499
837.896667,1508
838.014832,1514
838.132996,1492
838.25116,1494
838.369385,1575
838.487488,1544
838.605713,1569
838.723877,1509
838.84198,1542
838.960205,1594
839.078308,1558
839.196472,1554
839.314636,1522
839.4328,1564
839.550964,1535
839.669067,1523
839.787231,1623
839.905396,1561
840.023499,1583
840.141602,1612
840.259766,1659
840.377869,1647
840.495972,1597
840.614136,1626
840.732239,1655
840.850342,1606
840.968445,1671
841.086548,1694
841.204651,1688
841.322754,1629
841.440918,1690
841.55896,1689
841.677002,1693
841.795166,1705
841.913208,1702
842.031311,1705
842.149353,1707
842.267456,1676
842.385498,1668
842.503601,1675
842.621643,1655
842.739746,1680
842.857788,1663
842.97583,1643
843.093933,1621
843.211975,1658
843.330017,1614
843.44812,1597
843.566101,1581
843.684204,1628
843.802246,1608
843.920227,1613
844.038269,1621
844.156311,1608
844.274292,1605
844.392395,1632
844.510376,1615
844.628357,1589
844.74646,1652
844.864441,1583
844.982422,1606
845.100403,1563
845.218384,1560
845.336426,1590
845.454468,1594
845.572449,1594
845.69043,1584
845.808411,1520
845.926453,1634
846.044373,1651
846.162354,1605
846.280396,1570
846.398315,1586
846.516296,1632
846.634216,1587
846.752197,1636
846.870178,1630
846.988098,1626
847.106079,1579
847.22406,1590
847.34198,1605
847.4599,1641
847.577881,1589
847.695801,1603
847.813782,1643
847.931641,1603
848.049561,1583
848.167603,1607
848.285461,1627
848.403381,1609
848.521362,1588
848.639221,1611
848.75708,1612
848.875,1586
848.99292,1571
849.110901,1599
849.22876,1662
849.34668,1646
849.464539,1589
849.582458,1607
849.700317,1590
849.818176,1626
849.936096,1597
850.053955,1643
850.171875,1580
850.289673,1655
850.407593,1628
850.525452,1618
850.643311,1600
850.761169,1562
850.878967,1602
850.996887,1601
851.114746,1565
851.232544,1598
851.350403,1595
851.468262,1618
851.58606,1588
851.703979,1553
851.821777,1610
851.939636,1580
852.057434,1588
852.175232,1605
852.293091,1609
852.410889,1622
852.528687,1683
852.646545,1698
852.764343,1723
852.88208,1711
852.999939,1736
853.117676,1672
853.235535,1628
853.353271,1615
853.471069,1608
853.588928,1610
853.706604,1610
853.824402,1597
853.9422,1593
854.059998,1607
854.177734,1621
854.295532,1653
854.413269,1640
854.531006,1614
854.648804,1620
854.766541,1671
854.884277,1595
855.002014,1645
855.119751,1641
855.237549,1616
855.355225,1621
855.473022,1644
855.590698,1609
855.708435,1645
855.826172,1690
855.943848,1603
856.061646,1651
856.179321,1669
856.296997,1666
856.414795,1664
856.53241,1672
856.650085,1634
856.767822,1695
856.885559,1768
857.003174,1693
857.120911,1741
857.238586,1714
857.356201,1752
857.473938,1741
857.591614,1673
857.709351,1669
857.826965,1698
857.944641,1696
858.062317,1729
858.179993,1626
858.297668,1721
858.415283,1685
858.532959,1663
858.650574,1649
858.768188,1718
858.885803,1696
859.003479,1687
859.121094,1711
859.23877,1670
859.356384,1680
859.473999,1648
859.591675,1626
859.709229,1655
859.826843,1615
859.944458,1641
860.062012,1637
860.179626,1609
860.297302,1616
860.414856,1615
860.532471,1587
860.650024,1617
860.767639,1631
860.885193,1548
861.002808,1610
861.120361,1630
861.237976,1604
861.35553,1591
861.473022,1635
861.590698,1606
861.708191,1575
861.825745,1602
861.943298,1569
862.060852,1587
862.178406,1577
862.295959,1533
862.413513,1465
862.531006,1494
862.64856,1506
862.766113,1516
862.883667,1553
863.00116,1512
863.118713,1478
863.236206,1497
863.353699,1515
863.471252,1483
863.588745,1566
863.706177,1514
863.82373,1569
863.941162,1537
864.058716,1568
864.176208,1525
864.29364,1578
864.411194,1569
864.528687,1553
864.646118,1493
864.763611,1525
864.881042,1540
864.998535,1526
865.116028,1497
865.233459,1471
865.350891,1448
865.468384,1501
865.585754,1500
865.703308,1512
865.820679,1487
865.938171,1480
866.055542,1463
866.173035,1491
866.290466,1479
866.407837,1506
866.52533,1508
866.6427,1515
866.760071,1452
866.877563,1531
866.994934,1507
867.112305,1546
867.229736,1493
867.347107,1541
867.464539,1520
867.58197,1521
867.699341,1564
867.81665,1533
867.934082,1517
868.051453,1542
868.168823,1555
868.286194,1519
868.403564,1495
868.520935,1545
868.638306,1561
868.755676,1570
868.872986,1574
868.990295,1553
869.107727,1574
869.225037,1547
869.342346,1543
869.459717,1573
869.577026,1594
869.694336,1572
869.811707,1566
869.929016,1599
870.046326,1637
870.163635,1601
870.280945,1550
870.398254,1646
870.515564,1657
870.632812,1632
870.750183,1647
870.867432,1666
870.984741,1660
871.102051,1690
871.219299,1695
871.336609,1711
871.453918,1711
871.571106,1681
871.688416,1702
871.805664,1731
871.922852,1719
872.040222,1703
872.157471,1741
872.274719,1680
872.391968,1667
872.509155,1741
872.626465,1707
872.743652,1736
872.860962,1703
872.978149,1672
873.095337,1668
873.212646,1675
873.329834,1645
873.44696,1666
873.564209,1704
873.681396,1687
873.798645,1631
873.915894,1659
874.03302,1669
874.150208,1667
874.267456,1749
874.384583,1705
874.501831,1737
874.618958,1755
874.736145,1725
874.853333,1720
874.970459,1757
875.087646,1766
875.204834,1703
875.32196,1679
875.439148,1739
875.556274,1655
875.673401,1679
875.790527,1660
875.907715,1662
876.024841,1655
876.141968,1649
876.259094,1648
876.376282,1677
876.493347,1651
876.610474,1647
876.7276,1625
876.844727,1599
876.961853,1624
877.078918,1640
877.195984,1608
877.313171,1644
877.430237,1635
877.547302,1582
877.664368,1548
877.781433,1584
877.898499,1585
878.015625,1623
878.13269,1573
878.249695,1600
878.366821,1570
878.483887,1540
878.600952,1563
878.717957,1557
878.834961,1611
878.952087,1536
879.069092,1546
879.186157,1544
879.303162,1543
879.420227,1526
879.537231,1520
879.654236,1513
879.77124,1483
879.888306,1517
880.005249,1505
880.122314,1503
880.239319,1474
880.356323,1499
880.473328,1488
880.590271,1478
880.707275,1409
880.824341,1467
880.941284,1460
881.058228,1449
881.175232,1485
881.292236,1505
881.40918,1491
881.526123,1510
881.643066,1463
881.760071,1492
881.877014,1464
881.993958,1498
882.11084,1514
882.227783,1425
882.344727,1494
882.46167,1452
882.578613,1552
882.695618,1464
882.812439,1480
882.929382,1484
883.046326,1513
883.163208,1456
883.280151,1484
883.397034,1470
883.513916,1490
883.630798,1523
883.747742,1507
883.864563,1531
883.981506,1513
884.098389,1503
884.21521,1541
884.332153,1567
884.448975,1570
884.565796,1644
884.682678,1665
884.7995,1699
884.916443,1707
885.033264,1807
885.150085,1809
885.266968,1903
885.383789,1891
885.500671,2011
885.617493,1983
885.734314,1975
885.851196,1932
885.967896,1948
886.084717,1948
886.201599,1940
886.318359,1900
886.435181,1926
886.552002,1891
886.668762,1864
886.785645,1822
886.902344,1851
887.019165,1799
887.135925,1849
887.252747,1805
887.369446,1805
887.486267,1761
887.603027,1747
887.719788,1688
887.836548,1681
887.953247,1683
888.070068,1578
888.186829,1578
888.303528,1559
888.420288,1544
888.536987,1527
888.653687,1528
888.770447,1488
888.887146,1491
889.003967,1468
889.120667,1441
889.237305,1448
889.354065,1414
889.470703,1450
889.587463,1447
889.704163,1426
889.820862,1447
889.937561,1436
890.054199,1381
890.170837,1453
890.287598,1448
890.404236,1412
890.520874,1456
890.637634,1430
890.754211,1447
890.87085,1399
890.987549,1412
891.104187,1433
891.220886,1452
891.337463,1444
891.454102,1433
891.57074,1395
891.687378,1454
891.804077,1433
891.920654,1435
892.037231,1463
892.15387,1457
892.270447,1474
892.387085,1489
892.503723,1473
892.6203,1474
892.736877,1448
892.853516,1452
892.970032,1477
893.08667,1435
893.203186,1434
893.319763,1411
893.43634,1474
893.552917,1418
893.669556,1466
893.786011,1444
893.902588,1426
894.019165,1449
894.135681,1438
894.252197,1469
894.368835,1423
894.485291,1430
894.601868,1437
894.718384,1439
894.8349,1402
894.951355,1464
895.067932,1448
895.184448,1409
895.300964,1409
895.417419,1415
895.533936,1429
895.650452,1441
895.766907,1412
895.883423,1428
895.999878,1433
896.116333,1404
896.232849,1450
896.349304,1420
896.465759,1432
896.582214,1427
896.698669,1452
896.815125,1453
896.931641,1422
897.048035,1438
897.164551,1437
897.280884,1457
897.397339,1439
897.513794,1432
897.630249,1447
897.746582,1445
897.863098,1445
897.979431,1422
898.095886,1442
898.212341,1401
898.328674,1453
898.445129,1434
898.561462,1448
898.677795,1464
898.794312,1441
898.910645,1450
899.026978,1429
899.143433,1428
899.259766,1459
899.37616,1436
899.492493,1476
899.608765,1446
899.725159,1469
899.841553,1463
899.957947,1446
900.07428,1482
900.190552,1414
900.306946,1439
900.423157,1438
900.53949,1453
900.655884,1431
900.772156,1466
900.888489,1466
901.004822,1489
901.121033,1447
901.237366,1494
901.353699,1484
901.46991,1480
901.586304,1525
901.702515,1487
901.818787,1539
901.93512,1547
902.051331,1549
902.167603,1600
902.283875,1635
902.400085,1670
902.516418,1633
902.632629,1705
902.74884,1728
902.865112,1747
902.981384,1706
903.097595,1733
903.213867,1712
903.330017,1723
903.446289,1679
903.5625,1652
903.67865,1623
903.794922,1637
903.911072,1620
904.027344,1608
904.143494,1550
904.259705,1543
904.375916,1532
904.492065,1552
904.608215,1589
904.724426,1485
904.840576,1486
904.956726,1451
905.072876,1519
905.189087,1475
905.305176,1454
905.421387,1437
905.537537,1497
905.653687,1462
905.769775,1445
905.885925,1423
906.002014,1438
906.118164,1457
906.234314,1435
906.350403,1473
906.466492,1470
906.582642,1442
906.69873,1419
906.814758,1446
906.930908,1384
907.046936,1402
907.163086,1414
907.279175,1413
907.395264,1441
907.511353,1396
907.62738,1418
907.743408,1440
907.859497,1419
907.975525,1447
908.091553,1409
908.207703,1439
908.32373,1390
908.439758,1437
908.555786,1411
908.671814,1401
908.787842,1438
908.90387,1468
909.019775,1417
909.135864,1371
909.251892,1451
909.367859,1412
909.483826,1451
909.599854,1434
909.715881,1464
909.831848,1415
909.947815,1433
910.063782,1431
910.179749,1417
910.295776,1445
910.411743,1443
910.527649,1405
910.643616,1471
910.759583,1449
910.875488,1456
910.991455,1463
911.107361,1438
911.223267,1426
911.339294,1440
911.4552,1457
911.571106,1400
911.687073,1422
911.802979,1401
911.918823,1379
912.034729,1424
912.150635,1435
912.266602,1438
912.382446,1428
912.498352,1416
912.614197,1404
912.730103,1404
912.846008,1371
792.44574,4289
792.56488,4163
792.68396,3994
792.80304,4004
792.92218,3890
793.041199,3659
793.160339,3699
793.279419,3633
793.398499,3503
793.517578,3472
793.636658,3408
793.755737,3303
793.874817,3318
793.993896,3282
794.112976,3176
794.232056,3115
794.351074,3049
794.470215,3052
794.589233,2999
794.708313,2901
794.827393,2913
794.946411,2859
795.065552,2856
795.18457,2771
795.303589,2837
795.422668,2758
795.541687,2741
795.660767,2712
795.779846,2710
795.898865,2622
796.017883,2586
796.136963,2669
796.255981,2547
796.375061,2504
796.49408,2546
796.613037,2558
796.732117,2462
796.851135,2517
796.970154,2398
797.089233,2415
797.208191,2408
797.327271,2445
797.446228,2386
797.565186,2392
797.684265,2391
797.803223,2333
797.922241,2335
798.04126,2341
798.160278,2277
798.279297,2269
798.398315,2296
798.517273,2323
798.636292,2253
798.75531,2258
798.874268,2254
798.993286,2271
799.112244,2240
799.231323,2254
799.350281,2263
799.469238,2297
799.588257,2242
799.707153,2176
799.826111,2216
799.945129,2219
800.064087,2211
800.183044,2217
800.302063,2235
800.421021,2212
800.539978,2200
800.658936,2171
800.777893,2233
800.896912,2129
801.015747,2112
801.134705,2149
801.253723,2179
801.37262,2141
801.491638,2100
801.610535,2117
801.729492,2100
801.84845,2140
801.967407,2049
802.086243,2126
802.205261,2073
802.324158,2113
802.443115,2061
802.562073,2098
802.680969,2087
802.799927,2075
802.918762,2080
803.037659,2052
803.156677,2076
803.275574,2053
803.39447,2095
803.513428,2034
803.632263,2042
803.751221,2055
803.870117,2061
803.989014,2001
804.107971,2017
804.226746,1988
804.345642,2062
804.4646,2040
804.583496,1990
804.702393,2053
804.821228,2015
804.940125,1996
805.059021,1965
805.177917,2050
805.296814,1971
805.415649,2036
805.534546,2055
805.653442,2009
805.772278,2029
805.891113,2018
806.01001,2065
806.128906,2058
806.247742,2042
806.366577,2003
806.485413,2029
806.604309,2026
806.723145,2004
806.84198,1976
806.960876,1969
807.079712,1986
807.198486,2017
807.317383,1993
807.436218,1970
807.554993,1955
807.673889,2022
807.792725,1997
807.91156,1965
808.030396,1972
808.14917,1997
808.268005,1962
808.386841,2010
808.505676,1985
808.624451,1976
808.743286,1980
808.862122,1983
808.980896,1962
809.099731,2007
809.218506,2024
809.337341,1920
809.456116,2025
809.57489,1961
809.693726,1974
809.8125,1981
809.931274,2002
810.050049,1925
810.168884,1990
810.287659,1951
810.406372,1990
810.525269,1952
810.643982,1961
810.762756,1954
810.881531,1988
811.000305,1936
811.11908,2003
811.237854,1975
811.356567,1933
811.475403,2053
811.594116,2005
811.71283,2007
811.831604,1995
811.950378,2004
812.069153,2049
812.187927,2016
812.30658,2034
812.425415,2025
812.544128,2029
812.662781,1991
812.781616,1960
812.900269,2024
813.019043,2032
813.137756,2018
813.256531,2004
813.375244,1988
813.493896,1968
813.612671,1983
813.731384,1975
813.850037,1984
813.96875,1909
814.087524,1924
814.206238,1925
814.324951,1950
814.443604,1969
814.562256,1938
814.68103,1951
814.799683,1981
814.918335,1924
815.037109,1932
815.155762,1936
815.274475,1904
815.393188,1950
815.511841,1926
815.630554,1940
815.749146,1894
815.867859,1959
815.986572,1911
816.105164,1908
816.223877,1848
816.342529,1941
816.461182,1926
816.579895,1964
816.698486,1918
816.817139,1959
816.935791,1959
817.054504,1981
817.173096,1989
817.291748,1909
817.4104,1994
817.529053,1959
817.647644,1888
817.766235,1885
817.884949,1856
818.00354,1841
818.122192,1821
818.240845,1872
818.359436,1778
818.478088,1776
818.59668,1766
818.715271,1784
818.833923,1731
818.952515,1744
819.071106,1731
819.189758,1714
819.30835,1649
819.426941,1738
819.545532,1683
819.664124,1656
819.782715,1726
819.901306,1659
820.019897,1671
820.138489,1675
820.25708,1641
820.375671,1677
820.494202,1659
820.612732,1655
820.731384,1672
820.849915,1644
820.968506,1643
821.087097,1656
821.205627,1678
821.324158,1627
821.442749,1653
821.561279,1611
821.679871,1572
821.798401,1529
821.916931,1604
822.035461,1607
822.154053,1607
822.272583,1620
822.391174,1617
822.509583,1581
822.628174,1572
822.746704,1584
822.865234,1574
822.983765,1539
823.102295,1583
823.220825,1561
823.339294,1536
823.457825,1553
823.576355,1510
823.694824,1586
823.813354,1572
823.931885,1602
824.050354,1588
824.168884,1562
824.287354,1616
824.405823,1581
824.524353,1593
824.642822,1570
824.761353,1599
824.879822,1624
824.998291,1556
825.116699,1594
825.235291,1590
825.353699,1602
825.472168,1547
825.590637,1580
825.709106,1547
825.827576,1541
825.946045,1593
826.064453,1539
826.182983,1577
826.301392,1528
826.4198,1532
826.53833,1527
826.656738,1536
826.775208,1526
826.893677,1507
827.012024,1494
827.130493,1522
827.248962,1535
827.36731,1519
827.485779,1537
827.604248,1543
827.722595,1468
827.841064,1502
827.959412,1506
828.077942,1494
828.196289,1533
828.314636,1484
828.433105,1476
828.551514,1541
828.669861,1448
828.78833,1516
828.906677,1460
829.025085,1511
829.143433,1499
829.261841,1481
829.38031,1511
829.498657,1478
829.617004,1508
829.735413,1573
829.85376,1510
829.972107,1480
830.090515,1471
830.208862,1516
830.327209,1476
830.445557,1512
830.563904,1510
830.682312,1514
830.800659,1524
830.919006,1510
831.037354,1535
831.155701,1569
831.274048,1516
831.392395,1533
831.51062,1546
831.629028,1530
831.747314,1524
831.865662,1527
831.984009,1518
832.102356,1531
832.220642,1543
832.338928,1544
832.457275,1527
832.575623,1543
832.693909,1525
832.812134,1542
832.930481,1545
833.048828,1526
833.167114,1494
833.2854,1519
833.403687,1502
833.521973,1527
833.640259,1474
833.758545,1536
833.876831,1486
833.995056,1547
834.113281,1545
834.231628,1560
834.349915,1520
834.468201,1519
834.586426,1500
834.704651,1521
834.822998,1563
834.941162,1473
835.059448,1520
835.177673,1524
835.295959,1541
835.414246,1542
835.53241,1551
835.650635,1508
835.768921,1557
835.887146,1549
836.005371,1501
836.123596,1524
836.241821,1455
836.360046,1483
836.478271,1561
836.596497,1540
836.714722,1510
836.832886,1549
836.95105,1487
837.069336,1504
837.1875,1543
837.305725,1539
837.423889,1531
837.542053,1479
837.660339,1473
837.778503,1578
837.896667,1531
838.014832,1525
838.132996,1551
838.25116,1565
838.369385,1519
838.487488,1587
838.605713,1541
838.723877,1526
838.84198,1571
838.960205,1548
839.078308,1563
839.196472,1583
839.314636,1568
839.4328,1573
839.550964,1565
839.669067,1589
839.787231,1604
839.905396,1630
840.023499,1605
840.141602,1606
840.259766,1699
840.377869,1641
840.495972,1655
840.614136,1657
840.732239,1670
840.850342,1606
840.968445,1671
841.086548,1649
841.204651,1665
841.322754,1643
841.440918,1725
841.55896,1703
841.677002,1700
841.795166,1703
841.913208,1722
842.031311,1730
842.149353,1703
842.267456,1662
842.385498,1675
842.503601,1651
842.621643,1688
842.739746,1670
842.857788,1670
842.97583,1697
843.093933,1684
843.211975,1675
843.330017,1644
843.44812,1698
843.566101,1687
843.684204,1659
843.802246,1685
843.920227,1612
844.038269,1670
844.156311,1668
844.274292,1640
844.392395,1579
844.510376,1632
844.628357,1596
844.74646,1618
844.864441,1612
844.982422,1561
845.100403,1638
845.218384,1631
845.336426,1596
845.454468,1608
845.572449,1589
845.69043,1587
845.808411,1591
845.926453,1619
846.044373,1599
846.162354,1633
846.280396,1610
846.398315,1640
846.516296,1635
846.634216,1603
846.752197,1644
846.870178,1599
846.988098,1670
847.106079,1607
847.22406,1660
847.34198,1632
847.4599,1665
847.577881,1609
847.695801,1644
847.813782,1649
847.931641,1606
848.049561,1607
848.167603,1633
848.285461,1627
848.403381,1578
848.521362,1605
848.639221,1626
848.75708,1623
848.875,1617
848.99292,1601
849.110901,1616
849.22876,1644
849.34668,1675
849.464539,1603
849.582458,1660
849.700317,1683
849.818176,1603
849.936096,1603
850.053955,1636
850.171875,1633
850.289673,1616
850.407593,1656
850.525452,1630
850.643311,1608
850.761169,1643
850.878967,1632
850.996887,1622
851.114746,1620
851.232544,1626
851.350403,1595
851.468262,1611
851.58606,1629
851.703979,1682
851.821777,1608
851.939636,1636
852.057434,1629
852.175232,1618
852.293091,1636
852.410889,1656
852.528687,1676
852.646545,1703
852.764343,1717
852.88208,1698
852.999939,1662
853.117676,1693
853.235535,1654
853.353271,1595
853.471069,1633
853.588928,1617
853.706604,1618
853.824402,1631
853.9422,1659
854.059998,1649
854.177734,1632
854.295532,1653
854.413269,1648
854.531006,1660
854.648804,1649
854.766541,1666
854.884277,1669
855.002014,1654
855.119751,1612
855.237549,1689
855.355225,1675
855.473022,1669
855.590698,1681
855.708435,1708
855.826172,1663
855.943848,1650
856.061646,1641
856.179321,1637
856.296997,1700
856.414795,1684
856.53241,1655
856.650085,1674
856.767822,1698
856.885559,1722
857.003174,1738
857.120911,1733
857.238586,1753
857.356201,1708
857.473938,1771
857.591614,1735
857.709351,1714
857.826965,1704
857.944641,1692
858.062317,1706
858.179993,1698
858.297668,1696
858.415283,1744
858.532959,1723
858.650574,1721
858.768188,1674
858.885803,1699
859.003479,1671
859.121094,1674
859.23877,1656
859.356384,1691
859.473999,1654
859.591675,1677
859.709229,1643
859.826843,1650
859.944458,1642
860.062012,1639
860.179626,1609
860.297302,1612
860.414856,1627
860.532471,1614
860.650024,1590
860.767639,1625
860.885193,1573
861.002808,1630
861.120361,1600
861.237976,1612
861.35553,1627
861.473022,1630
861.590698,1646
861.708191,1594
861.825745,1665
861.943298,1583
862.060852,1584
862.178406,1553
862.295959,1545
862.413513,1522
862.531006,1538
862.64856,1528
862.766113,1524
862.883667,1555
863.00116,1552
863.118713,1555
863.236206,1548
863.353699,1507
863.471252,1531
863.588745,1566
863.706177,1573
863.82373,1538
863.941162,1531
864.058716,1537
864.176208,1590
864.29364,1537
864.411194,1560
864.528687,1536
864.646118,1548
864.763611,1507
864.881042,1497
864.998535,1517
865.116028,1541
865.233459,1548
865.350891,1531
865.468384,1517
865.585754,1508
865.703308,1517
865.820679,1537
865.938171,1533
866.055542,1510
866.173035,1520
866.290466,1591
866.407837,1522
866.52533,1552
866.6427,1542
866.760071,1560
866.877563,1580
866.994934,1585
867.112305,1570
867.229736,1519
867.347107,1549
867.464539,1553
867.58197,1575
867.699341,1537
867.81665,1578
867.934082,1539
868.051453,1572
868.168823,1553
868.286194,1537
868.403564,1578
868.520935,1550
868.638306,1525
868.755676,1546
868.872986,1579
868.990295,1577
869.107727,1573
869.225037,1627
869.342346,1580
869.459717,1592
869.577026,1611
869.694336,1587
869.811707,1585
869.929016,1591
870.046326,1583
870.163635,1640
870.280945,1639
870.398254,1605
870.515564,1634
870.632812,1647
870.750183,1655
870.867432,1697
870.984741,1642
871.102051,1750
871.219299,1706
871.336609,1705
871.453918,1685
871.571106,1695
871.688416,1747
871.805664,1732
871.922852,1708
872.040222,1715
872.157471,1754
872.274719,1694
872.391968,1710
872.509155,1741
872.626465,1757
872.743652,1690
872.860962,1710
872.978149,1693
873.095337,1673
873.212646,1683
873.329834,1678
873.44696,1708
873.564209,1660
873.681396,1720
873.798645,1690
873.915894,1687
874.03302,1696
874.150208,1660
874.267456,1704
874.384583,1735
874.501831,1716
874.618958,1753
874.736145,1742
874.853333,1757
874.970459,1712
875.087646,1733
875.204834,1765
875.32196,1725
875.439148,1728
875.556274,1676
875.673401,1687
875.790527,1700
875.907715,1684
876.024841,1663
876.141968,1676
876.259094,1645
876.376282,1632
876.493347,1686
876.610474,1643
876.7276,1669
876.844727,1627
876.961853,1632
877.078918,1633
877.195984,1621
877.313171,1667
877.430237,1626
877.547302,1627
877.664368,1600
877.781433,1638
877.898499,1584
878.015625,1626
878.13269,1622
878.249695,1634
878.366821,1591
878.483887,1544
878.600952,1552
878.717957,1571
878.834961,1551
878.952087,1580
879.069092,1519
879.186157,1568
879.303162,1579
879.420227,1566
879.537231,1587
879.654236,1547
879.77124,1532
879.888306,1509
880.005249,1540
880.122314,1495
880.239319,1535
880.356323,1506
880.473328,1512
880.590271,1463
880.707275,1501
880.824341,1564
880.941284,1569
881.058228,1498
881.175232,1537
881.292236,1500
881.40918,1490
881.526123,1483
881.643066,1504
881.760071,1499
881.877014,1480
881.993958,1531
882.11084,1481
882.227783,1492
882.344727,1493
882.46167,1499
882.578613,1491
882.695618,1503
882.812439,1525
882.929382,1508
883.046326,1486
883.163208,1511
883.280151,1557
883.397034,1515
883.513916,1535
883.630798,1565
883.747742,1529
883.864563,1584
883.981506,1544
884.098389,1573
884.21521,1612
884.332153,1600
884.448975,1605
884.565796,1663
884.682678,1633
884.7995,1733
884.916443,1730
885.033264,1802
885.150085,1876
885.266968,1928
885.383789,1980
885.500671,1972
885.617493,1995
885.734314,1999
885.851196,1928
885.967896,1968
886.084717,2003
886.201599,1886
886.318359,1959
886.435181,1898
886.552002,1901
886.668762,1892
886.785645,1852
886.902344,1858
887.019165,1854
887.135925,1822
887.252747,1839
887.369446,1847
887.486267,1800
887.603027,1747
887.719788,1736
887.836548,1705
887.953247,1653
888.070068,1680
888.186829,1606
888.303528,1615
888.420288,1568
888.536987,1546
888.653687,1549
888.770447,1505
888.887146,1520
889.003967,1517
889.120667,1514
889.237305,1487
889.354065,1489
889.470703,1464
889.587463,1479
889.704163,1457
889.820862,1493
889.937561,1478
890.054199,1476
890.170837,1446
890.287598,1425
890.404236,1434
890.520874,1454
890.637634,1474
890.754211,1467
890.87085,1471
890.987549,1483
891.104187,1473
891.220886,1482
891.337463,1537
891.454102,1501
891.57074,1509
891.687378,1520
891.804077,1504
891.920654,1477
892.037231,1517
892.15387,1510
892.270447,1521
892.387085,1471
892.503723,1492
892.6203,1493
892.736877,1461
892.853516,1457
892.970032,1438
893.08667,1492
893.203186,1426
893.319763,1456
893.43634,1472
893.552917,1469
893.669556,1473
893.786011,1456
893.902588,1469
894.019165,1435
894.135681,1458
894.252197,1488
894.368835,1484
894.485291,1454
894.601868,1480
894.718384,1512
894.8349,1420
894.951355,1446
895.067932,1492
895.184448,1407
895.300964,1477
895.417419,1464
895.533936,1447
895.650452,1473
895.766907,1474
895.883423,1488
895.999878,1465
896.116333,1474
896.232849,1426
896.349304,1432
896.465759,1470
896.582214,1483
896.698669,1388
896.815125,1449
896.931641,1452
897.048035,1467
897.164551,1457
897.280884,1462
897.397339,1458
897.513794,1455
897.630249,1459
897.746582,1478
897.863098,1474
897.979431,1438
898.095886,1464
898.212341,1460
898.328674,1475
898.445129,1459
898.561462,1449
898.677795,1499
898.794312,1467
898.910645,1478
899.026978,1468
899.143433,1530
899.259766,1499
899.37616,1478
899.492493,1494
899.608765,1529
899.725159,1440
899.841553,1482
899.957947,1500
900.07428,1490
900.190552,1458
900.306946,1516
900.423157,1472
900.53949,1468
900.655884,1507
900.772156,1492
900.888489,1477
901.004822,1507
901.121033,1495
901.237366,1526
901.353699,1478
901.46991,1523
901.586304,1553
901.702515,1571
901.818787,1560
901.93512,1600
902.051331,1560
902.167603,1587
902.283875,1636
902.400085,1659
902.516418,1690
902.632629,1698
902.74884,1694
902.865112,1768
902.981384,1745
903.097595,1732
903.213867,1721
903.330017,1678
903.446289,1685
903.5625,1676
903.67865,1674
903.794922,1680
903.911072,1635
904.027344,1625
904.143494,1583
904.259705,1597
904.375916,1599
904.492065,1568
904.608215,1550
904.724426,1515
904.840576,1524
904.956726,1509
905.072876,1514
905.189087,1522
905.305176,1517
905.421387,1468
905.537537,1503
905.653687,1483
905.769775,1468
905.885925,1455
906.002014,1510
906.118164,1486
906.234314,1483
906.350403,1465
906.466492,1464
906.582642,1498
906.69873,1485
906.814758,1483
906.930908,1450
907.046936,1434
907.163086,1490
907.279175,1400
907.395264,1478
907.511353,1490
907.62738,1433
907.743408,1446
907.859497,1415
907.975525,1494
908.091553,1471
908.207703,1396
908.32373,1450
908.439758,1443
908.555786,1459
908.671814,1475
908.787842,1463
908.90387,1494
909.019775,1444
909.135864,1439
909.251892,1464
909.367859,1499
909.483826,1476
909.599854,1497
909.715881,1476
909.831848,1484
909.947815,1436
910.063782,1494
910.179749,1473
910.295776,1467
910.411743,1480
910.527649,1472
910.643616,1447
910.759583,1469
910.875488,1487
910.991455,1503
911.107361,1452
911.223267,1473
911.339294,1473
911.4552,1447
911.571106,1471
911.687073,1451
911.802979,1459
911.918823,1464
912.034729,1442
912.150635,1460
912.266602,1447
912.382446,1456
912.498352,1413
912.614197,1472
912.730103,1469
912.846008,1448
792.44574,4254
792.56488,4118
792.68396,4113
792.80304,3893
792.92218,3789
793.041199,3720
793.160339,3616
793.279419,3688
793.398499,3506
793.517578,3466
793.636658,3396
793.755737,3365
793.874817,3318
793.993896,3198
794.112976,3123
794.232056,3099
794.351074,3039
794.470215,3058
794.589233,2947
794.708313,2960
794.827393,2888
794.946411,2906
795.065552,2864
795.18457,2839
795.303589,2802
795.422668,2782
795.541687,2765
795.660767,2716
795.779846,2721
795.898865,2700
796.017883,2649
796.136963,2611
796.255981,2540
796.375061,2542
796.49408,2554
796.613037,2564
796.732117,2501
796.851135,2467
796.970154,2404
797.089233,2421
797.208191,2441
797.327271,2400
797.446228,2379
797.565186,2387
797.684265,2410
797.803223,2297
797.922241,2290
798.04126,2321
798.160278,2310
798.279297,2340
798.398315,2314
798.517273,2315
798.636292,2361
798.75531,2288
798.874268,2254
798.993286,2247
799.112244,2272
799.231323,2294
799.350281,2230
799.469238,2236
799.588257,2212
799.707153,2243
799.826111,2268
799.945129,2209
800.064087,2272
800.183044,2157
800.302063,2243
800.421021,2170
800.539978,2205
800.658936,2210
800.777893,2179
800.896912,2174
801.015747,2180
801.134705,2131
801.253723,2154
801.37262,2139
801.491638,2182
801.610535,2095
801.729492,2118
801.84845,2123
801.967407,2074
802.086243,2051
802.205261,2094
802.324158,2118
802.443115,2074
802.562073,2081
802.680969,2069
802.799927,2099
802.918762,2069
803.037659,2039
803.156677,2061
803.275574,2066
803.39447,2108
803.513428,2051
803.632263,2085
803.751221,2038
803.870117,2056
803.989014,2058
804.107971,2032
804.226746,2077
804.345642,2043
804.4646,2056
804.583496,1965
804.702393,2009
804.821228,2001
804.940125,2033
805.059021,1996
805.177917,1982
805.296814,2038
805.415649,1987
805.534546,1962
805.653442,2051
805.772278,1992
805.891113,2034
806.01001,2052
806.128906,2006
806.247742,1987
806.366577,2002
806.485413,2003
806.604309,1986
806.723145,1973
806.84198,2005
806.960876,1971
807.079712,1941
807.198486,2033
807.317383,1985
807.436218,1985
807.554993,1965
807.673889,2005
807.792725,2018
807.91156,2006
808.030396,1985
808.14917,1937
808.268005,2007
808.386841,1930
808.505676,2023
808.624451,1953
808.743286,1959
808.862122,1975
808.980896,1975
809.099731,1966
809.218506,1979
809.337341,1949
809.456116,1978
809.57489,2000
809.693726,1998
809.8125,1978
809.931274,1966
810.050049,1952
810.168884,2013
810.287659,1985
810.406372,1960
810.525269,1944
810.643982,1960
810.762756,1997
810.881531,1984
811.000305,2040
811.11908,2009
811.237854,1979
811.356567,1978
811.475403,2034
811.594116,1935
811.71283,2017
811.831604,2017
811.950378,2024
812.069153,2021
812.187927,2059
812.30658,1989
812.425415,2063
812.544128,2006
812.662781,2026
812.781616,2016
812.900269,2026
813.019043,1994
813.137756,2000
813.256531,1963
813.375244,2016
813.493896,1959
813.612671,1975
813.731384,1956
813.850037,1950
813.96875,1907
814.087524,1972
814.206238,1922
814.324951,1945
814.443604,1944
814.562256,1965
814.68103,1909
814.799683,1929
814.918335,1950
815.037109,1913
815.155762,1937
815.274475,1958
815.393188,1928
815.511841,1941
815.630554,1958
815.749146,1915
815.867859,1912
815.986572,1845
816.105164,1921
816.223877,1890
816.342529,1936
816.461182,1879
816.579895,1998
816.698486,1962
816.817139,1957
816.935791,1979
817.054504,1963
817.173096,2020
817.291748,2012
817.4104,1948
817.529053,1954
817.647644,1914
817.766235,1918
817.884949,1856
818.00354,1793
818.122192,1876
818.240845,1812
818.359436,1765
818.478088,1775
818.59668,1797
818.715271,1724
818.833923,1743
818.952515,1681
819.071106,1725
819.189758,1677
819.30835,1729
819.426941,1739
819.545532,1689
819.664124,1751
819.782715,1647
819.901306,1688
820.019897,1654
820.138489,1661
820.25708,1690
820.375671,1660
820.494202,1692
820.612732,1657
820.731384,1670
820.849915,1661
820.968506,1630
821.087097,1666
821.205627,1630
821.324158,1664
821.442749,1630
821.561279,1571
821.679871,1626
821.798401,1641
821.916931,1624
822.035461,1643
822.154053,1553
822.272583,1638
822.391174,1589
822.509583,1596
822.628174,1609
822.746704,1588
822.865234,1609
822.983765,1516
823.102295,1568
823.220825,1559
823.339294,1574
823.457825,1567
823.576355,1568
823.694824,1641
823.813354,1558
823.931885,1572
824.050354,1620
824.168884,1586
824.287354,1572
824.405823,1601
824.524353,1555
824.642822,1597
824.761353,1557
824.879822,1591
824.998291,1620
825.116699,1626
825.235291,1565
825.353699,1576
825.472168,1578
825.590637,1558
825.709106,1561
825.827576,1578
825.946045,1573
826.064453,1550
826.182983,1525
826.301392,1566
826.4198,1533
826.53833,1543
826.656738,1499
826.775208,1499
826.893677,1518
827.012024,1540
827.130493,1536
827.248962,1558
827.36731,1546
827.485779,1564
827.604248,1543
827.722595,1528
827.841064,1500
827.959412,1514
828.077942,1515
828.196289,1518
828.314636,1505
828.433105,1515
828.551514,1491
828.669861,1471
828.78833,1497
828.906677,1470
829.025085,1525
829.143433,1490
829.261841,1503
829.38031,1497
829.498657,1475
829.617004,1526
829.735413,1495
829.85376,1478
829.972107,1494
830.090515,1467
830.208862,1518
830.327209,1497
830.445557,1527
830.563904,1524
830.682312,1464
830.800659,1502
830.919006,1516
831.037354,1544
831.155701,1516
831.274048,1568
831.392395,1596
831.51062,1516
831.629028,1517
831.747314,1523
831.865662,1545
831.984009,1482
832.102356,1525
832.220642,1569
832.338928,1550
832.457275,1558
832.575623,1552
832.693909,1540
832.812134,1541
832.930481,1545
833.048828,1526
833.167114,1500
833.2854,1477
833.403687,1509
833.521973,1547
833.640259,1533
833.758545,1489
833.876831,1497
833.995056,1524
834.113281,1540
834.231628,1553
834.349915,1509
834.468201,1550
834.586426,1524
834.704651,1556
834.822998,1493
834.941162,1504
835.059448,1510
835.177673,1541
835.295959,1520
835.414246,1540
835.53241,1513
835.650635,1542
835.768921,1529
835.887146,1525
836.005371,1494
836.123596,1506
836.241821,1521
836.360046,1541
836.478271,1521
836.596497,1549
836.714722,1519
836.832886,1499
836.95105,1504
837.069336,1508
837.1875,1510
837.305725,1548
837.423889,1552
837.542053,1514
837.660339,1508
837.778503,1582
837.896667,1532
838.014832,1503
838.132996,1530
838.25116,1541
838.369385,1542
838.487488,1548
838.605713,1526
838.723877,1574
838.84198,1543
838.960205,1641
839.078308,1635
839.196472,1558
839.314636,1567
839.4328,1577
839.550964,1566
839.669067,1559
839.787231,1592
839.905396,1609
840.023499,1623
840.141602,1573
840.259766,1616
840.377869,1619
840.495972,1672
840.614136,1647
840.732239,1623
840.850342,1680
840.968445,1658
841.086548,1672
841.204651,1695
841.322754,1710
841.440918,1667
841.55896,1710
841.677002,1760
841.795166,1712
841.913208,1717
842.031311,1670
842.149353,1727
842.267456,1702
842.385498,1700
842.503601,1684
842.621643,1668
842.739746,1684
842.857788,1668
842.97583,1693
843.093933,1671
843.211975,1622
843.330017,1627
843.44812,1661
843.566101,1670
843.684204,1682
843.802246,1657
843.920227,1624
844.038269,1621
844.156311,1658
844.274292,1633
844.392395,1626
844.510376,1608
844.628357,1613
844.74646,1617
844.864441,1609
844.982422,1606
845.100403,1604
845.218384,1637
845.336426,1541
845.454468,1622
845.572449,1621
845.69043,1581
845.808411,1603
845.926453,1625
846.044373,1590
846.162354,1629
846.280396,1632
846.398315,1594
846.516296,1648
846.634216,1621
846.752197,1578
846.870178,1636
846.988098,1644
847.106079,1561
847.22406,1633
847.34198,1677
847.4599,1643
847.577881,1632
847.695801,1621
847.813782,1629
847.931641,1634
848.049561,1634
848.167603,1604
848.285461,1599
848.403381,1616
848.521362,1624
848.639221,1616
848.75708,1591
848.875,1607
848.99292,1572
849.110901,1635
849.22876,1557
849.34668,1680
849.464539,1620
849.582458,1634
849.700317,1629
849.818176,1660
849.936096,1609
850.053955,1648
850.171875,1635
850.289673,1639
850.407593,1647
850.525452,1641
850.643311,1643
850.761169,1642
850.878967,1651
850.996887,1591
851.114746,1605
851.232544,1612
851.350403,1650
851.468262,1611
851.58606,1608
851.703979,1613
851.821777,1639
851.939636,1565
852.057434,1599
852.175232,1598
852.293091,1595
852.410889,1655
852.528687,1691
852.646545,1727
852.764343,1743
852.88208,1727
852.999939,1666
853.117676,1696
853.235535,1665
853.353271,1669
853.471069,1644
853.588928,1614
853.706604,1654
853.824402,1638
853.9422,1625
854.059998,1599
854.177734,1577
854.295532,1671
854.413269,1632
854.531006,1623
854.648804,1649
854.766541,1675
854.884277,1670
855.002014,1667
855.119751,1622
855.237549,1685
855.355225,1647
855.473022,1662
855.590698,1641
855.708435,1643
855.826172,1714
855.943848,1702
856.061646,1668
856.179321,1636
856.296997,1658
856.414795,1675
856.53241,1677
856.650085,1741
856.767822,1674
856.885559,1747
857.003174,1725
857.120911,1745
857.238586,1773
857.356201,1712
857.473938,1719
857.591614,1746
857.709351,1728
857.826965,1702
857.944641,1712
858.062317,1710
858.179993,1751
858.297668,1733
858.415283,1715
858.532959,1734
858.650574,1698
858.768188,1700
858.885803,1712
859.003479,1697
859.121094,1667
859.23877,1694
859.356384,1673
859.473999,1654
859.591675,1614
859.709229,1629
859.826843,1673
859.944458,1612
860.062012,1607
860.179626,1655
860.297302,1637
860.414856,1582
860.532471,1621
860.650024,1630
860.767639,1593
860.885193,1602
861.002808,1638
861.120361,1652
861.237976,1623
861.35553,1603
861.473022,1595
861.590698,1616
861.708191,1624
861.825745,1642
861.943298,1621
862.060852,1566
862.178406,1558
862.295959,1564
862.413513,1557
862.531006,1540
862.64856,1538
862.766113,1556
862.883667,1519
863.00116,1505
863.118713,1544
863.236206,1516
863.353699,1560
863.471252,1555
863.588745,1516
863.706177,1551
863.82373,1563
863.941162,1598
864.058716,1556
864.176208,1575
864.29364,1553
864.411194,1547
864.528687,1522
864.646118,1535
864.763611,1523
864.881042,1524
864.998535,1494
865.116028,1525
865.233459,1547
865.350891,1564
865.468384,1530
865.585754,1525
865.703308,1513
865.820679,1500
865.938171,1583
866.055542,1539
866.173035,1475
866.290466,1543
866.407837,1558
866.52533,1514
866.6427,1553
866.760071,1551
866.877563,1522
866.994934,1515
867.112305,1598
867.229736,1563
867.347107,1585
867.464539,1540
867.58197,1545
867.699341,1575
867.81665,1548
867.934082,1558
868.051453,1545
868.168823,1580
868.286194,1542
868.403564,1552
868.520935,1545
868.638306,1578
868.755676,1537
868.872986,1572
868.990295,1524
869.107727,1590
869.225037,1599
869.342346,1579
869.459717,1605
869.577026,1624
869.694336,1622
869.811707,1628
869.929016,1654
870.046326,1638
870.163635,1632
870.280945,1658
870.398254,1691
870.515564,1631
870.632812,1602
870.750183,1670
870.867432,1649
870.984741,1674
871.102051,1679
871.219299,1722
871.336609,1713
871.453918,1687
871.571106,1738
871.688416,1720
871.805664,1680
871.922852,1745
872.040222,1720
872.157471,1742
872.274719,1764
872.391968,1738
872.509155,1727
872.626465,1729
872.743652,1708
872.860962,1678
872.978149,1663
873.095337,1694
873.212646,1684
873.329834,1719
873.44696,1658
873.564209,1684
873.681396,1658
873.798645,1689
873.915894,1664
874.03302,1668
874.150208,1693
874.267456,1743
874.384583,1737
874.501831,1740
874.618958,1773
874.736145,1791
874.853333,1747
874.970459,1777
875.087646,1728
875.204834,1762
875.32196,1719
875.439148,1722
875.556274,1722
875.673401,1692
875.790527,1693
875.907715,1692
876.024841,1658
876.141968,1682
876.259094,1649
876.376282,1640
876.493347,1643
876.610474,1631
876.7276,1615
876.844727,1622
876.961853,1667
877.078918,1634
877.195984,1631
877.313171,1640
877.430237,1633
877.547302,1653
877.664368,1610
877.781433,1592
877.898499,1562
878.015625,1613
878.13269,1641
878.249695,1615
878.366821,1607
878.483887,1595
878.600952,1607
878.717957,1554
878.834961,1598
878.952087,1600
879.069092,1581
879.186157,1563
879.303162,1558
879.420227,1530
879.537231,1568
879.654236,1533
879.77124,1533
879.888306,1528
880.005249,1533
880.122314,1492
880.239319,1562
880.356323,1548
880.473328,1512
880.590271,1498
880.707275,1481
880.824341,1522
880.941284,1522
881.058228,1517
881.175232,1494
881.292236,1511
881.40918,1534
881.526123,1473
881.643066,1485
881.760071,1495
881.877014,1510
881.993958,1506
882.11084,1527
882.227783,1480
882.344727,1526
882.46167,1524
882.578613,1451
882.695618,1507
882.812439,1501
882.929382,1528
883.046326,1483
883.163208,1500
883.280151,1531
883.397034,1538
883.513916,1502
883.630798,1515
883.747742,1578
883.864563,1575
883.981506,1541
884.098389,1587
884.21521,1568
884.332153,1612
884.448975,1532
884.565796,1633
884.682678,1643
884.7995,1697
884.916443,1720
885.033264,1852
885.150085,1832
885.266968,1970
885.383789,1985
885.500671,1934
885.617493,1987
885.734314,1994
885.851196,1939
885.967896,1982
886.084717,1971
886.201599,1914
886.318359,1939
886.435181,1935
886.552002,1887
886.668762,1881
886.785645,1878
886.902344,1933
887.019165,1770
887.135925,1867
887.252747,1841
887.369446,1814
887.486267,1799
887.603027,1743
887.719788,1774
887.836548,1721
887.953247,1678
888.070068,1690
888.186829,1602
888.303528,1621
888.420288,1582
888.536987,1576
888.653687,1521
888.770447,1567
888.887146,1492
889.003967,1472
889.120667,1485
889.237305,1493
889.354065,1465
889.470703,1501
889.587463,1457
889.704163,1474
889.820862,1441
889.937561,1469
890.054199,1440
890.170837,1441
890.287598,1477
890.404236,1435
890.520874,1493
890.637634,1459
890.754211,1478
890.87085,1442
890.987549,1508
891.104187,1501
891.220886,1465
891.337463,1469
891.454102,1462
891.57074,1491
891.687378,1480
891.804077,1448
891.920654,1508
892.037231,1507
892.15387,1468
892.270447,1518
892.387085,1505
892.503723,1496
892.6203,1474
892.736877,1484
892.853516,1473
892.970032,1475
893.08667,1458
893.203186,1479
893.319763,1429
893.43634,1455
893.552917,1445
893.669556,1478
893.786011,1482
893.902588,1470
894.019165,1454
894.135681,1447
894.252197,1486
894.368835,1456
894.485291,1488
894.601868,1504
894.718384,1436
894.8349,1467
894.951355,1430
895.067932,1454
895.184448,1465
895.300964,1427
895.417419,1426
895.533936,1457
895.650452,1428
895.766907,1466
895.883423,1463
895.999878,1488
896.116333,1446
896.232849,1467
896.349304,1456
896.465759,1463
896.582214,1450
896.698669,1442
896.815125,1422
896.931641,1455
897.048035,1448
897.164551,1459
897.280884,1488
897.397339,1488
897.513794,1452
897.630249,1492
897.746582,1469
897.863098,1503
897.979431,1452
898.095886,1525
898.212341,1483
898.328674,1447
898.445129,1485
898.561462,1478
898.677795,1452
898.794312,1533
898.910645,1489
899.026978,1470
899.143433,1489
899.259766,1472
899.37616,1480
899.492493,1489
899.608765,1543
899.725159,1481
899.841553,1511
899.957947,1456
900.07428,1501
900.190552,1509
900.306946,1451
900.423157,1511
900.53949,1480
900.655884,1496
900.772156,1485
900.888489,1506
901.004822,1484
901.121033,1539
901.237366,1456
901.353699,1526
901.46991,1490
901.586304,1546
901.702515,1527
901.818787,1559
901.93512,1588
902.051331,1628
902.167603,1663
902.283875,1717
902.400085,1652
902.516418,1655
902.632629,1728
902.74884,1770
902.865112,1758
902.981384,1751
903.097595,1771
903.213867,1734
903.330017,1758
903.446289,1709
903.5625,1688
903.67865,1673
903.794922,1639
903.911072,1620
904.027344,1661
904.143494,1609
904.259705,1603
904.375916,1590
904.492065,1589
904.608215,1621
904.724426,1565
904.840576,1518
904.956726,1536
905.072876,1563
905.189087,1522
905.305176,1480
905.421387,1524
905.537537,1558
905.653687,1488
905.769775,1488
905.885925,1466
906.002014,1523
906.118164,1488
906.234314,1434
906.350403,1505
906.466492,1474
906.582642,1450
906.69873,1465
906.814758,1480
906.930908,1476
907.046936,1430
907.163086,1447
907.279175,1481
907.395264,1530
907.511353,1484
907.62738,1443
907.743408,1493
907.859497,1468
907.975525,1461
908.091553,1438
908.207703,1479
908.32373,1468
908.439758,1466
908.555786,1462
908.671814,1468
908.787842,1497
908.90387,1520
909.019775,1497
909.135864,1447
909.251892,1525
909.367859,1505
909.483826,1492
909.599854,1461
909.715881,1525
909.831848,1454
909.947815,1502
910.063782,1490
910.179749,1467
910.295776,1465
910.411743,1476
910.527649,1489
910.643616,1477
910.759583,1488
910.875488,1498
910.991455,1500
911.107361,1504
911.223267,1485
911.339294,1516
911.4552,1447
911.571106,1456
911.687073,1445
911.802979,1462
911.918823,1463
912.034729,1452
912.150635,1466
912.266602,1445
912.382446,1443
912.498352,1458
912.614197,1473
912.730103,1459
912.846008,1446
