792.44574,4094
792.56488,3995
792.68396,3944
792.80304,3767
792.92218,3666
793.041199,3617
793.160339,3488
793.279419,3497
793.398499,3381
793.517578,3319
793.636658,3208
793.755737,3186
793.874817,3118
793.993896,3108
794.112976,3012
794.232056,2977
794.351074,2948
794.470215,2879
794.589233,2819
794.708313,2813
794.827393,2729
794.946411,2715
795.065552,2687
795.18457,2643
795.303589,2657
795.422668,2654
795.541687,2611
795.660767,2579
795.779846,2559
795.898865,2508
796.017883,2458
796.136963,2512
796.255981,2441
796.375061,2497
796.49408,2445
796.613037,2369
796.732117,2367
796.851135,2341
796.970154,2344
797.089233,2293
797.208191,2301
797.327271,2264
797.446228,2255
797.565186,2284
797.684265,2259
797.803223,2192
797.922241,2201
798.04126,2236
798.160278,2191
798.279297,2184
798.398315,2175
798.517273,2147
798.636292,2192
798.75531,2114
798.874268,2106
798.993286,2153
799.112244,2108
799.231323,2105
799.350281,2175
799.469238,2080
799.588257,2092
799.707153,2075
799.826111,2039
799.945129,2056
800.064087,2044
800.183044,2039
800.302063,2058
800.421021,2082
800.539978,2052
800.658936,2004
800.777893,1994
800.896912,1959
801.015747,2037
801.134705,2000
801.253723,1990
801.37262,1970
801.491638,1940
801.610535,1995
801.729492,1972
801.84845,1967
801.967407,1946
802.086243,1976
802.205261,1961
802.324158,1938
802.443115,1931
802.562073,1913
802.680969,1926
802.799927,1890
802.918762,1971
803.037659,1868
803.156677,1924
803.275574,1902
803.39447,1900
803.513428,1884
803.632263,1904
803.751221,1853
803.870117,1831
803.989014,1852
804.107971,1848
804.226746,1881
804.345642,1889
804.4646,1824
804.583496,1841
804.702393,1881
804.821228,1847
804.940125,1849
805.059021,1822
805.177917,1849
805.296814,1800
805.415649,1856
805.534546,1832
805.653442,1825
805.772278,1845
805.891113,1802
806.01001,1854
806.128906,1800
806.247742,1785
806.366577,1801
806.485413,1797
806.604309,1786
806.723145,1828
806.84198,1828
806.960876,1798
807.079712,1839
807.198486,1753
807.317383,1770
807.436218,1756
807.554993,1800
807.673889,1786
807.792725,1785
807.91156,1778
808.030396,1828
808.14917,1762
808.268005,1780
808.386841,1795
808.505676,1760
808.624451,1744
808.743286,1718
808.862122,1760
808.980896,1779
809.099731,1774
809.218506,1741
809.337341,1771
809.456116,1805
809.57489,1798
809.693726,1780
809.8125,1751
809.931274,1713
810.050049,1730
810.168884,1775
810.287659,1726
810.406372,1768
810.525269,1691
810.643982,1687
810.762756,1744
810.881531,1709
811.000305,1731
811.11908,1763
811.237854,1768
811.356567,1739
811.475403,1757
811.594116,1772
811.71283,1760
811.831604,1776
811.950378,1756
812.069153,1791
812.187927,1776
812.30658,1777
812.425415,1736
812.544128,1740
812.662781,1781
812.781616,1775
812.900269,1734
813.019043,1766
813.137756,1698
813.256531,1702
813.375244,1744
813.493896,1743
813.612671,1719
813.731384,1665
813.850037,1726
813.96875,1765
814.087524,1727
814.206238,1755
814.324951,1669
814.443604,1747
814.562256,1701
814.68103,1714
814.799683,1732
814.918335,1698
815.037109,1732
815.155762,1705
815.274475,1718
815.393188,1710
815.511841,1664
815.630554,1713
815.749146,1697
815.867859,1685
815.986572,1726
816.105164,1704
816.223877,1698
816.342529,1699
816.461182,1728
816.579895,1713
816.698486,1761
816.817139,1737
816.935791,1774
817.054504,1757
817.173096,1728
817.291748,1774
817.4104,1720
817.529053,1734
817.647644,1735
817.766235,1713
817.884949,1714
818.00354,1658
818.122192,1691
818.240845,1694
818.359436,1638
818.478088,1678
818.59668,1646
818.715271,1671
818.833923,1665
818.952515,1662
819.071106,1592
819.189758,1628
819.30835,1583
819.426941,1608
819.545532,1652
819.664124,1611
819.782715,1597
819.901306,1598
820.019897,1626
820.138489,1632
820.25708,1616
820.375671,1606
820.494202,1619
820.612732,1615
820.731384,1607
820.849915,1638
820.968506,1593
821.087097,1584
821.205627,1595
821.324158,1554
821.442749,1584
821.561279,1613
821.679871,1578
821.798401,1556
821.916931,1531
822.035461,1583
822.154053,1577
822.272583,1565
822.391174,1603
822.509583,1553
822.628174,1535
822.746704,1523
822.865234,1551
822.983765,1546
823.102295,1557
823.220825,1538
823.339294,1532
823.457825,1499
823.576355,1568
823.694824,1574
823.813354,1556
823.931885,1531
824.050354,1595
824.168884,1587
824.287354,1581
824.405823,1529
824.524353,1610
824.642822,1608
824.761353,1583
824.879822,1526
824.998291,1576
825.116699,1565
825.235291,1559
825.353699,1536
825.472168,1565
825.590637,1554
825.709106,1537
825.827576,1488
825.946045,1502
826.064453,1579
826.182983,1539
826.301392,1531
826.4198,1508
826.53833,1494
826.656738,1522
826.775208,1532
826.893677,1529
827.012024,1469
827.130493,1498
827.248962,1491
827.36731,1577
827.485779,1558
827.604248,1544
827.722595,1559
827.841064,1520
827.959412,1510
828.077942,1549
828.196289,1513
828.314636,1510
828.433105,1505
828.551514,1554
828.669861,1507
828.78833,1502
828.906677,1437
829.025085,1482
829.143433,1529
829.261841,1475
829.38031,1502
829.498657,1482
829.617004,1491
829.735413,1500
829.85376,1502
829.972107,1461
830.090515,1508
830.208862,1486
830.327209,1474
830.445557,1496
830.563904,1473
830.682312,1488
830.800659,1499
830.919006,1531
831.037354,1517
831.155701,1546
831.274048,1611
831.392395,1533
831.51062,1530
831.629028,1510
831.747314,1551
831.865662,1566
831.984009,1529
832.102356,1523
832.220642,1569
832.338928,1532
832.457275,1533
832.575623,1566
832.693909,1549
832.812134,1555
832.930481,1493
833.048828,1526
833.167114,1573
833.2854,1551
833.403687,1493
833.521973,1548
833.640259,1522
833.758545,1505
833.876831,1538
833.995056,1508
834.113281,1548
834.231628,1513
834.349915,1515
834.468201,1553
834.586426,1473
834.704651,1526
834.822998,1555
834.941162,1538
835.059448,1521
835.177673,1516
835.295959,1574
835.414246,1525
835.53241,1543
835.650635,1512
835.768921,1514
835.887146,1520
836.005371,1530
836.123596,1506
836.241821,1516
836.360046,1504
836.478271,1475
836.596497,1481
836.714722,1477
836.832886,1520
836.95105,1456
837.069336,1516
837.1875,1468
837.305725,1489
837.423889,1479
837.542053,1477
837.660339,1474
837.778503,1489
837.896667,1484
838.014832,1525
838.132996,1501
838.25116,1511
838.369385,1474
838.487488,1495
838.605713,1526
838.723877,1559
838.84198,1538
838.960205,1528
839.078308,1537
839.196472,1563
839.314636,1594
839.4328,1540
839.550964,1612
839.669067,1588
839.787231,1578
839.905396,1586
840.023499,1565
840.141602,1620
840.259766,1593
840.377869,1618
840.495972,1600
840.614136,1632
840.732239,1627
840.850342,1627
840.968445,1629
841.086548,1664
841.204651,1642
841.322754,1656
841.440918,1601
841.55896,1673
841.677002,1690
841.795166,1664
841.913208,1682
842.031311,1729
842.149353,1696
842.267456,1696
842.385498,1694
842.503601,1628
842.621643,1602
842.739746,1646
842.857788,1626
842.97583,1647
843.093933,1642
843.211975,1628
843.330017,1675
843.44812,1653
843.566101,1667
843.684204,1691
843.802246,1617
843.920227,1638
844.038269,1693
844.156311,1633
844.274292,1599
844.392395,1622
844.510376,1618
844.628357,1606
844.74646,1560
844.864441,1595
844.982422,1655
845.100403,1626
845.218384,1631
845.336426,1608
845.454468,1590
845.572449,1581
845.69043,1618
845.808411,1608
845.926453,1586
846.044373,1582
846.162354,1597
846.280396,1607
846.398315,1590
846.516296,1610
846.634216,1604
846.752197,1620
846.870178,1662
846.988098,1600
847.106079,1647
847.22406,1606
847.34198,1639
847.4599,1637
847.577881,1609
847.695801,1609
847.813782,1593
847.931641,1611
848.049561,1619
848.167603,1595
848.285461,1640
848.403381,1627
848.521362,1604
848.639221,1635
848.75708,1641
848.875,1592
848.99292,1630
849.110901,1636
849.22876,1658
849.34668,1642
849.464539,1607
849.582458,1620
849.700317,1640
849.818176,1614
849.936096,1606
850.053955,1619
850.171875,1575
850.289673,1661
850.407593,1617
850.525452,1641
850.643311,1632
850.761169,1549
850.878967,1616
850.996887,1582
851.114746,1591
851.232544,1599
851.350403,1596
851.468262,1618
851.58606,1580
851.703979,1597
851.821777,1585
851.939636,1563
852.057434,1570
852.175232,1636
852.293091,1611
852.410889,1631
852.528687,1733
852.646545,1758
852.764343,1729
852.88208,1718
852.999939,1705
853.117676,1638
853.235535,1638
853.353271,1606
853.471069,1620
853.588928,1591
853.706604,1587
853.824402,1567
853.9422,1607
854.059998,1611
854.177734,1624
854.295532,1584
854.413269,1649
854.531006,1657
854.648804,1653
854.766541,1644
854.884277,1617
855.002014,1624
855.119751,1601
855.237549,1612
855.355225,1604
855.473022,1592
855.590698,1654
855.708435,1629
855.826172,1643
855.943848,1634
856.061646,1663
856.179321,1628
856.296997,1646
856.414795,1669
856.53241,1683
856.650085,1714
856.767822,1674
856.885559,1696
857.003174,1683
857.120911,1691
857.238586,1686
857.356201,1708
857.473938,1672
857.591614,1699
857.709351,1666
857.826965,1669
857.944641,1675
858.062317,1703
858.179993,1659
858.297668,1666
858.415283,1700
858.532959,1668
858.650574,1673
858.768188,1685
858.885803,1666
859.003479,1644
859.121094,1625
859.23877,1689
859.356384,1635
859.473999,1647
859.591675,1625
859.709229,1651
859.826843,1593
859.944458,1614
860.062012,1620
860.179626,1558
860.297302,1595
860.414856,1588
860.532471,1558
860.650024,1591
860.767639,1596
860.885193,1592
861.002808,1612
861.120361,1583
861.237976,1620
861.35553,1657
861.473022,1591
861.590698,1619
861.708191,1590
861.825745,1570
861.943298,1610
862.060852,1577
862.178406,1566
862.295959,1537
862.413513,1556
862.531006,1526
862.64856,1512
862.766113,1478
862.883667,1509
863.00116,1539
863.118713,1531
863.236206,1525
863.353699,1493
863.471252,1535
863.588745,1527
863.706177,1540
863.82373,1540
863.941162,1540
864.058716,1552
864.176208,1579
864.29364,1482
864.411194,1568
864.528687,1556
864.646118,1490
864.763611,1504
864.881042,1561
864.998535,1529
865.116028,1538
865.233459,1517
865.350891,1499
865.468384,1534
865.585754,1522
865.703308,1544
865.820679,1507
865.938171,1503
866.055542,1520
866.173035,1518
866.290466,1500
866.407837,1499
866.52533,1551
866.6427,1547
866.760071,1522
866.877563,1517
866.994934,1550
867.112305,1558
867.229736,1542
867.347107,1568
867.464539,1578
867.58197,1569
867.699341,1569
867.81665,1531
867.934082,1509
868.051453,1568
868.168823,1545
868.286194,1572
868.403564,1586
868.520935,1545
868.638306,1576
868.755676,1601
868.872986,1547
868.990295,1604
869.107727,1585
869.225037,1589
869.342346,1576
869.459717,1614
869.577026,1616
869.694336,1605
869.811707,1642
869.929016,1634
870.046326,1665
870.163635,1650
870.280945,1622
870.398254,1686
870.515564,1662
870.632812,1627
870.750183,1680
870.867432,1662
870.984741,1679
871.102051,1687
871.219299,1732
871.336609,1671
871.453918,1705
871.571106,1711
871.688416,1720
871.805664,1715
871.922852,1700
872.040222,1694
872.157471,1675
872.274719,1690
872.391968,1746
872.509155,1729
872.626465,1747
872.743652,1722
872.860962,1688
872.978149,1692
873.095337,1711
873.212646,1669
873.329834,1640
873.44696,1659
873.564209,1683
873.681396,1626
873.798645,1677
873.915894,1656
874.03302,1661
874.150208,1694
874.267456,1698
874.384583,1701
874.501831,1688
874.618958,1723
874.736145,1746
874.853333,1736
874.970459,1689
875.087646,1749
875.204834,1712
875.32196,1667
875.439148,1739
875.556274,1685
875.673401,1622
875.790527,1658
875.907715,1622
876.024841,1591
876.141968,1671
876.259094,1626
876.376282,1644
876.493347,1622
876.610474,1609
876.7276,1631
876.844727,1630
876.961853,1643
877.078918,1634
877.195984,1646
877.313171,1617
877.430237,1617
877.547302,1588
877.664368,1610
877.781433,1592
877.898499,1619
878.015625,1601
878.13269,1556
878.249695,1625
878.366821,1601
878.483887,1581
878.600952,1572
878.717957,1551
878.834961,1609
878.952087,1548
879.069092,1585
879.186157,1534
879.303162,1550
879.420227,1512
879.537231,1538
879.654236,1535
879.77124,1519
879.888306,1522
880.005249,1505
880.122314,1526
880.239319,1524
880.356323,1506
880.473328,1515
880.590271,1481
880.707275,1509
880.824341,1533
880.941284,1504
881.058228,1495
881.175232,1478
881.292236,1466
881.40918,1488
881.526123,1496
881.643066,1468
881.760071,1544
881.877014,1462
881.993958,1537
882.11084,1480
882.227783,1489
882.344727,1529
882.46167,1490
882.578613,1489
882.695618,1528
882.812439,1499
882.929382,1554
883.046326,1529
883.163208,1515
883.280151,1484
883.397034,1513
883.513916,1538
883.630798,1514
883.747742,1504
883.864563,1533
883.981506,1537
884.098389,1519
884.21521,1549
884.332153,1572
884.448975,1564
884.565796,1573
884.682678,1622
884.7995,1626
884.916443,1739
885.033264,1745
885.150085,1834
885.266968,1893
885.383789,1915
885.500671,1899
885.617493,1943
885.734314,1922
885.851196,1907
885.967896,1879
886.084717,1935
886.201599,1906
886.318359,1844
886.435181,1906
886.552002,1822
886.668762,1851
886.785645,1807
886.902344,1809
887.019165,1802
887.135925,1735
887.252747,1781
887.369446,1750
887.486267,1751
887.603027,1678
887.719788,1683
887.836548,1678
887.953247,1613
888.070068,1620
888.186829,1593
888.303528,1551
888.420288,1578
888.536987,1568
888.653687,1562
888.770447,1514
888.887146,1471
889.003967,1497
889.120667,1500
889.237305,1492
889.354065,1508
889.470703,1449
889.587463,1407
889.704163,1423
889.820862,1426
889.937561,1476
890.054199,1451
890.170837,1444
890.287598,1475
890.404236,1444
890.520874,1425
890.637634,1439
890.754211,1469
890.87085,1469
890.987549,1517
891.104187,1430
891.220886,1448
891.337463,1467
891.454102,1420
891.57074,1507
891.687378,1436
891.804077,1473
891.920654,1446
892.037231,1490
892.15387,1467
892.270447,1454
892.387085,1495
892.503723,1452
892.6203,1448
892.736877,1436
892.853516,1473
892.970032,1389
893.08667,1460
893.203186,1445
893.319763,1465
893.43634,1426
893.552917,1453
893.669556,1443
893.786011,1458
893.902588,1435
894.019165,1498
894.135681,1422
894.252197,1465
894.368835,1504
894.485291,1465
894.601868,1457
894.718384,1478
894.8349,1458
894.951355,1459
895.067932,1461
895.184448,1422
895.300964,1447
895.417419,1451
895.533936,1433
895.650452,1455
895.766907,1426
895.883423,1433
895.999878,1445
896.116333,1441
896.232849,1420
896.349304,1454
896.465759,1455
896.582214,1467
896.698669,1392
896.815125,1467
896.931641,1459
897.048035,1459
897.164551,1450
897.280884,1457
897.397339,1425
897.513794,1435
897.630249,1423
897.746582,1457
897.863098,1468
897.979431,1468
898.095886,1448
898.212341,1464
898.328674,1464
898.445129,1464
898.561462,1433
898.677795,1481
898.794312,1486
898.910645,1444
899.026978,1468
899.143433,1440
899.259766,1477
899.37616,1463
899.492493,1472
899.608765,1458
899.725159,1494
899.841553,1512
899.957947,1521
900.07428,1496
900.190552,1460
900.306946,1472
900.423157,1445
900.53949,1492
900.655884,1495
900.772156,1475
900.888489,1491
901.004822,1507
901.121033,1477
901.237366,1499
901.353699,1486
901.46991,1475
901.586304,1538
901.702515,1524
901.818787,1527
901.93512,1575
902.051331,1543
902.167603,1562
902.283875,1608
902.400085,1638
902.516418,1663
902.632629,1688
902.74884,1647
902.865112,1691
902.981384,1684
903.097595,1684
903.213867,1669
903.330017,1713
903.446289,1661
903.5625,1637
903.67865,1614
903.794922,1666
903.911072,1594
904.027344,1584
904.143494,1622
904.259705,1555
904.375916,1586
904.492065,1577
904.608215,1535
904.724426,1531
904.840576,1503
904.956726,1533
905.072876,1542
905.189087,1470
905.305176,1477
905.421387,1443
905.537537,1483
905.653687,1506
905.769775,1475
905.885925,1530
906.002014,1462
906.118164,1457
906.234314,1451
906.350403,1469
906.466492,1462
906.582642,1415
906.69873,1479
906.814758,1465
906.930908,1493
907.046936,1432
907.163086,1486
907.279175,1457
907.395264,1428
907.511353,1413
907.62738,1476
907.743408,1487
907.859497,1448
907.975525,1421
908.091553,1425
908.207703,1432
908.32373,1443
908.439758,1458
908.555786,1428
908.671814,1418
908.787842,1398
908.90387,1480
909.019775,1445
909.135864,1436
909.251892,1429
909.367859,1464
909.483826,1450
909.599854,1473
909.715881,1439
909.831848,1455
909.947815,1471
910.063782,1468
910.179749,1470
910.295776,1460
910.411743,1489
910.527649,1429
910.643616,1443
910.759583,1455
910.875488,1488
910.991455,1462
911.107361,1460
911.223267,1403
911.339294,1412
911.4552,1500
911.571106,1391
911.687073,1443
911.802979,1398
911.918823,1457
912.034729,1439
912.150635,1419
912.266602,1433
912.382446,1397
912.498352,1445
912.614197,1399
912.730103,1431
912.846008,1385
792.44574,4113
792.56488,4012
792.68396,3949
792.80304,3846
792.92218,3695
793.041199,3695
793.160339,3538
793.279419,3517
793.398499,3373
793.517578,3390
793.636658,3212
793.755737,3209
793.874817,3138
793.993896,3046
794.112976,3052
794.232056,3007
794.351074,2934
794.470215,2902
794.589233,2852
794.708313,2807
794.827393,2733
794.946411,2807
795.065552,2744
795.18457,2646
795.303589,2713
795.422668,2654
795.541687,2594
795.660767,2527
795.779846,2559
795.898865,2554
796.017883,2479
796.136963,2475
796.255981,2445
796.375061,2432
796.49408,2383
796.613037,2403
796.732117,2349
796.851135,2397
796.970154,2334
797.089233,2260
797.208191,2276
797.327271,2324
797.446228,2288
797.565186,2307
797.684265,2181
797.803223,2234
797.922241,2179
798.04126,2206
798.160278,2194
798.279297,2160
798.398315,2196
798.517273,2168
798.636292,2150
798.75531,2177
798.874268,2151
798.993286,2136
799.112244,2188
799.231323,2076
799.350281,2110
799.469238,2111
799.588257,2134
799.707153,2107
799.826111,2112
799.945129,2088
800.064087,2058
800.183044,2033
800.302063,2060
800.421021,2042
800.539978,2085
800.658936,2022
800.777893,2094
800.896912,1991
801.015747,1993
801.134705,1990
801.253723,2005
801.37262,2023
801.491638,2047
801.610535,1970
801.729492,1978
801.84845,1979
801.967407,1978
802.086243,1952
802.205261,1976
802.324158,1901
802.443115,1907
802.562073,1965
802.680969,1967
802.799927,1887
802.918762,1958
803.037659,1919
803.156677,1929
803.275574,1860
803.39447,1880
803.513428,1882
803.632263,1858
803.751221,1894
803.870117,1834
803.989014,1856
804.107971,1947
804.226746,1870
804.345642,1858
804.4646,1871
804.583496,1885
804.702393,1880
804.821228,1859
804.940125,1785
805.059021,1825
805.177917,1851
805.296814,1894
805.415649,1859
805.534546,1845
805.653442,1804
805.772278,1875
805.891113,1828
806.01001,1842
806.128906,1827
806.247742,1844
806.366577,1810
806.485413,1826
806.604309,1872
806.723145,1822
806.84198,1854
806.960876,1778
807.079712,1831
807.198486,1773
807.317383,1789
807.436218,1816
807.554993,1774
807.673889,1788
807.792725,1742
807.91156,1793
808.030396,1777
808.14917,1741
808.268005,1764
808.386841,1753
808.505676,1738
808.624451,1796
808.743286,1733
808.862122,1767
808.980896,1713
809.099731,1773
809.218506,1764
809.337341,1771
809.456116,1767
809.57489,1798
809.693726,1741
809.8125,1766
809.931274,1765
810.050049,1800
810.168884,1727
810.287659,1770
810.406372,1714
810.525269,1772
810.643982,1722
810.762756,1757
810.881531,1746
811.000305,1779
811.11908,1733
811.237854,1776
811.356567,1727
811.475403,1758
811.594116,1736
811.71283,1776
811.831604,1826
811.950378,1782
812.069153,1764
812.187927,1787
812.30658,1749
812.425415,1804
812.544128,1779
812.662781,1783
812.781616,1821
812.900269,1840
813.019043,1759
813.137756,1777
813.256531,1788
813.375244,1754
813.493896,1739
813.612671,1803
813.731384,1720
813.850037,1722
813.96875,1705
814.087524,1705
814.206238,1729
814.324951,1726
814.443604,1740
814.562256,1674
814.68103,1698
814.799683,1765
814.918335,1730
815.037109,1706
815.155762,1713
815.274475,1713
815.393188,1714
815.511841,1732
815.630554,1690
815.749146,1729
815.867859,1709
815.986572,1728
816.105164,1694
816.223877,1688
816.342529,1699
816.461182,1694
816.579895,1731
816.698486,1709
816.817139,1720
816.935791,1738
817.054504,1735
817.173096,1690
817.291748,1720
817.4104,1777
817.529053,1711
817.647644,1725
817.766235,1704
817.884949,1691
818.00354,1680
818.122192,1696
818.240845,1681
818.359436,1683
818.478088,1692
818.59668,1653
818.715271,1655
818.833923,1650
818.952515,1654
819.071106,1604
819.189758,1630
819.30835,1584
819.426941,1584
819.545532,1611
819.664124,1635
819.782715,1627
819.901306,1590
820.019897,1643
820.138489,1576
820.25708,1627
820.375671,1610
820.494202,1620
820.612732,1593
820.731384,1652
820.849915,1640
820.968506,1571
821.087097,1632
821.205627,1590
821.324158,1584
821.442749,1578
821.561279,1573
821.679871,1575
821.798401,1559
821.916931,1589
822.035461,1591
822.154053,1615
822.272583,1558
822.391174,1579
822.509583,1565
822.628174,1544
822.746704,1571
822.865234,1567
822.983765,1545
823.102295,1550
823.220825,1506
823.339294,1577
823.457825,1541
823.576355,1596
823.694824,1529
823.813354,1556
823.931885,1587
824.050354,1545
824.168884,1524
824.287354,1578
824.405823,1555
824.524353,1552
824.642822,1540
824.761353,1509
824.879822,1549
824.998291,1633
825.116699,1533
825.235291,1580
825.353699,1576
825.472168,1477
825.590637,1531
825.709106,1558
825.827576,1623
825.946045,1539
826.064453,1506
826.182983,1526
826.301392,1514
826.4198,1497
826.53833,1545
826.656738,1529
826.775208,1497
826.893677,1541
827.012024,1510
827.130493,1530
827.248962,1524
827.36731,1528
827.485779,1550
827.604248,1553
827.722595,1522
827.841064,1571
827.959412,1491
828.077942,1504
828.196289,1503
828.314636,1540
828.433105,1498
828.551514,1495
828.669861,1482
828.78833,1497
828.906677,1488
829.025085,1564
829.143433,1474
829.261841,1512
829.38031,1519
829.498657,1505
829.617004,1537
829.735413,1532
829.85376,1469
829.972107,1528
830.090515,1481
830.208862,1528
830.327209,1514
830.445557,1497
830.563904,1525
830.682312,1491
830.800659,1541
830.919006,1535
831.037354,1533
831.155701,1536
831.274048,1496
831.392395,1570
831.51062,1547
831.629028,1524
831.747314,1542
831.865662,1555
831.984009,1524
832.102356,1508
832.220642,1521
832.338928,1505
832.457275,1539
832.575623,1552
832.693909,1567
832.812134,1542
832.930481,1583
833.048828,1576
833.167114,1556
833.2854,1506
833.403687,1542
833.521973,1518
833.640259,1511
833.758545,1532
833.876831,1487
833.995056,1562
834.113281,1483
834.231628,1573
834.349915,1535
834.468201,1541
834.586426,1511
834.704651,1557
834.822998,1565
834.941162,1553
835.059448,1532
835.177673,1506
835.295959,1527
835.414246,1541
835.53241,1508
835.650635,1507
835.768921,1509
835.887146,1544
836.005371,1503
836.123596,1522
836.241821,1496
836.360046,1507
836.478271,1520
836.596497,1487
836.714722,1489
836.832886,1505
836.95105,1471
837.069336,1531
837.1875,1489
837.305725,1482
837.423889,1507
837.542053,1465
837.660339,1510
837.778503,1500
837.896667,1506
838.014832,1507
838.132996,1461
838.25116,1499
838.369385,1491
838.487488,1521
838.605713,1493
838.723877,1560
838.84198,1521
838.960205,1508
839.078308,1594
839.196472,1531
839.314636,1541
839.4328,1558
839.550964,1577
839.669067,1570
839.787231,1605
839.905396,1547
840.023499,1597
840.141602,1593
840.259766,1590
840.377869,1653
840.495972,1592
840.614136,1631
840.732239,1621
840.850342,1618
840.968445,1632
841.086548,1643
841.204651,1647
841.322754,1676
841.440918,1706
841.55896,1692
841.677002,1659
841.795166,1632
841.913208,1706
842.031311,1674
842.149353,1680
842.267456,1652
842.385498,1655
842.503601,1675
842.621643,1637
842.739746,1697
842.857788,1638
842.97583,1674
843.093933,1666
843.211975,1706
843.330017,1667
843.44812,1617
843.566101,1675
843.684204,1663
843.802246,1673
843.920227,1675
844.038269,1644
844.156311,1579
844.274292,1685
844.392395,1634
844.510376,1637
844.628357,1618
844.74646,1585
844.864441,1647
844.982422,1628
845.100403,1655
845.218384,1607
845.336426,1581
845.454468,1605
845.572449,1581
845.69043,1633
845.808411,1589
845.926453,1607
846.044373,1620
846.162354,1599
846.280396,1602
846.398315,1621
846.516296,1666
846.634216,1629
846.752197,1563
846.870178,1617
846.988098,1649
847.106079,1591
847.22406,1653
847.34198,1644
847.4599,1626
847.577881,1624
847.695801,1625
847.813782,1617
847.931641,1624
848.049561,1661
848.167603,1565
848.285461,1609
848.403381,1617
848.521362,1584
848.639221,1628
848.75708,1637
848.875,1657
848.99292,1643
849.110901,1623
849.22876,1604
849.34668,1637
849.464539,1613
849.582458,1638
849.700317,1656
849.818176,1607
849.936096,1620
850.053955,1610
850.171875,1587
850.289673,1628
850.407593,1600
850.525452,1680
850.643311,1620
850.761169,1618
850.878967,1580
850.996887,1564
851.114746,1589
851.232544,1577
851.350403,1618
851.468262,1555
851.58606,1598
851.703979,1594
851.821777,1578
851.939636,1612
852.057434,1603
852.175232,1637
852.293091,1578
852.410889,1655
852.528687,1712
852.646545,1782
852.764343,1766
852.88208,1717
852.999939,1694
853.117676,1672
853.235535,1682
853.353271,1626
853.471069,1551
853.588928,1585
853.706604,1600
853.824402,1613
853.9422,1650
854.059998,1579
854.177734,1578
854.295532,1617
854.413269,1622
854.531006,1621
854.648804,1670
854.766541,1637
854.884277,1657
855.002014,1646
855.119751,1594
855.237549,1608
855.355225,1628
855.473022,1626
855.590698,1612
855.708435,1626
855.826172,1637
855.943848,1657
856.061646,1665
856.179321,1617
856.296997,1671
856.414795,1729
856.53241,1682
856.650085,1640
856.767822,1728
856.885559,1702
857.003174,1702
857.120911,1733
857.238586,1683
857.356201,1731
857.473938,1669
857.591614,1656
857.709351,1704
857.826965,1695
857.944641,1694
858.062317,1684
858.179993,1640
858.297668,1695
858.415283,1648
858.532959,1696
858.650574,1671
858.768188,1669
858.885803,1696
859.003479,1680
859.121094,1642
859.23877,1674
859.356384,1595
859.473999,1632
859.591675,1591
859.709229,1619
859.826843,1644
859.944458,1569
860.062012,1596
860.179626,1643
860.297302,1571
860.414856,1608
860.532471,1635
860.650024,1617
860.767639,1599
860.885193,1614
861.002808,1600
861.120361,1608
861.237976,1578
861.35553,1640
861.473022,1608
861.590698,1588
861.708191,1583
861.825745,1583
861.943298,1573
862.060852,1594
862.178406,1564
862.295959,1565
862.413513,1520
862.531006,1559
862.64856,1518
862.766113,1525
862.883667,1529
863.00116,1513
863.118713,1518
863.236206,1538
863.353699,1517
863.471252,1522
863.588745,1570
863.706177,1555
863.82373,1576
863.941162,1593
864.058716,1581
864.176208,1563
864.29364,1617
864.411194,1513
864.528687,1520
864.646118,1588
864.763611,1530
864.881042,1543
864.998535,1513
865.116028,1544
865.233459,1524
865.350891,1491
865.468384,1560
865.585754,1547
865.703308,1526
865.820679,1492
865.938171,1540
866.055542,1507
866.173035,1529
866.290466,1495
866.407837,1529
866.52533,1555
866.6427,1573
866.760071,1554
866.877563,1499
866.994934,1565
867.112305,1542
867.229736,1537
867.347107,1540
867.464539,1587
867.58197,1612
867.699341,1606
867.81665,1516
867.934082,1585
868.051453,1561
868.168823,1623
868.286194,1539
868.403564,1568
868.520935,1553
868.638306,1556
868.755676,1577
868.872986,1567
868.990295,1602
869.107727,1622
869.225037,1601
869.342346,1597
869.459717,1620
869.577026,1633
869.694336,1617
869.811707,1689
869.929016,1607
870.046326,1663
870.163635,1655
870.280945,1646
870.398254,1630
870.515564,1665
870.632812,1710
870.750183,1669
870.867432,1676
870.984741,1664
871.102051,1681
871.219299,1729
871.336609,1703
871.453918,1726
871.571106,1744
871.688416,1700
871.805664,1711
871.922852,1740
872.040222,1706
872.157471,1749
872.274719,1709
872.391968,1754
872.509155,1731
872.626465,1671
872.743652,1702
872.860962,1730
872.978149,1728
873.095337,1708
873.212646,1687
873.329834,1673
873.44696,1697
873.564209,1681
873.681396,1656
873.798645,1659
873.915894,1668
874.03302,1615
874.150208,1707
874.267456,1663
874.384583,1665
874.501831,1731
874.618958,1711
874.736145,1749
874.853333,1759
874.970459,1757
875.087646,1746
875.204834,1694
875.32196,1708
875.439148,1713
875.556274,1685
875.673401,1691
875.790527,1688
875.907715,1613
876.024841,1640
876.141968,1689
876.259094,1645
876.376282,1657
876.493347,1638
876.610474,1633
876.7276,1614
876.844727,1653
876.961853,1615
877.078918,1595
877.195984,1625
877.313171,1645
877.430237,1601
877.547302,1630
877.664368,1613
877.781433,1610
877.898499,1603
878.015625,1613
878.13269,1580
878.249695,1597
878.366821,1579
878.483887,1612
878.600952,1586
878.717957,1603
878.834961,1550
878.952087,1563
879.069092,1538
879.186157,1598
879.303162,1539
879.420227,1575
879.537231,1546
879.654236,1513
879.77124,1533
879.888306,1544
880.005249,1523
880.122314,1501
880.239319,1527
880.356323,1524
880.473328,1477
880.590271,1524
880.707275,1520
880.824341,1486
880.941284,1532
881.058228,1508
881.175232,1522
881.292236,1512
881.40918,1506
881.526123,1502
881.643066,1476
881.760071,1521
881.877014,1439
881.993958,1508
882.11084,1481
882.227783,1512
882.344727,1513
882.46167,1498
882.578613,1537
882.695618,1502
882.812439,1540
882.929382,1504
883.046326,1505
883.163208,1503
883.280151,1507
883.397034,1561
883.513916,1528
883.630798,1516
883.747742,1523
883.864563,1607
883.981506,1522
884.098389,1551
884.21521,1571
884.332153,1544
884.448975,1577
884.565796,1606
884.682678,1650
884.7995,1688
884.916443,1733
885.033264,1801
885.150085,1813
885.266968,1869
885.383789,1884
885.500671,1886
885.617493,1935
885.734314,1884
885.851196,1871
885.967896,1867
886.084717,1876
886.201599,1885
886.318359,1898
886.435181,1865
886.552002,1853
886.668762,1838
886.785645,1849
886.902344,1861
887.019165,1836
887.135925,1795
887.252747,1736
887.369446,1708
887.486267,1754
887.603027,1718
887.719788,1725
887.836548,1709
887.953247,1658
888.070068,1610
888.186829,1650
888.303528,1600
888.420288,1543
888.536987,1555
888.653687,1510
888.770447,1524
888.887146,1513
889.003967,1506
889.120667,1472
889.237305,1484
889.354065,1504
889.470703,1459
889.587463,1458
889.704163,1466
889.820862,1479
889.937561,1452
890.054199,1427
890.170837,1484
890.287598,1430
890.404236,1445
890.520874,1440
890.637634,1495
890.754211,1512
890.87085,1500
890.987549,1485
891.104187,1432
891.220886,1500
891.337463,1450
891.454102,1501
891.57074,1497
891.687378,1439
891.804077,1491
891.920654,1463
892.037231,1450
892.15387,1476
892.270447,1507
892.387085,1474
892.503723,1447
892.6203,1474
892.736877,1538
892.853516,1505
892.970032,1440
893.08667,1428
893.203186,1427
893.319763,1466
893.43634,1462
893.552917,1495
893.669556,1416
893.786011,1455
893.902588,1468
894.019165,1452
894.135681,1468
894.252197,1497
894.368835,1467
894.485291,1490
894.601868,1440
894.718384,1462
894.8349,1457
894.951355,1445
895.067932,1453
895.184448,1480
895.300964,1480
895.417419,1495
895.533936,1443
895.650452,1490
895.766907,1451
895.883423,1423
895.999878,1489
896.116333,1441
896.232849,1473
896.349304,1479
896.465759,1477
896.582214,1452
896.698669,1426
896.815125,1473
896.931641,1467
897.048035,1475
897.164551,1442
897.280884,1486
897.397339,1438
897.513794,1455
897.630249,1491
897.746582,1442
897.863098,1495
897.979431,1457
898.095886,1484
898.212341,1511
898.328674,1499
898.445129,1528
898.561462,1460
898.677795,1469
898.794312,1470
898.910645,1484
899.026978,1479
899.143433,1464
899.259766,1488
899.37616,1487
899.492493,1496
899.608765,1457
899.725159,1477
899.841553,1523
899.957947,1513
900.07428,1475
900.190552,1500
900.306946,1534
900.423157,1487
900.53949,1505
900.655884,1491
900.772156,1492
900.888489,1505
901.004822,1446
901.121033,1515
901.237366,1514
901.353699,1543
901.46991,1551
901.586304,1527
901.702515,1521
901.818787,1536
901.93512,1568
902.051331,1611
902.167603,1627
902.283875,1620
902.400085,1635
902.516418,1696
902.632629,1684
902.74884,1684
902.865112,1704
902.981384,1752
903.097595,1659
903.213867,1697
903.330017,1656
903.446289,1671
903.5625,1685
903.67865,1638
903.794922,1666
903.911072,1617
904.027344,1637
904.143494,1646
904.259705,1599
904.375916,1601
904.492065,1582
904.608215,1587
904.724426,1533
904.840576,1502
904.956726,1532
905.072876,1513
905.189087,1476
905.305176,1524
905.421387,1511
905.537537,1507
905.653687,1491
905.769775,1465
905.885925,1506
906.002014,1521
906.118164,1502
906.234314,1493
906.350403,1490
906.466492,1469
906.582642,1463
906.69873,1465
906.814758,1458
906.930908,1455
907.046936,1440
907.163086,1452
907.279175,1468
907.395264,1449
907.511353,1459
907.62738,1431
907.743408,1442
907.859497,1465
907.975525,1476
908.091553,1473
908.207703,1476
908.32373,1468
908.439758,1444
908.555786,1417
908.671814,1471
908.787842,1471
908.90387,1440
909.019775,1459
909.135864,1478
909.251892,1457
909.367859,1460
909.483826,1473
909.599854,1459
909.715881,1485
909.831848,1461
909.947815,1456
910.063782,1477
910.179749,1505
910.295776,1487
910.411743,1482
910.527649,1483
910.643616,1477
910.759583,1424
910.875488,1488
910.991455,1470
911.107361,1527
911.223267,1453
911.339294,1511
911.4552,1428
911.571106,1500
911.687073,1476
911.802979,1433
911.918823,1450
912.034729,1451
912.150635,1491
912.266602,1458
912.382446,1416
912.498352,1437
912.614197,1457
912.730103,1449
912.846008,1429
792.44574,4156
792.56488,4008
792.68396,3991
792.80304,3829
792.92218,3723
793.041199,3631
793.160339,3595
793.279419,3461
793.398499,3382
793.517578,3357
793.636658,3182
793.755737,3176
793.874817,3190
793.993896,3080
794.112976,3058
794.232056,2999
794.351074,2958
794.470215,2922
794.589233,2877
794.708313,2817
794.827393,2821
794.946411,2798
795.065552,2817
795.18457,2755
795.303589,2688
795.422668,2626
795.541687,2589
795.660767,2654
795.779846,2616
795.898865,2515
796.017883,2535
796.136963,2475
796.255981,2458
796.375061,2453
796.49408,2414
796.613037,2401
796.732117,2350
796.851135,2410
796.970154,2282
797.089233,2325
797.208191,2315
797.327271,2280
797.446228,2257
797.565186,2255
797.684265,2247
797.803223,2220
797.922241,2254
798.04126,2216
798.160278,2194
798.279297,2214
798.398315,2193
798.517273,2184
798.636292,2123
798.75531,2180
798.874268,2114
798.993286,2164
799.112244,2154
799.231323,2100
799.350281,2114
799.469238,2110
799.588257,2121
799.707153,2054
799.826111,2101
799.945129,2086
800.064087,2074
800.183044,2127
800.302063,2034
800.421021,2058
800.539978,2015
800.658936,2092
800.777893,2068
800.896912,2029
801.015747,1978
801.134705,2009
801.253723,1976
801.37262,1952
801.491638,2005
801.610535,1997
801.729492,2004
801.84845,1968
801.967407,1914
802.086243,1895
802.205261,1985
802.324158,1971
802.443115,1973
802.562073,1935
802.680969,1965
802.799927,1874
802.918762,1927
803.037659,1880
803.156677,1850
803.275574,1923
803.39447,1866
803.513428,1890
803.632263,1890
803.751221,1880
803.870117,1851
803.989014,1929
804.107971,1909
804.226746,1863
804.345642,1838
804.4646,1884
804.583496,1836
804.702393,1882
804.821228,1873
804.940125,1863
805.059021,1864
805.177917,1876
805.296814,1879
805.415649,1807
805.534546,1832
805.653442,1898
805.772278,4841
805.891113,5891
806.01001,3279
806.128906,2535
806.247742,1856
806.366577,1840
806.485413,1819
806.604309,1797
806.723145,1792
806.84198,1811
806.960876,1802
807.079712,1802
807.198486,1772
807.317383,1803
807.436218,1769
807.554993,1783
807.673889,1807
807.792725,1797
807.91156,1780
808.030396,1728
808.14917,1781
808.268005,1750
808.386841,1796
808.505676,1721
808.624451,1766
808.743286,1788
808.862122,1790
808.980896,1763
809.099731,1779
809.218506,1778
809.337341,1741
809.456116,1763
809.57489,1783
809.693726,1757
809.8125,1786
809.931274,1731
810.050049,1721
810.168884,1734
810.287659,1729
810.406372,1734
810.525269,1749
810.643982,1766
810.762756,1726
810.881531,1731
811.000305,1702
811.11908,1762
811.237854,1756
811.356567,1765
811.475403,1732
811.594116,1748
811.71283,1784
811.831604,1786
811.950378,1788
812.069153,1788
812.187927,1766
812.30658,1786
812.425415,1768
812.544128,1784
812.662781,1789
812.781616,1779
812.900269,1766
813.019043,1762
813.137756,1745
813.256531,1730
813.375244,1784
813.493896,1769
813.612671,1748
813.731384,1688
813.850037,1758
813.96875,1739
814.087524,1711
814.206238,1739
814.324951,1697
814.443604,1696
814.562256,1741
814.68103,1767
814.799683,1725
814.918335,1728
815.037109,1735
815.155762,1749
815.274475,1702
815.393188,1693
815.511841,1727
815.630554,1718
815.749146,1726
815.867859,1696
815.986572,1715
816.105164,1738
816.223877,1738
816.342529,1718
816.461182,1721
816.579895,1732
816.698486,1724
816.817139,1742
816.935791,1767
817.054504,1781
817.173096,1731
817.291748,1712
817.4104,1739
817.529053,1701
817.647644,1700
817.766235,1721
817.884949,1696
818.00354,1702
818.122192,1671
818.240845,1656
818.359436,1634
818.478088,1664
818.59668,1645
818.715271,1689
818.833923,1648
818.952515,1637
819.071106,1614
819.189758,1654
819.30835,1616
819.426941,1634
819.545532,1634
819.664124,1604
819.782715,1603
819.901306,1597
820.019897,1602
820.138489,1593
820.25708,1627
820.375671,1590
820.494202,1638
820.612732,1629
820.731384,1629
820.849915,1625
820.968506,1620
821.087097,1586
821.205627,1558
821.324158,1600
821.442749,1632
821.561279,1531
821.679871,1559
821.798401,1567
821.916931,1588
822.035461,1600
822.154053,1573
822.272583,1551
822.391174,1563
822.509583,1563
822.628174,1560
822.746704,1530
822.865234,1552
822.983765,1547
823.102295,1577
823.220825,1595
823.339294,1540
823.457825,1579
823.576355,1568
823.694824,1533
823.813354,1504
823.931885,1592
824.050354,1531
824.168884,1563
824.287354,1570
824.405823,1546
824.524353,1558
824.642822,1543
824.761353,1558
824.879822,1550
824.998291,1572
825.116699,1569
825.235291,1545
825.353699,1518
825.472168,1512
825.590637,1549
825.709106,1541
825.827576,1523
825.946045,1583
826.064453,1563
826.182983,1551
826.301392,1532
826.4198,1548
826.53833,1472
826.656738,1518
826.775208,1493
826.893677,1516
827.012024,1541
827.130493,1547
827.248962,1559
827.36731,1518
827.485779,1553
827.604248,1557
827.722595,1534
827.841064,1466
827.959412,1551
828.077942,1525
828.196289,1497
828.314636,1468
828.433105,1522
828.551514,1512
828.669861,1486
828.78833,1512
828.906677,1472
829.025085,1508
829.143433,1557
829.261841,1499
829.38031,1498
829.498657,1479
829.617004,1516
829.735413,1497
829.85376,1503
829.972107,1568
830.090515,1506
830.208862,1504
830.327209,1492
830.445557,1524
830.563904,1541
830.682312,1480
830.800659,1543
830.919006,1496
831.037354,1526
831.155701,1528
831.274048,1535
831.392395,1549
831.51062,1511
831.629028,1571
831.747314,1511
831.865662,1503
831.984009,1516
832.102356,1533
832.220642,1570
832.338928,1572
832.457275,1569
832.575623,1584
832.693909,1529
832.812134,1538
832.930481,1512
833.048828,1534
833.167114,1521
833.2854,1495
833.403687,1572
833.521973,1506
833.640259,1494
833.758545,1535
833.876831,1513
833.995056,1495
834.113281,1532
834.231628,1538
834.349915,1536
834.468201,1548
834.586426,1540
834.704651,1537
834.822998,1531
834.941162,1578
835.059448,1564
835.177673,1534
835.295959,1530
835.414246,1532
835.53241,1547
835.650635,1530
835.768921,1546
835.887146,1534
836.005371,1510
836.123596,1468
836.241821,1471
836.360046,1483
836.478271,1485
836.596497,1528
836.714722,1492
836.832886,1455
836.95105,1518
837.069336,1447
837.1875,1486
837.305725,1468
837.423889,1498
837.542053,1498
837.660339,1477
837.778503,1478
837.896667,1460
838.014832,1522
838.132996,1495
838.25116,1536
838.369385,1485
838.487488,1528
838.605713,1515
838.723877,1525
838.84198,1525
838.960205,1502
839.078308,1511
839.196472,1516
839.314636,1563
839.4328,1571
839.550964,1589
839.669067,1573
839.787231,1578
839.905396,1634
840.023499,1647
840.141602,1624
840.259766,1608
840.377869,1608
840.495972,1642
840.614136,1602
840.732239,1607
840.850342,1586
840.968445,1638
841.086548,1609
841.204651,1635
841.322754,1655
841.440918,1696
841.55896,1703
841.677002,1669
841.795166,1690
841.913208,1679
842.031311,1715
842.149353,1684
842.267456,1633
842.385498,1650
842.503601,1680
842.621643,1661
842.739746,1707
842.857788,1653
842.97583,1645
843.093933,1640
843.211975,1642
843.330017,1672
843.44812,1636
843.566101,1651
843.684204,1635
843.802246,1643
843.920227,1606
844.038269,1669
844.156311,1643
844.274292,1679
844.392395,1649
844.510376,1638
844.628357,1619
844.74646,1578
844.864441,1648
844.982422,1615
845.100403,1615
845.218384,1575
845.336426,1618
845.454468,1601
845.572449,1584
845.69043,1605
845.808411,1613
845.926453,1604
846.044373,1616
846.162354,1635
846.280396,1588
846.398315,1565
846.516296,1599
846.634216,1615
846.752197,1599
846.870178,1601
846.988098,1592
847.106079,1637
847.22406,1616
847.34198,1637
847.4599,1603
847.577881,1624
847.695801,1621
847.813782,1608
847.931641,1677
848.049561,1663
848.167603,1597
848.285461,1632
848.403381,1598
848.521362,1583
848.639221,1628
848.75708,1627
848.875,1633
848.99292,1634
849.110901,1614
849.22876,1645
849.34668,1650
849.464539,1616
849.582458,1615
849.700317,1645
849.818176,1606
849.936096,1614
850.053955,1598
850.171875,1618
850.289673,1601
850.407593,1594
850.525452,1633
850.643311,1663
850.761169,1609
850.878967,1655
850.996887,1612
851.114746,1610
851.232544,1605
851.350403,1587
851.468262,1598
851.58606,1672
851.703979,1608
851.821777,1609
851.939636,1593
852.057434,1561
852.175232,1582
852.293091,1630
852.410889,1712
852.528687,1717
852.646545,1707
852.764343,1757
852.88208,1730
852.999939,1676
853.117676,1655
853.235535,1623
853.353271,1645
853.471069,1602
853.588928,1612
853.706604,1626
853.824402,1644
853.9422,1597
854.059998,1549
854.177734,1604
854.295532,1572
854.413269,1664
854.531006,1629
854.648804,1634
854.766541,1621
854.884277,1624
855.002014,1676
855.119751,1626
855.237549,1632
855.355225,1601
855.473022,1602
855.590698,1655
855.708435,1640
855.826172,1653
855.943848,1655
856.061646,1641
856.179321,1645
856.296997,1608
856.414795,1693
856.53241,1670
856.650085,1647
856.767822,1682
856.885559,1695
857.003174,1691
857.120911,1707
857.238586,1743
857.356201,1722
857.473938,1680
857.591614,1731
857.709351,1671
857.826965,1679
857.944641,1695
858.062317,1717
858.179993,1704
858.297668,1684
858.415283,1658
858.532959,1694
858.650574,1646
858.768188,1684
858.885803,1717
859.003479,1650
859.121094,1686
859.23877,1659
859.356384,1632
859.473999,1656
859.591675,1657
859.709229,1613
859.826843,1666
859.944458,1577
860.062012,1613
860.179626,1631
860.297302,1565
860.414856,1589
860.532471,1559
860.650024,1609
860.767639,1587
860.885193,1607
861.002808,1587
861.120361,1616
861.237976,1653
861.35553,1605
861.473022,1614
861.590698,1580
861.708191,1636
861.825745,1639
861.943298,1612
862.060852,1593
862.178406,1558
862.295959,1594
862.413513,1552
862.531006,1577
862.64856,1516
862.766113,1501
862.883667,1524
863.00116,1508
863.118713,1544
863.236206,1511
863.353699,1556
863.471252,1503
863.588745,1536
863.706177,1596
863.82373,1527
863.941162,1592
864.058716,1573
864.176208,1567
864.29364,1535
864.411194,1571
864.528687,1554
864.646118,1565
864.763611,1532
864.881042,1523
864.998535,1560
865.116028,1547
865.233459,1513
865.350891,1546
865.468384,1590
865.585754,1555
865.703308,1564
865.820679,1526
865.938171,1499
866.055542,1513
866.173035,1524
866.290466,1568
866.407837,1507
866.52533,1487
866.6427,1538
866.760071,1546
866.877563,1523
866.994934,1548
867.112305,1517
867.229736,1531
867.347107,1528
867.464539,1557
867.58197,1613
867.699341,1611
867.81665,1570
867.934082,1541
868.051453,1598
868.168823,1526
868.286194,1525
868.403564,1591
868.520935,1556
868.638306,1538
868.755676,1553
868.872986,1572
868.990295,1621
869.107727,1579
869.225037,1618
869.342346,1582
869.459717,1601
869.577026,1597
869.694336,1617
869.811707,1618
869.929016,1598
870.046326,1611
870.163635,1690
870.280945,1623
870.398254,1672
870.515564,1699
870.632812,1654
870.750183,1617
870.867432,1685
870.984741,1680
871.102051,1686
871.219299,1703
871.336609,1730
871.453918,1700
871.571106,1752
871.688416,1739
871.805664,1732
871.922852,1737
872.040222,1788
872.157471,1711
872.274719,1698
872.391968,1745
872.509155,1736
872.626465,1707
872.743652,1708
872.860962,1675
872.978149,1726
873.095337,1741
873.212646,1707
873.329834,1663
873.44696,1664
873.564209,1686
873.681396,1684
873.798645,1668
873.915894,1660
874.03302,1689
874.150208,1702
874.267456,1700
874.384583,1679
874.501831,1691
874.618958,1704
874.736145,1749
874.853333,1724
874.970459,1754
875.087646,1756
875.204834,1713
875.32196,1658
875.439148,1678
875.556274,1685
875.673401,1689
875.790527,1698
875.907715,1660
876.024841,1658
876.141968,1638
876.259094,1677
876.376282,1665
876.493347,1615
876.610474,1614
876.7276,1677
876.844727,1624
876.961853,1683
877.078918,1657
877.195984,1616
877.313171,1659
877.430237,1678
877.547302,1606
877.664368,1611
877.781433,1656
877.898499,1615
878.015625,1611
878.13269,1614
878.249695,1592
878.366821,1591
878.483887,1634
878.600952,1581
878.717957,1561
878.834961,1598
878.952087,1564
879.069092,1548
879.186157,1591
879.303162,1569
879.420227,1540
879.537231,1570
879.654236,1541
879.77124,1557
879.888306,1535
880.005249,1541
880.122314,1529
880.239319,1501
880.356323,1520
880.473328,1523
880.590271,1484
880.707275,1529
880.824341,1533
880.941284,1517
881.058228,1512
881.175232,1520
881.292236,1546
881.40918,1529
881.526123,1480
881.643066,1543
881.760071,1527
881.877014,1519
881.993958,1524
882.11084,1528
882.227783,1502
882.344727,1543
882.46167,1533
882.578613,1536
882.695618,1548
882.812439,1481
882.929382,1561
883.046326,1491
883.163208,1539
883.280151,1549
883.397034,1505
883.513916,1536
883.630798,1482
883.747742,1574
883.864563,1519
883.981506,1530
884.098389,1556
884.21521,1601
884.332153,1591
884.448975,1559
884.565796,1651
884.682678,1673
884.7995,1679
884.916443,1715
885.033264,1740
885.150085,1807
885.266968,1890
885.383789,1866
885.500671,1881
885.617493,1924
885.734314,1932
885.851196,1864
885.967896,1927
886.084717,1890
886.201599,1880
886.318359,1960
886.435181,1833
886.552002,1852
886.668762,1881
886.785645,1831
886.902344,1864
887.019165,1817
887.135925,1782
887.252747,1787
887.369446,1765
887.486267,1774
887.603027,1733
887.719788,1704
887.836548,1692
887.953247,1675
888.070068,1715
888.186829,1600
888.303528,1617
888.420288,1603
888.536987,1565
888.653687,1495
888.770447,1506
888.887146,1504
889.003967,1500
889.120667,1502
889.237305,1486
889.354065,1523
889.470703,1484
889.587463,1462
889.704163,1487
889.820862,1448
889.937561,1433
890.054199,1441
890.170837,1468
890.287598,1412
890.404236,1468
890.520874,1452
890.637634,1480
890.754211,1440
890.87085,1461
890.987549,1458
891.104187,1466
891.220886,1479
891.337463,1463
891.454102,1454
891.57074,1501
891.687378,1462
891.804077,1456
891.920654,1470
892.037231,1452
892.15387,1506
892.270447,1446
892.387085,1463
892.503723,1466
892.6203,1456
892.736877,1500
892.853516,1451
892.970032,1445
893.08667,1498
893.203186,1463
893.319763,1450
893.43634,1471
893.552917,1433
893.669556,1483
893.786011,1497
893.902588,1430
894.019165,1494
894.135681,1489
894.252197,1448
894.368835,1448
894.485291,1450
894.601868,1434
894.718384,1468
894.8349,1434
894.951355,1449
895.067932,1455
895.184448,1476
895.300964,1497
895.417419,1480
895.533936,1447
895.650452,1489
895.766907,1449
895.883423,1427
895.999878,1461
896.116333,1433
896.232849,1483
896.349304,1453
896.465759,1490
896.582214,1445
896.698669,1428
896.815125,1478
896.931641,1477
897.048035,1453
897.164551,1529
897.280884,1460
897.397339,1453
897.513794,1437
897.630249,1498
897.746582,1459
897.863098,1461
897.979431,1527
898.095886,1476
898.212341,1455
898.328674,1511
898.445129,1476
898.561462,1510
898.677795,1522
898.794312,1455
898.910645,1474
899.026978,1448
899.143433,1478
899.259766,1511
899.37616,1523
899.492493,1416
899.608765,1528
899.725159,1499
899.841553,1496
899.957947,1521
900.07428,1511
900.190552,1519
900.306946,1498
900.423157,1507
900.53949,1450
900.655884,1533
900.772156,1475
900.888489,1513
901.004822,1520
901.121033,1542
901.237366,1504
901.353699,1472
901.46991,1554
901.586304,1566
901.702515,1550
901.818787,1520
901.93512,1595
902.051331,1594
902.167603,1647
902.283875,1636
902.400085,1607
902.516418,1639
902.632629,1751
902.74884,1717
902.865112,1704
902.981384,1724
903.097595,1769
903.213867,1736
903.330017,1701
903.446289,1652
903.5625,1679
903.67865,1668
903.794922,1650
903.911072,1654
904.027344,1633
904.143494,1647
904.259705,1594
904.375916,1559
904.492065,1574
904.608215,1541
904.724426,1551
904.840576,1527
904.956726,1563
905.072876,1513
905.189087,1531
905.305176,1519
905.421387,1517
905.537537,1535
905.653687,1501
905.769775,1492
905.885925,1507
906.002014,1472
906.118164,1492
906.234314,1487
906.350403,1506
906.466492,1453
906.582642,1482
906.69873,1446
906.814758,1494
906.930908,1474
907.046936,1474
907.163086,1471
907.279175,1445
907.395264,1486
907.511353,1474
907.62738,1469
907.743408,1454
907.859497,1490
907.975525,1450
908.091553,1496
908.207703,1460
908.32373,1480
908.439758,1478
908.555786,1469
908.671814,1445
908.787842,1496
908.90387,1529
909.019775,1489
909.135864,1448
909.251892,1471
909.367859,1443
909.483826,1466
909.599854,1438
909.715881,1520
909.831848,1452
909.947815,1482
910.063782,1503
910.179749,1489
910.295776,1510
910.411743,1490
910.527649,1447
910.643616,1477
910.759583,1515
910.875488,1498
910.991455,1459
911.107361,1422
911.223267,1478
911.339294,1477
911.4552,1476
911.571106,1431
911.687073,1511
911.802979,1456
911.918823,1478
912.034729,1449
912.150635,1459
912.266602,1469
912.382446,1456
912.498352,1483
912.614197,1509
912.730103,1489
912.846008,1407
