792.44574,3984
792.56488,3907
792.68396,3783
792.80304,3700
792.92218,3523
793.041199,3499
793.160339,3374
793.279419,3349
793.398499,3259
793.517578,3117
793.636658,3203
793.755737,3077
793.874817,3031
793.993896,2964
794.112976,2990
794.232056,2807
794.351074,2872
794.470215,2786
794.589233,2758
794.708313,2742
794.827393,2564
794.946411,2638
795.065552,2624
795.18457,2573
795.303589,2591
795.422668,2488
795.541687,2472
795.660767,2440
795.779846,2414
795.898865,2406
796.017883,2381
796.136963,2416
796.255981,2336
796.375061,2293
796.49408,2316
796.613037,2321
796.732117,2296
796.851135,2221
796.970154,2265
797.089233,2205
797.208191,2175
797.327271,2207
797.446228,2156
797.565186,2150
797.684265,2114
797.803223,2174
797.922241,2101
798.04126,2111
798.160278,2109
798.279297,2064
798.398315,2062
798.517273,2030
798.636292,2038
798.75531,2031
798.874268,2076
798.993286,2027
799.112244,1984
799.231323,2025
799.350281,2021
799.469238,1982
799.588257,1986
799.707153,1992
799.826111,1978
799.945129,1992
800.064087,1961
800.183044,1991
800.302063,1963
800.421021,1949
800.539978,1939
800.658936,1927
800.777893,1883
800.896912,1939
801.015747,1948
801.134705,1902
801.253723,1915
801.37262,1924
801.491638,1981
801.610535,1876
801.729492,1908
801.84845,1916
801.967407,1849
802.086243,1865
802.205261,1898
802.324158,1846
802.443115,1829
802.562073,1825
802.680969,1826
802.799927,1842
802.918762,1795
803.037659,1806
803.156677,1836
803.275574,1849
803.39447,1873
803.513428,1830
803.632263,1831
803.751221,1770
803.870117,1788
803.989014,1776
804.107971,1804
804.226746,1830
804.345642,1775
804.4646,1788
804.583496,1747
804.702393,1815
804.821228,1752
804.940125,1777
805.059021,1761
805.177917,1761
805.296814,1810
805.415649,1782
805.534546,1788
805.653442,1722
805.772278,1778
805.891113,1767
806.01001,1755
806.128906,1771
806.247742,1738
806.366577,1723
806.485413,1784
806.604309,1746
806.723145,1712
806.84198,1723
806.960876,1722
807.079712,1704
807.198486,1709
807.317383,1726
807.436218,1710
807.554993,1694
807.673889,1722
807.792725,1689
807.91156,1685
808.030396,1768
808.14917,1694
808.268005,1700
808.386841,1675
808.505676,1682
808.624451,1724
808.743286,1676
808.862122,1675
808.980896,1717
809.099731,1701
809.218506,1643
809.337341,1674
809.456116,1644
809.57489,1713
809.693726,1716
809.8125,1696
809.931274,1692
810.050049,1684
810.168884,1671
810.287659,1677
810.406372,1655
810.525269,1663
810.643982,1696
810.762756,1681
810.881531,1695
811.000305,1665
811.11908,1694
811.237854,1714
811.356567,1698
811.475403,1724
811.594116,1690
811.71283,1710
811.831604,1657
811.950378,1710
812.069153,1733
812.187927,1736
812.30658,1733
812.425415,1671
812.544128,1701
812.662781,1752
812.781616,1725
812.900269,1733
813.019043,1702
813.137756,1625
813.256531,1665
813.375244,1677
813.493896,1687
813.612671,1678
813.731384,1654
813.850037,1680
813.96875,1709
814.087524,1673
814.206238,1644
814.324951,1616
814.443604,1626
814.562256,1664
814.68103,1657
814.799683,1657
814.918335,1642
815.037109,1677
815.155762,1640
815.274475,1675
815.393188,1688
815.511841,1642
815.630554,1626
815.749146,1623
815.867859,1651
815.986572,1603
816.105164,1629
816.223877,1593
816.342529,1611
816.461182,1656
816.579895,1659
816.698486,1607
816.817139,1694
816.935791,1681
817.054504,1710
817.173096,1693
817.291748,1617
817.4104,1618
817.529053,1665
817.647644,1622
817.766235,1623
817.884949,1652
818.00354,1558
818.122192,1581
818.240845,1629
818.359436,1592
818.478088,1619
818.59668,1581
818.715271,1599
818.833923,1561
818.952515,1584
819.071106,1563
819.189758,1560
819.30835,1562
819.426941,1520
819.545532,1591
819.664124,1549
819.782715,1528
819.901306,1540
820.019897,1538
820.138489,1514
820.25708,1573
820.375671,1510
820.494202,1496
820.612732,1562
820.731384,1489
820.849915,1505
820.968506,1509
821.087097,1514
821.205627,1542
821.324158,1485
821.442749,1470
821.561279,1492
821.679871,1515
821.798401,1465
821.916931,1505
822.035461,1545
822.154053,1506
822.272583,1484
822.391174,1455
822.509583,1537
822.628174,1487
822.746704,1488
822.865234,1496
822.983765,1517
823.102295,1488
823.220825,1475
823.339294,1452
823.457825,1487
823.576355,1525
823.694824,1456
823.813354,1446
823.931885,1503
824.050354,1443
824.168884,1471
824.287354,1492
824.405823,1475
824.524353,1486
824.642822,1457
824.761353,1486
824.879822,1513
824.998291,1502
825.116699,1489
825.235291,1476
825.353699,1467
825.472168,1473
825.590637,1459
825.709106,1484
825.827576,1455
825.946045,1484
826.064453,1474
826.182983,1452
826.301392,1416
826.4198,1509
826.53833,1399
826.656738,1419
826.775208,1449
826.893677,1452
827.012024,1440
827.130493,1465
827.248962,1430
827.36731,1414
827.485779,1500
827.604248,1425
827.722595,1436
827.841064,1413
827.959412,1423
828.077942,1465
828.196289,1380
828.314636,1414
828.433105,1434
828.551514,1433
828.669861,1444
828.78833,1445
828.906677,1445
829.025085,1441
829.143433,1465
829.261841,1382
829.38031,1417
829.498657,1432
829.617004,1450
829.735413,1419
829.85376,1447
829.972107,1413
830.090515,1392
830.208862,1436
830.327209,1382
830.445557,1364
830.563904,1425
830.682312,1419
830.800659,1457
830.919006,1488
831.037354,1458
831.155701,1506
831.274048,1453
831.392395,1511
831.51062,1458
831.629028,1461
831.747314,1473
831.865662,1458
831.984009,1467
832.102356,1454
832.220642,1474
832.338928,1451
832.457275,1480
832.575623,1484
832.693909,1509
832.812134,1479
832.930481,1466
833.048828,1481
833.167114,1435
833.2854,1415
833.403687,1464
833.521973,1427
833.640259,1447
833.758545,1460
833.876831,1434
833.995056,1449
834.113281,1495
834.231628,1484
834.349915,1486
834.468201,1482
834.586426,1451
834.704651,1468
834.822998,1481
834.941162,1425
835.059448,1459
835.177673,1452
835.295959,1437
835.414246,1507
835.53241,1491
835.650635,1478
835.768921,1459
835.887146,1414
836.005371,1445
836.123596,1427
836.241821,1445
836.360046,1443
836.478271,1442
836.596497,1422
836.714722,1424
836.832886,1411
836.95105,1421
837.069336,1466
837.1875,1427
837.305725,1442
837.423889,1401
837.542053,1459
837.660339,1421
837.778503,1429
837.896667,1443
838.014832,1451
838.132996,1417
838.25116,1442
838.369385,1442
838.487488,1500
838.605713,1511
838.723877,1498
838.84198,1486
838.960205,1456
839.078308,1477
839.196472,1506
839.314636,1490
839.4328,1470
839.550964,1472
839.669067,1493
839.787231,1522
839.905396,1491
840.023499,1492
840.141602,1572
840.259766,1548
840.377869,1492
840.495972,1528
840.614136,1507
840.732239,1572
840.850342,1562
840.968445,1545
841.086548,1558
841.204651,1554
841.322754,1572
841.440918,1571
841.55896,1552
841.677002,1569
841.795166,1612
841.913208,1566
842.031311,1571
842.149353,1592
842.267456,1583
842.385498,1583
842.503601,1571
842.621643,1506
842.739746,1507
842.857788,1502
842.97583,1569
843.093933,1586
843.211975,1549
843.330017,1565
843.44812,1551
843.566101,1580
843.684204,1545
843.802246,1607
843.920227,1550
844.038269,1526
844.156311,1525
844.274292,1570
844.392395,1540
844.510376,1588
844.628357,1507
844.74646,1535
844.864441,1549
844.982422,1502
845.100403,1545
845.218384,1541
845.336426,1510
845.454468,1531
845.572449,1546
845.69043,1536
845.808411,1509
845.926453,1555
846.044373,1477
846.162354,1511
846.280396,1485
846.398315,1522
846.516296,1509
846.634216,1523
846.752197,1499
846.870178,1574
846.988098,1573
847.106079,1514
847.22406,1524
847.34198,1530
847.4599,1538
847.577881,1542
847.695801,1537
847.813782,1537
847.931641,1570
848.049561,1490
848.167603,1527
848.285461,1570
848.403381,1559
848.521362,1517
848.639221,1545
848.75708,1492
848.875,1570
848.99292,1563
849.110901,1541
849.22876,1544
849.34668,1556
849.464539,1498
849.582458,1532
849.700317,1507
849.818176,1537
849.936096,1530
850.053955,1568
850.171875,1529
850.289673,1553
850.407593,1560
850.525452,1564
850.643311,1544
850.761169,1510
850.878967,1550
850.996887,1530
851.114746,1512
851.232544,1494
851.350403,1543
851.468262,1515
851.58606,1519
851.703979,1457
851.821777,1545
851.939636,1564
852.057434,1495
852.175232,1541
852.293091,1594
852.410889,1605
852.528687,1599
852.646545,1691
852.764343,1646
852.88208,1680
852.999939,1600
853.117676,1593
853.235535,1589
853.353271,1559
853.471069,1553
853.588928,1520
853.706604,1558
853.824402,1595
853.9422,1563
854.059998,1553
854.177734,1523
854.295532,1511
854.413269,1598
854.531006,1582
854.648804,1571
854.766541,1607
854.884277,1574
855.002014,1579
855.119751,1574
855.237549,1544
855.355225,1540
855.473022,1549
855.590698,1517
855.708435,1545
855.826172,1526
855.943848,1551
856.061646,1536
856.179321,1566
856.296997,1531
856.414795,1586
856.53241,1559
856.650085,1585
856.767822,1589
856.885559,1636
857.003174,1567
857.120911,1622
857.238586,1598
857.356201,1573
857.473938,1604
857.591614,1568
857.709351,1581
857.826965,1588
857.944641,1553
858.062317,1569
858.179993,1608
858.297668,1573
858.415283,1605
858.532959,1570
858.650574,1611
858.768188,1590
858.885803,1544
859.003479,1563
859.121094,1543
859.23877,1563
859.356384,1568
859.473999,1546
859.591675,1544
859.709229,1558
859.826843,1545
859.944458,1494
860.062012,1547
860.179626,1486
860.297302,1550
860.414856,1527
860.532471,1488
860.650024,1489
860.767639,1512
860.885193,1512
861.002808,1487
861.120361,1493
861.237976,1530
861.35553,1555
861.473022,1502
861.590698,1493
861.708191,1551
861.825745,1548
861.943298,1547
862.060852,1492
862.178406,1526
862.295959,1448
862.413513,1440
862.531006,1423
862.64856,1502
862.766113,1432
862.883667,1408
863.00116,1439
863.118713,1477
863.236206,1464
863.353699,1469
863.471252,1481
863.588745,1464
863.706177,1505
863.82373,1492
863.941162,1482
864.058716,1518
864.176208,1505
864.29364,1489
864.411194,1448
864.528687,1509
864.646118,1478
864.763611,1396
864.881042,1482
864.998535,1424
865.116028,1442
865.233459,1460
865.350891,1456
865.468384,1437
865.585754,1478
865.703308,1436
865.820679,1440
865.938171,1452
866.055542,1474
866.173035,1409
866.290466,1463
866.407837,1434
866.52533,1466
866.6427,1437
866.760071,1425
866.877563,1479
866.994934,1473
867.112305,1477
867.229736,1461
867.347107,1507
867.464539,1458
867.58197,1511
867.699341,1474
867.81665,1518
867.934082,1512
868.051453,1517
868.168823,1474
868.286194,1487
868.403564,1475
868.520935,1477
868.638306,1509
868.755676,1537
868.872986,1485
868.990295,1523
869.107727,1526
869.225037,1500
869.342346,1460
869.459717,1524
869.577026,1540
869.694336,1523
869.811707,1520
869.929016,1534
870.046326,1583
870.163635,1585
870.280945,1600
870.398254,1572
870.515564,1583
870.632812,1595
870.750183,1608
870.867432,1592
870.984741,1613
871.102051,1579
871.219299,1593
871.336609,1650
871.453918,1635
871.571106,1679
871.688416,1608
871.805664,1629
871.922852,1671
872.040222,1661
872.157471,1669
872.274719,1719
872.391968,1618
872.509155,1636
872.626465,1661
872.743652,1658
872.860962,1606
872.978149,1618
873.095337,1623
873.212646,1629
873.329834,1562
873.44696,1625
873.564209,1562
873.681396,1590
873.798645,1582
873.915894,1598
874.03302,1594
874.150208,1597
874.267456,1613
874.384583,1627
874.501831,1676
874.618958,1620
874.736145,1670
874.853333,1668
874.970459,1670
875.087646,1619
875.204834,1625
875.32196,1594
875.439148,1640
875.556274,1586
875.673401,1582
875.790527,1569
875.907715,1555
876.024841,1519
876.141968,1558
876.259094,1584
876.376282,1555
876.493347,1558
876.610474,1575
876.7276,1522
876.844727,1510
876.961853,1527
877.078918,1510
877.195984,1538
877.313171,1520
877.430237,1553
877.547302,1536
877.664368,1549
877.781433,1579
877.898499,1528
878.015625,1531
878.13269,1488
878.249695,1503
878.366821,1475
878.483887,1484
878.600952,1523
878.717957,1522
878.834961,1513
878.952087,1487
879.069092,1481
879.186157,1472
879.303162,1487
879.420227,1499
879.537231,1470
879.654236,1417
879.77124,1466
879.888306,1464
880.005249,1463
880.122314,1469
880.239319,1478
880.356323,1440
880.473328,1435
880.590271,1465
880.707275,1439
880.824341,1445
880.941284,1400
881.058228,1471
881.175232,1482
881.292236,1451
881.40918,1447
881.526123,1437
881.643066,1437
881.760071,1460
881.877014,1421
881.993958,1490
882.11084,1427
882.227783,1417
882.344727,1440
882.46167,1449
882.578613,1468
882.695618,1441
882.812439,1435
882.929382,1472
883.046326,1442
883.163208,1450
883.280151,1473
883.397034,1420
883.513916,1422
883.630798,1526
883.747742,1465
883.864563,1498
883.981506,1488
884.098389,1452
884.21521,1520
884.332153,1501
884.448975,1563
884.565796,1557
884.682678,1578
884.7995,1609
884.916443,1695
885.033264,1692
885.150085,1802
885.266968,1800
885.383789,1834
885.500671,1889
885.617493,1871
885.734314,1870
885.851196,1852
885.967896,1876
886.084717,1837
886.201599,1886
886.318359,1823
886.435181,1769
886.552002,1762
886.668762,1789
886.785645,1780
886.902344,1763
887.019165,1731
887.135925,1729
887.252747,1706
887.369446,1657
887.486267,1665
887.603027,1645
887.719788,1618
887.836548,1592
887.953247,1601
888.070068,1545
888.186829,1529
888.303528,1506
888.420288,1479
888.536987,1476
888.653687,1433
888.770447,1486
888.887146,1433
889.003967,1427
889.120667,1427
889.237305,1411
889.354065,1400
889.470703,1413
889.587463,1355
889.704163,1387
889.820862,1381
889.937561,1395
890.054199,1396
890.170837,1401
890.287598,1394
890.404236,1395
890.520874,1434
890.637634,1405
890.754211,1408
890.87085,1434
890.987549,1433
891.104187,1413
891.220886,1423
891.337463,1446
891.454102,1411
891.57074,1369
891.687378,1452
891.804077,1399
891.920654,1398
892.037231,1400
892.15387,1408
892.270447,1450
892.387085,1433
892.503723,1418
892.6203,1423
892.736877,1393
892.853516,1406
892.970032,1424
893.08667,1443
893.203186,1379
893.319763,1374
893.43634,1384
893.552917,1421
893.669556,1415
893.786011,1400
893.902588,1389
894.019165,1399
894.135681,1411
894.252197,1393
894.368835,1414
894.485291,1422
894.601868,1427
894.718384,1409
894.8349,1398
894.951355,1436
895.067932,1406
895.184448,1403
895.300964,1411
895.417419,1453
895.533936,1410
895.650452,1403
895.766907,1383
895.883423,1437
895.999878,1372
896.116333,1407
896.232849,1399
896.349304,1367
896.465759,1384
896.582214,1395
896.698669,1432
896.815125,1383
896.931641,1391
897.048035,1396
897.164551,1428
897.280884,1396
897.397339,1381
897.513794,1408
897.630249,1423
897.746582,1464
897.863098,1420
897.979431,1433
898.095886,1399
898.212341,1447
898.328674,1447
898.445129,1437
898.561462,1408
898.677795,1449
898.794312,1429
898.910645,1450
899.026978,1420
899.143433,1421
899.259766,1406
899.37616,1417
899.492493,1431
899.608765,1440
899.725159,1425
899.841553,1450
899.957947,1413
900.07428,1454
900.190552,1428
900.306946,1452
900.423157,1436
900.53949,1473
900.655884,1417
900.772156,1433
900.888489,1423
901.004822,1481
901.121033,1429
901.237366,1419
901.353699,1466
901.46991,1454
901.586304,1513
901.702515,1501
901.818787,1506
901.93512,1502
902.051331,1542
902.167603,1525
902.283875,1573
902.400085,1569
902.516418,1635
902.632629,1632
902.74884,1644
902.865112,1654
902.981384,1656
903.097595,1676
903.213867,1656
903.330017,1637
903.446289,1639
903.5625,1630
903.67865,1625
903.794922,1592
903.911072,1580
904.027344,1543
904.143494,1543
904.259705,1577
904.375916,1496
904.492065,1470
904.608215,1510
904.724426,1500
904.840576,1509
904.956726,1528
905.072876,1474
905.189087,1453
905.305176,1488
905.421387,1454
905.537537,1428
905.653687,1442
905.769775,1418
905.885925,1435
906.002014,1458
906.118164,1415
906.234314,1425
906.350403,1392
906.466492,1441
906.582642,1368
906.69873,1439
906.814758,1441
906.930908,1432
907.046936,1411
907.163086,1413
907.279175,1400
907.395264,1359
907.511353,1382
907.62738,1433
907.743408,1375
907.859497,1451
907.975525,1415
908.091553,1388
908.207703,1429
908.32373,1409
908.439758,1406
908.555786,1386
908.671814,1401
908.787842,1410
908.90387,1420
909.019775,1401
909.135864,1393
909.251892,1416
909.367859,1451
909.483826,1418
909.599854,1370
909.715881,1406
909.831848,1434
909.947815,1449
910.063782,1409
910.179749,1428
910.295776,1403
910.411743,1423
910.527649,1406
910.643616,1429
910.759583,1403
910.875488,1440
910.991455,1450
911.107361,1411
911.223267,1428
911.339294,1406
911.4552,1385
911.571106,1364
911.687073,1363
911.802979,1411
911.918823,1402
912.034729,1387
912.150635,1390
912.266602,1416
912.382446,1391
912.498352,1372
912.614197,1404
912.730103,1362
912.846008,1402
792.44574,4098
792.56488,3857
792.68396,3878
792.80304,3770
792.92218,3662
793.041199,3446
793.160339,3450
793.279419,3448
793.398499,3374
793.517578,3264
793.636658,3181
793.755737,3165
793.874817,3058
793.993896,2979
794.112976,2954
794.232056,2946
794.351074,2831
794.470215,2824
794.589233,2784
794.708313,2748
794.827393,2726
794.946411,2648
795.065552,2692
795.18457,2663
795.303589,2581
795.422668,2585
795.541687,2556
795.660767,2523
795.779846,2512
795.898865,2469
796.017883,2424
796.136963,2362
796.255981,2346
796.375061,2406
796.49408,2360
796.613037,2301
796.732117,2313
796.851135,2295
796.970154,2273
797.089233,2250
797.208191,2220
797.327271,2204
797.446228,2238
797.565186,2176
797.684265,2170
797.803223,2198
797.922241,2175
798.04126,2103
798.160278,2118
798.279297,2116
798.398315,2110
798.517273,2135
798.636292,2048
798.75531,2103
798.874268,2074
798.993286,2087
799.112244,2019
799.231323,2053
799.350281,2066
799.469238,2019
799.588257,2035
799.707153,2039
799.826111,2016
799.945129,2091
800.064087,1981
800.183044,2005
800.302063,2036
800.421021,1985
800.539978,1938
800.658936,1928
800.777893,2000
800.896912,1984
801.015747,1927
801.134705,1956
801.253723,1972
801.37262,1893
801.491638,1934
801.610535,1846
801.729492,1941
801.84845,1884
801.967407,1933
802.086243,1897
802.205261,1919
802.324158,1890
802.443115,1890
802.562073,1880
802.680969,1900
802.799927,1879
802.918762,1870
803.037659,1880
803.156677,1843
803.275574,1835
803.39447,1845
803.513428,1846
803.632263,1815
803.751221,1878
803.870117,1815
803.989014,1836
804.107971,1879
804.226746,1852
804.345642,1819
804.4646,1832
804.583496,1801
804.702393,1813
804.821228,1830
804.940125,1827
805.059021,1758
805.177917,1815
805.296814,1761
805.415649,1824
805.534546,1781
805.653442,1786
805.772278,1775
805.891113,1792
806.01001,1769
806.128906,1759
806.247742,1758
806.366577,1767
806.485413,1818
806.604309,1775
806.723145,1770
806.84198,1782
806.960876,1749
807.079712,1772
807.198486,1776
807.317383,1788
807.436218,1770
807.554993,1744
807.673889,1749
807.792725,1744
807.91156,1731
808.030396,1704
808.14917,1747
808.268005,1713
808.386841,1755
808.505676,1665
808.624451,1723
808.743286,1698
808.862122,1700
808.980896,1678
809.099731,1707
809.218506,1698
809.337341,1693
809.456116,1699
809.57489,1692
809.693726,1707
809.8125,1707
809.931274,1680
810.050049,1724
810.168884,1680
810.287659,1695
810.406372,1714
810.525269,1703
810.643982,1710
810.762756,1717
810.881531,1767
811.000305,1701
811.11908,1688
811.237854,1675
811.356567,1707
811.475403,1752
811.594116,1686
811.71283,1706
811.831604,1691
811.950378,1744
812.069153,1708
812.187927,1766
812.30658,1736
812.425415,1711
812.544128,1677
812.662781,1719
812.781616,1746
812.900269,1706
813.019043,1715
813.137756,1733
813.256531,1687
813.375244,1726
813.493896,1704
813.612671,1715
813.731384,1660
813.850037,1649
813.96875,1717
814.087524,1683
814.206238,1651
814.324951,1690
814.443604,1650
814.562256,1678
814.68103,1708
814.799683,1670
814.918335,1698
815.037109,1666
815.155762,1695
815.274475,1669
815.393188,1702
815.511841,1668
815.630554,1658
815.749146,1679
815.867859,1630
815.986572,1670
816.105164,1632
816.223877,1659
816.342529,1647
816.461182,1649
816.579895,1686
816.698486,1709
816.817139,1676
816.935791,1653
817.054504,1685
817.173096,1723
817.291748,1664
817.4104,1664
817.529053,1612
817.647644,1634
817.766235,1569
817.884949,1698
818.00354,1626
818.122192,1634
818.240845,1598
818.359436,1611
818.478088,1584
818.59668,1611
818.715271,1586
818.833923,1603
818.952515,1600
819.071106,1574
819.189758,1591
819.30835,1570
819.426941,1550
819.545532,1546
819.664124,1548
819.782715,1556
819.901306,1546
820.019897,1509
820.138489,1539
820.25708,1518
820.375671,1572
820.494202,1535
820.612732,1575
820.731384,1591
820.849915,1512
820.968506,1545
821.087097,1544
821.205627,1517
821.324158,1540
821.442749,1542
821.561279,1483
821.679871,1530
821.798401,1483
821.916931,1485
822.035461,1522
822.154053,1528
822.272583,1529
822.391174,1519
822.509583,1517
822.628174,1508
822.746704,1483
822.865234,1515
822.983765,1482
823.102295,1493
823.220825,1513
823.339294,1470
823.457825,1520
823.576355,1491
823.694824,1480
823.813354,1494
823.931885,1506
824.050354,1506
824.168884,1494
824.287354,1490
824.405823,1490
824.524353,1510
824.642822,1500
824.761353,1539
824.879822,1507
824.998291,1515
825.116699,1524
825.235291,1518
825.353699,1489
825.472168,1473
825.590637,1523
825.709106,1465
825.827576,1529
825.946045,1498
826.064453,1506
826.182983,1496
826.301392,1482
826.4198,1487
826.53833,1477
826.656738,1431
826.775208,1442
826.893677,1439
827.012024,1480
827.130493,1489
827.248962,1506
827.36731,1534
827.485779,1482
827.604248,1521
827.722595,1435
827.841064,1463
827.959412,1454
828.077942,1452
828.196289,1444
828.314636,1450
828.433105,1431
828.551514,1436
828.669861,1440
828.78833,1459
828.906677,1463
829.025085,1449
829.143433,1416
829.261841,1458
829.38031,1520
829.498657,1457
829.617004,1442
829.735413,1479
829.85376,1428
829.972107,1470
830.090515,1456
830.208862,1425
830.327209,1448
830.445557,1409
830.563904,1428
830.682312,1423
830.800659,1468
830.919006,1453
831.037354,1480
831.155701,1475
831.274048,1481
831.392395,1532
831.51062,1467
831.629028,1507
831.747314,1442
831.865662,1475
831.984009,1449
832.102356,1513
832.220642,1466
832.338928,1485
832.457275,1476
832.575623,1483
832.693909,1498
832.812134,1503
832.930481,1474
833.048828,1466
833.167114,1484
833.2854,1454
833.403687,1467
833.521973,1464
833.640259,1475
833.758545,1487
833.876831,1463
833.995056,1467
834.113281,1465
834.231628,1480
834.349915,1491
834.468201,1509
834.586426,1482
834.704651,1473
834.822998,1486
834.941162,1512
835.059448,1490
835.177673,1526
835.295959,1464
835.414246,1490
835.53241,1442
835.650635,1445
835.768921,1465
835.887146,1460
836.005371,1480
836.123596,1462
836.241821,1462
836.360046,1439
836.478271,1495
836.596497,1432
836.714722,1444
836.832886,1472
836.95105,1457
837.069336,1469
837.1875,1422
837.305725,1431
837.423889,1402
837.542053,1446
837.660339,1420
837.778503,1443
837.896667,1447
838.014832,1441
838.132996,1471
838.25116,1439
838.369385,1506
838.487488,1490
838.605713,1465
838.723877,1464
838.84198,1486
838.960205,1454
839.078308,1521
839.196472,1461
839.314636,1524
839.4328,1508
839.550964,1523
839.669067,1511
839.787231,1488
839.905396,1533
840.023499,1529
840.141602,1514
840.259766,1562
840.377869,1567
840.495972,1567
840.614136,1550
840.732239,1542
840.850342,1531
840.968445,1571
841.086548,1597
841.204651,1592
841.322754,1583
841.440918,1588
841.55896,1620
841.677002,1616
841.795166,1626
841.913208,1595
842.031311,1628
842.149353,1614
842.267456,1577
842.385498,1597
842.503601,1617
842.621643,1603
842.739746,1609
842.857788,1583
842.97583,1599
843.093933,1575
843.211975,1614
843.330017,1634
843.44812,1591
843.566101,1612
843.684204,1588
843.802246,1617
843.920227,1608
844.038269,1601
844.156311,1600
844.274292,1570
844.392395,1610
844.510376,1621
844.628357,1597
844.74646,1535
844.864441,1549
844.982422,1547
845.100403,1531
845.218384,1513
845.336426,1521
845.454468,1551
845.572449,1596
845.69043,1512
845.808411,1526
845.926453,1516
846.044373,1529
846.162354,1523
846.280396,1580
846.398315,1495
846.516296,1545
846.634216,1548
846.752197,1581
846.870178,1561
846.988098,1515
847.106079,1541
847.22406,1597
847.34198,1575
847.4599,1569
847.577881,1554
847.695801,1579
847.813782,1536
847.931641,1526
848.049561,1536
848.167603,1503
848.285461,1581
848.403381,1508
848.521362,1553
848.639221,1551
848.75708,1539
848.875,1539
848.99292,1524
849.110901,1587
849.22876,1530
849.34668,1596
849.464539,1583
849.582458,1601
849.700317,1556
849.818176,1573
849.936096,1577
850.053955,1571
850.171875,1590
850.289673,1561
850.407593,1562
850.525452,1519
850.643311,1582
850.761169,1556
850.878967,1541
850.996887,1559
851.114746,1533
851.232544,1563
851.350403,1512
851.468262,1557
851.58606,1548
851.703979,1540
851.821777,1543
851.939636,1560
852.057434,1527
852.175232,1542
852.293091,1548
852.410889,1628
852.528687,1704
852.646545,1716
852.764343,1692
852.88208,1636
852.999939,1650
853.117676,1576
853.235535,1595
853.353271,1596
853.471069,1609
853.588928,1569
853.706604,1568
853.824402,1590
853.9422,1570
854.059998,1531
854.177734,1599
854.295532,1573
854.413269,1561
854.531006,1593
854.648804,1563
854.766541,1578
854.884277,1551
855.002014,1580
855.119751,1579
855.237549,1591
855.355225,1576
855.473022,1581
855.590698,1593
855.708435,1597
855.826172,1561
855.943848,1586
856.061646,1601
856.179321,1584
856.296997,1540
856.414795,1598
856.53241,1587
856.650085,1598
856.767822,1615
856.885559,1617
857.003174,1623
857.120911,1650
857.238586,1652
857.356201,1676
857.473938,1628
857.591614,1614
857.709351,1630
857.826965,1611
857.944641,1590
858.062317,1601
858.179993,1583
858.297668,1622
858.415283,1597
858.532959,1612
858.650574,1606
858.768188,1627
858.885803,1621
859.003479,1591
859.121094,1601
859.23877,1576
859.356384,1625
859.473999,1541
859.591675,1539
859.709229,1565
859.826843,1550
859.944458,1556
860.062012,1538
860.179626,1562
860.297302,1531
860.414856,1570
860.532471,1517
860.650024,1545
860.767639,1578
860.885193,1555
861.002808,1560
861.120361,1551
861.237976,1535
861.35553,1553
861.473022,1534
861.590698,1533
861.708191,1532
861.825745,1530
861.943298,1542
862.060852,1503
862.178406,1508
862.295959,1502
862.413513,1525
862.531006,1460
862.64856,1523
862.766113,1497
862.883667,1474
863.00116,1494
863.118713,1441
863.236206,1505
863.353699,1457
863.471252,1491
863.588745,1559
863.706177,1478
863.82373,1549
863.941162,1514
864.058716,1492
864.176208,1502
864.29364,1486
864.411194,1490
864.528687,1483
864.646118,1475
864.763611,1475
864.881042,1456
864.998535,1532
865.116028,1514
865.233459,1454
865.350891,1502
865.468384,1484
865.585754,1497
865.703308,1490
865.820679,1477
865.938171,1457
866.055542,1496
866.173035,1481
866.290466,1498
866.407837,1491
866.52533,1458
866.6427,1494
866.760071,1549
866.877563,1506
866.994934,1455
867.112305,1505
867.229736,1526
867.347107,1530
867.464539,1512
867.58197,1503
867.699341,1566
867.81665,1535
867.934082,1528
868.051453,1512
868.168823,1544
868.286194,1532
868.403564,1522
868.520935,1481
868.638306,1467
868.755676,1561
868.872986,1518
868.990295,1546
869.107727,1590
869.225037,1547
869.342346,1553
869.459717,1531
869.577026,1589
869.694336,1539
869.811707,1539
869.929016,1636
870.046326,1613
870.163635,1597
870.280945,1596
870.398254,1612
870.515564,1621
870.632812,1585
870.750183,1612
870.867432,1611
870.984741,1597
871.102051,1671
871.219299,1612
871.336609,1675
871.453918,1670
871.571106,1660
871.688416,1666
871.805664,1617
871.922852,1595
872.040222,1681
872.157471,1722
872.274719,1643
872.391968,1698
872.509155,1645
872.626465,1678
872.743652,1666
872.860962,1659
872.978149,1658
873.095337,1605
873.212646,1624
873.329834,1615
873.44696,1630
873.564209,1637
873.681396,1646
873.798645,1670
873.915894,1627
874.03302,1610
874.150208,1629
874.267456,1668
874.384583,1659
874.501831,1652
874.618958,1654
874.736145,1697
874.853333,1666
874.970459,1673
875.087646,1716
875.204834,1675
875.32196,1675
875.439148,1666
875.556274,1595
875.673401,1598
875.790527,1600
875.907715,1587
876.024841,1579
876.141968,1602
876.259094,1570
876.376282,1650
876.493347,1573
876.610474,1612
876.7276,1566
876.844727,1618
876.961853,1581
877.078918,1569
877.195984,1563
877.313171,1560
877.430237,1604
877.547302,1572
877.664368,1546
877.781433,1578
877.898499,1627
878.015625,1592
878.13269,1547
878.249695,1550
878.366821,1536
878.483887,1528
878.600952,1551
878.717957,1507
878.834961,1510
878.952087,1498
879.069092,1531
879.186157,1538
879.303162,1508
879.420227,1463
879.537231,1488
879.654236,1484
879.77124,1524
879.888306,1454
880.005249,1467
880.122314,1487
880.239319,1478
880.356323,1492
880.473328,1482
880.590271,1492
880.707275,1428
880.824341,1477
880.941284,1493
881.058228,1489
881.175232,1465
881.292236,1489
881.40918,1442
881.526123,1458
881.643066,1425
881.760071,1439
881.877014,1473
881.993958,1489
882.11084,1471
882.227783,1450
882.344727,1442
882.46167,1481
882.578613,1469
882.695618,1479
882.812439,1472
882.929382,1423
883.046326,1477
883.163208,1456
883.280151,1443
883.397034,1500
883.513916,1436
883.630798,1546
883.747742,1494
883.864563,1491
883.981506,1517
884.098389,1517
884.21521,1534
884.332153,1526
884.448975,1513
884.565796,1557
884.682678,1635
884.7995,1664
884.916443,1721
885.033264,1718
885.150085,1788
885.266968,1883
885.383789,1870
885.500671,1921
885.617493,1873
885.734314,1909
885.851196,1906
885.967896,1843
886.084717,1863
886.201599,1926
886.318359,1833
886.435181,1807
886.552002,1838
886.668762,1813
886.785645,1840
886.902344,1785
887.019165,1742
887.135925,1742
887.252747,1765
887.369446,1710
887.486267,1719
887.603027,1667
887.719788,1616
887.836548,1624
887.953247,1568
888.070068,1577
888.186829,1535
888.303528,1559
888.420288,1495
888.536987,1517
888.653687,1475
888.770447,1503
888.887146,1483
889.003967,1455
889.120667,1461
889.237305,1474
889.354065,1458
889.470703,1457
889.587463,1435
889.704163,1415
889.820862,1404
889.937561,1430
890.054199,1429
890.170837,1422
890.287598,1441
890.404236,1397
890.520874,1444
890.637634,1424
890.754211,1448
890.87085,1447
890.987549,1462
891.104187,1436
891.220886,1458
891.337463,1472
891.454102,1449
891.57074,1430
891.687378,1452
891.804077,1427
891.920654,1450
892.037231,1401
892.15387,1433
892.270447,1425
892.387085,1458
892.503723,1470
892.6203,1393
892.736877,1499
892.853516,1421
892.970032,1433
893.08667,1424
893.203186,1465
893.319763,1416
893.43634,1441
893.552917,1451
893.669556,1400
893.786011,1455
893.902588,1461
894.019165,1424
894.135681,1403
894.252197,1405
894.368835,1465
894.485291,1443
894.601868,1427
894.718384,1425
894.8349,1443
894.951355,1433
895.067932,1386
895.184448,1443
895.300964,1424
895.417419,1439
895.533936,1437
895.650452,1399
895.766907,1460
895.883423,1418
895.999878,1401
896.116333,1441
896.232849,1440
896.349304,1389
896.465759,1403
896.582214,1464
896.698669,1457
896.815125,1404
896.931641,1467
897.048035,1403
897.164551,1479
897.280884,1415
897.397339,1427
897.513794,1473
897.630249,1450
897.746582,1432
897.863098,1440
897.979431,1421
898.095886,1490
898.212341,1398
898.328674,1471
898.445129,1428
898.561462,1463
898.677795,1442
898.794312,1499
898.910645,1407
899.026978,1447
899.143433,1482
899.259766,1455
899.37616,1485
899.492493,1441
899.608765,1512
899.725159,1482
899.841553,1494
899.957947,1437
900.07428,1441
900.190552,1445
900.306946,1437
900.423157,1452
900.53949,1465
900.655884,1474
900.772156,1450
900.888489,1473
901.004822,1449
901.121033,1485
901.237366,1442
901.353699,1460
901.46991,1462
901.586304,1515
901.702515,1525
901.818787,1501
901.93512,1538
902.051331,1545
902.167603,1592
902.283875,1585
902.400085,1661
902.516418,1709
902.632629,1676
902.74884,1679
902.865112,1670
902.981384,1694
903.097595,1642
903.213867,1677
903.330017,1639
903.446289,1646
903.5625,1681
903.67865,1627
903.794922,1598
903.911072,1581
904.027344,1605
904.143494,1556
904.259705,1565
904.375916,1541
904.492065,1541
904.608215,1557
904.724426,1562
904.840576,1498
904.956726,1500
905.072876,1514
905.189087,1495
905.305176,1502
905.421387,1504
905.537537,1486
905.653687,1468
905.769775,1460
905.885925,1474
906.002014,1448
906.118164,1451
906.234314,1433
906.350403,1438
906.466492,1436
906.582642,1507
906.69873,1414
906.814758,1485
906.930908,1471
907.046936,1402
907.163086,1470
907.279175,1433
907.395264,1457
907.511353,1423
907.62738,1432
907.743408,1432
907.859497,1464
907.975525,1417
908.091553,1416
908.207703,1433
908.32373,1465
908.439758,1458
908.555786,1433
908.671814,1432
908.787842,1466
908.90387,1433
909.019775,1468
909.135864,1384
909.251892,1448
909.367859,1426
909.483826,1480
909.599854,1454
909.715881,1439
909.831848,1447
909.947815,1419
910.063782,1477
910.179749,1447
910.295776,1472
910.411743,1462
910.527649,1457
910.643616,1431
910.759583,1408
910.875488,1487
910.991455,1474
911.107361,1433
911.223267,1439
911.339294,1438
911.4552,1448
911.571106,1479
911.687073,1439
911.802979,1417
911.918823,1431
912.034729,1438
912.150635,1397
912.266602,1460
912.382446,1376
912.498352,1451
912.614197,1469
912.730103,1396
912.846008,1397
792.44574,4073
792.56488,3988
792.68396,3860
792.80304,3789
792.92218,3611
793.041199,3544
793.160339,3410
793.279419,3445
793.398499,3370
793.517578,3256
793.636658,3233
793.755737,3207
793.874817,3095
793.993896,3015
794.112976,2934
794.232056,2928
794.351074,2853
794.470215,2818
794.589233,2800
794.708313,2745
794.827393,2658
794.946411,2733
795.065552,2670
795.18457,2642
795.303589,2653
795.422668,2546
795.541687,2499
795.660767,2556
795.779846,2464
795.898865,2518
796.017883,2458
796.136963,2397
796.255981,2409
796.375061,2347
796.49408,2324
796.613037,2338
796.732117,2268
796.851135,2280
796.970154,2302
797.089233,2267
797.208191,2228
797.327271,2171
797.446228,2144
797.565186,2147
797.684265,2225
797.803223,2163
797.922241,2157
798.04126,2121
798.160278,2126
798.279297,2126
798.398315,2113
798.517273,2040
798.636292,2064
798.75531,2073
798.874268,2112
798.993286,2108
799.112244,2023
799.231323,2047
799.350281,2088
799.469238,2069
799.588257,2069
799.707153,2072
799.826111,2040
799.945129,2030
800.064087,2035
800.183044,2009
800.302063,2047
800.421021,2010
800.539978,1917
800.658936,1980
800.777893,1992
800.896912,1970
801.015747,1951
801.134705,1966
801.253723,1937
801.37262,1927
801.491638,1965
801.610535,1920
801.729492,1920
801.84845,1966
801.967407,1927
802.086243,1936
802.205261,1913
802.324158,1946
802.443115,1872
802.562073,1876
802.680969,1898
802.799927,1814
802.918762,1893
803.037659,1902
803.156677,1920
803.275574,1860
803.39447,1872
803.513428,1855
803.632263,1870
803.751221,1828
803.870117,1799
803.989014,1874
804.107971,1815
804.226746,1852
804.345642,1825
804.4646,1826
804.583496,1817
804.702393,1804
804.821228,1787
804.940125,1783
805.059021,1792
805.177917,1825
805.296814,1786
805.415649,1809
805.534546,1799
805.653442,1786
805.772278,1799
805.891113,1779
806.01001,1811
806.128906,1807
806.247742,1772
806.366577,1781
806.485413,1837
806.604309,1799
806.723145,1765
806.84198,1756
806.960876,1740
807.079712,1753
807.198486,1699
807.317383,1726
807.436218,1732
807.554993,1759
807.673889,1746
807.792725,1756
807.91156,1756
808.030396,1753
808.14917,1730
808.268005,1711
808.386841,1744
808.505676,1705
808.624451,1738
808.743286,1749
808.862122,1701
808.980896,1732
809.099731,1723
809.218506,1727
809.337341,1719
809.456116,1719
809.57489,1744
809.693726,1730
809.8125,1733
809.931274,1714
810.050049,1724
810.168884,1735
810.287659,1727
810.406372,1726
810.525269,1691
810.643982,1671
810.762756,1741
810.881531,1689
811.000305,1756
811.11908,1749
811.237854,1685
811.356567,1733
811.475403,1723
811.594116,1725
811.71283,1751
811.831604,1718
811.950378,1735
812.069153,1744
812.187927,1717
812.30658,1720
812.425415,1758
812.544128,1697
812.662781,1784
812.781616,1757
812.900269,1740
813.019043,1718
813.137756,1751
813.256531,1735
813.375244,1697
813.493896,1742
813.612671,1710
813.731384,1705
813.850037,1744
813.96875,1691
814.087524,1624
814.206238,1668
814.324951,1685
814.443604,1660
814.562256,1644
814.68103,1691
814.799683,1695
814.918335,1694
815.037109,1677
815.155762,1675
815.274475,1670
815.393188,1686
815.511841,1654
815.630554,1665
815.749146,1652
815.867859,1679
815.986572,1670
816.105164,1627
816.223877,1693
816.342529,1634
816.461182,1655
816.579895,1655
816.698486,1678
816.817139,1645
816.935791,1685
817.054504,1678
817.173096,1709
817.291748,1667
817.4104,1681
817.529053,1658
817.647644,1672
817.766235,1643
817.884949,1620
818.00354,1625
818.122192,1624
818.240845,1602
818.359436,1614
818.478088,1598
818.59668,1623
818.715271,1584
818.833923,1627
818.952515,1592
819.071106,1584
819.189758,1547
819.30835,1528
819.426941,1586
819.545532,1550
819.664124,1562
819.782715,1581
819.901306,1529
820.019897,1574
820.138489,1560
820.25708,1545
820.375671,1571
820.494202,1534
820.612732,1599
820.731384,1589
820.849915,1550
820.968506,1555
821.087097,1552
821.205627,1504
821.324158,1518
821.442749,1500
821.561279,1565
821.679871,1519
821.798401,1521
821.916931,1557
822.035461,1543
822.154053,1511
822.272583,1514
822.391174,1542
822.509583,1548
822.628174,1530
822.746704,1509
822.865234,1498
822.983765,1489
823.102295,1488
823.220825,1541
823.339294,1512
823.457825,1500
823.576355,1494
823.694824,1526
823.813354,1538
823.931885,1458
824.050354,1439
824.168884,1484
824.287354,1506
824.405823,1495
824.524353,1486
824.642822,1493
824.761353,1491
824.879822,1524
824.998291,1515
825.116699,1533
825.235291,1490
825.353699,1509
825.472168,1444
825.590637,1496
825.709106,1501
825.827576,1501
825.946045,1501
826.064453,1449
826.182983,1436
826.301392,1490
826.4198,1471
826.53833,1500
826.656738,1456
826.775208,1457
826.893677,1475
827.012024,1496
827.130493,1457
827.248962,1504
827.36731,1502
827.485779,1461
827.604248,1495
827.722595,1463
827.841064,1434
827.959412,1492
828.077942,1408
828.196289,1473
828.314636,1463
828.433105,1445
828.551514,1466
828.669861,1426
828.78833,1439
828.906677,1436
829.025085,1495
829.143433,1437
829.261841,1449
829.38031,1423
829.498657,1425
829.617004,1443
829.735413,1481
829.85376,1471
829.972107,1418
830.090515,1448
830.208862,1430
830.327209,1460
830.445557,1438
830.563904,1437
830.682312,1472
830.800659,1448
830.919006,1498
831.037354,1502
831.155701,1550
831.274048,1505
831.392395,1502
831.51062,1496
831.629028,1461
831.747314,1502
831.865662,1462
831.984009,1491
832.102356,1507
832.220642,1487
832.338928,1532
832.457275,1523
832.575623,1492
832.693909,1470
832.812134,1456
832.930481,1489
833.048828,1479
833.167114,1516
833.2854,1442
833.403687,1470
833.521973,1487
833.640259,1497
833.758545,1503
833.876831,1469
833.995056,1484
834.113281,1486
834.231628,1446
834.349915,1471
834.468201,1499
834.586426,1479
834.704651,1484
834.822998,1475
834.941162,1479
835.059448,1470
835.177673,1508
835.295959,1454
835.414246,1551
835.53241,1489
835.650635,1471
835.768921,1496
835.887146,1419
836.005371,1494
836.123596,1457
836.241821,1471
836.360046,1454
836.478271,1425
836.596497,1461
836.714722,1434
836.832886,1454
836.95105,1406
837.069336,1474
837.1875,1439
837.305725,1440
837.423889,1496
837.542053,1447
837.660339,1454
837.778503,1438
837.896667,1430
838.014832,1468
838.132996,1458
838.25116,1448
838.369385,1434
838.487488,1479
838.605713,1485
838.723877,1486
838.84198,1472
838.960205,1485
839.078308,1485
839.196472,1487
839.314636,1518
839.4328,1483
839.550964,1512
839.669067,1457
839.787231,1535
839.905396,1541
840.023499,1574
840.141602,1559
840.259766,1581
840.377869,1537
840.495972,1576
840.614136,1557
840.732239,1587
840.850342,1574
840.968445,1601
841.086548,1575
841.204651,1600
841.322754,1570
841.440918,1601
841.55896,1620
841.677002,1574
841.795166,1609
841.913208,1609
842.031311,1589
842.149353,1621
842.267456,1610
842.385498,1575
842.503601,1609
842.621643,1560
842.739746,1557
842.857788,1599
842.97583,1605
843.093933,1558
843.211975,1616
843.330017,1619
843.44812,1604
843.566101,1588
843.684204,1605
843.802246,1598
843.920227,1588
844.038269,1594
844.156311,1567
844.274292,1600
844.392395,1544
844.510376,1555
844.628357,1548
844.74646,1534
844.864441,1568
844.982422,1554
845.100403,1559
845.218384,1508
845.336426,1534
845.454468,1553
845.572449,1514
845.69043,1559
845.808411,1501
845.926453,1519
846.044373,1598
846.162354,1550
846.280396,1577
846.398315,1526
846.516296,1544
846.634216,1549
846.752197,1549
846.870178,1544
846.988098,1560
847.106079,1568
847.22406,1616
847.34198,1532
847.4599,1532
847.577881,1543
847.695801,1552
847.813782,1571
847.931641,1523
848.049561,1544
848.167603,1557
848.285461,1562
848.403381,1516
848.521362,1576
848.639221,1555
848.75708,1524
848.875,1567
848.99292,1553
849.110901,1588
849.22876,1593
849.34668,1564
849.464539,1559
849.582458,1536
849.700317,1558
849.818176,1572
849.936096,1555
850.053955,1575
850.171875,1574
850.289673,1556
850.407593,1557
850.525452,1564
850.643311,1524
850.761169,1556
850.878967,1508
850.996887,1550
851.114746,1527
851.232544,1552
851.350403,1584
851.468262,1500
851.58606,1543
851.703979,1541
851.821777,1573
851.939636,1536
852.057434,1556
852.175232,1586
852.293091,1639
852.410889,1602
852.528687,1604
852.646545,1690
852.764343,1679
852.88208,1677
852.999939,1657
853.117676,1646
853.235535,1616
853.353271,1583
853.471069,1578
853.588928,1538
853.706604,1522
853.824402,1575
853.9422,1583
854.059998,1576
854.177734,1561
854.295532,1557
854.413269,1582
854.531006,1632
854.648804,1626
854.766541,1595
854.884277,1630
855.002014,1577
855.119751,1586
855.237549,1549
855.355225,1596
855.473022,1580
855.590698,1563
855.708435,1556
855.826172,1574
855.943848,1568
856.061646,1568
856.179321,1546
856.296997,1578
856.414795,1594
856.53241,1613
856.650085,1611
856.767822,1550
856.885559,1629
857.003174,1660
857.120911,1658
857.238586,1668
857.356201,1623
857.473938,1622
857.591614,1637
857.709351,1584
857.826965,1587
857.944641,1611
858.062317,1617
858.179993,1612
858.297668,1565
858.415283,1664
858.532959,1601
858.650574,1631
858.768188,1612
858.885803,1596
859.003479,1634
859.121094,1645
859.23877,1621
859.356384,1594
859.473999,1569
859.591675,1589
859.709229,1566
859.826843,1578
859.944458,1526
860.062012,1529
860.179626,1526
860.297302,1513
860.414856,1526
860.532471,1527
860.650024,1540
860.767639,1575
860.885193,1532
861.002808,1550
861.120361,1580
861.237976,1526
861.35553,1513
861.473022,1530
861.590698,1587
861.708191,1595
861.825745,1539
861.943298,1538
862.060852,1505
862.178406,1527
862.295959,1541
862.413513,1485
862.531006,1488
862.64856,1511
862.766113,1483
862.883667,1464
863.00116,1459
863.118713,1438
863.236206,1512
863.353699,1441
863.471252,1519
863.588745,1483
863.706177,1530
863.82373,1491
863.941162,1566
864.058716,1528
864.176208,1520
864.29364,1517
864.411194,1449
864.528687,1508
864.646118,1527
864.763611,1532
864.881042,1513
864.998535,1525
865.116028,1482
865.233459,1488
865.350891,1520
865.468384,1470
865.585754,1526
865.703308,1460
865.820679,1510
865.938171,1492
866.055542,1500
866.173035,1482
866.290466,1448
866.407837,1521
866.52533,1505
866.6427,1521
866.760071,1515
866.877563,1511
866.994934,1478
867.112305,1528
867.229736,1516
867.347107,1544
867.464539,1480
867.58197,1470
867.699341,1505
867.81665,1539
867.934082,1520
868.051453,1506
868.168823,1511
868.286194,1509
868.403564,1521
868.520935,1543
868.638306,1504
868.755676,1488
868.872986,1501
868.990295,1542
869.107727,1569
869.225037,1570
869.342346,1567
869.459717,1573
869.577026,1603
869.694336,1592
869.811707,1595
869.929016,1586
870.046326,1613
870.163635,1607
870.280945,1579
870.398254,1615
870.515564,1609
870.632812,1595
870.750183,1623
870.867432,1656
870.984741,1603
871.102051,1631
871.219299,1647
871.336609,1662
871.453918,1653
871.571106,1658
871.688416,1686
871.805664,1662
871.922852,1707
872.040222,1658
872.157471,1708
872.274719,1736
872.391968,1667
872.509155,1687
872.626465,1649
872.743652,1697
872.860962,1660
872.978149,1659
873.095337,1663
873.212646,1660
873.329834,1673
873.44696,1681
873.564209,1612
873.681396,1618
873.798645,1640
873.915894,1666
874.03302,1675
874.150208,1627
874.267456,1653
874.384583,1666
874.501831,1662
874.618958,1708
874.736145,1625
874.853333,1689
874.970459,1660
875.087646,1712
875.204834,1684
875.32196,1657
875.439148,1637
875.556274,1677
875.673401,1643
875.790527,1631
875.907715,1647
876.024841,1588
876.141968,1613
876.259094,1605
876.376282,1568
876.493347,1587
876.610474,1588
876.7276,1607
876.844727,1546
876.961853,1585
877.078918,1614
877.195984,1544
877.313171,1587
877.430237,1571
877.547302,1619
877.664368,1574
877.781433,1556
877.898499,1581
878.015625,1560
878.13269,1545
878.249695,1527
878.366821,1541
878.483887,1555
878.600952,1555
878.717957,1459
878.834961,1535
878.952087,1536
879.069092,1526
879.186157,1528
879.303162,1489
879.420227,1505
879.537231,1502
879.654236,1508
879.77124,1486
879.888306,1479
880.005249,1477
880.122314,1505
880.239319,1525
880.356323,1507
880.473328,1460
880.590271,1433
880.707275,1506
880.824341,1453
880.941284,1481
881.058228,1434
881.175232,1485
881.292236,1471
881.40918,1459
881.526123,1478
881.643066,1447
881.760071,1452
881.877014,1515
881.993958,1483
882.11084,1456
882.227783,1479
882.344727,1481
882.46167,1451
882.578613,1479
882.695618,1500
882.812439,1437
882.929382,1501
883.046326,1511
883.163208,1489
883.280151,1474
883.397034,1502
883.513916,1521
883.630798,1478
883.747742,1524
883.864563,1517
883.981506,1487
884.098389,1521
884.21521,1571
884.332153,1546
884.448975,1567
884.565796,1559
884.682678,1638
884.7995,1640
884.916443,1678
885.033264,1739
885.150085,1827
885.266968,1849
885.383789,1879
885.500671,1898
885.617493,1900
885.734314,1898
885.851196,1899
885.967896,1844
886.084717,1860
886.201599,1906
886.318359,1880
886.435181,1852
886.552002,1824
886.668762,1803
886.785645,1788
886.902344,1792
887.019165,1752
887.135925,1750
887.252747,1749
887.369446,1710
887.486267,1749
887.603027,1673
887.719788,1630
887.836548,1644
887.953247,1617
888.070068,1584
888.186829,1567
888.303528,1537
888.420288,1493
888.536987,1523
888.653687,1445
888.770447,1542
888.887146,1494
889.003967,1474
889.120667,1435
889.237305,1466
889.354065,1446
889.470703,1410
889.587463,1427
889.704163,1469
889.820862,1401
889.937561,1426
890.054199,1457
890.170837,1405
890.287598,1458
890.404236,1425
890.520874,1419
890.637634,1436
890.754211,1425
890.87085,1435
890.987549,1449
891.104187,1471
891.220886,1460
891.337463,1454
891.454102,1489
891.57074,1469
891.687378,1440
891.804077,1484
891.920654,1436
892.037231,1453
892.15387,1454
892.270447,1476
892.387085,1434
892.503723,1462
892.6203,1471
892.736877,1395
892.853516,1414
892.970032,1495
893.08667,1421
893.203186,1421
893.319763,1381
893.43634,1469
893.552917,1424
893.669556,1448
893.786011,1461
893.902588,1471
894.019165,1429
894.135681,1465
894.252197,1438
894.368835,1496
894.485291,1406
894.601868,1452
894.718384,1445
894.8349,1455
894.951355,1404
895.067932,1410
895.184448,1409
895.300964,1401
895.417419,1437
895.533936,1408
895.650452,1408
895.766907,1463
895.883423,1451
895.999878,1465
896.116333,1433
896.232849,1472
896.349304,1449
896.465759,1479
896.582214,1438
896.698669,1446
896.815125,1449
896.931641,1439
897.048035,1446
897.164551,1464
897.280884,1481
897.397339,1435
897.513794,1424
897.630249,1480
897.746582,1439
897.863098,1432
897.979431,1488
898.095886,1471
898.212341,1407
898.328674,1461
898.445129,1434
898.561462,1485
898.677795,1459
898.794312,1476
898.910645,1424
899.026978,1487
899.143433,1456
899.259766,1489
899.37616,1490
899.492493,1456
899.608765,1500
899.725159,1470
899.841553,1459
899.957947,1444
900.07428,1502
900.190552,1440
900.306946,1430
900.423157,1511
900.53949,1473
900.655884,1467
900.772156,1471
900.888489,1480
901.004822,1469
901.121033,1468
901.237366,1452
901.353699,1508
901.46991,1493
901.586304,1499
901.702515,1516
901.818787,1535
901.93512,1549
902.051331,1578
902.167603,1585
902.283875,1608
902.400085,1654
902.516418,1648
902.632629,1694
902.74884,1700
902.865112,1680
902.981384,1682
903.097595,1695
903.213867,1716
903.330017,1668
903.446289,1688
903.5625,1645
903.67865,1665
903.794922,1673
903.911072,1616
904.027344,1647
904.143494,1591
904.259705,1647
904.375916,1571
904.492065,1551
904.608215,1554
904.724426,1531
904.840576,1514
904.956726,1500
905.072876,1504
905.189087,1519
905.305176,1480
905.421387,1491
905.537537,1479
905.653687,1489
905.769775,1483
905.885925,1471
906.002014,1464
906.118164,1465
906.234314,1406
906.350403,1429
906.466492,1450
906.582642,1464
906.69873,1408
906.814758,1490
906.930908,1410
907.046936,1430
907.163086,1438
907.279175,1492
907.395264,1439
907.511353,1447
907.62738,1418
907.743408,1464
907.859497,1442
907.975525,1446
908.091553,1414
908.207703,1439
908.32373,1447
908.439758,1465
908.555786,1464
908.671814,1461
908.787842,1419
908.90387,1432
909.019775,1473
909.135864,1467
909.251892,1442
909.367859,1402
909.483826,1437
909.599854,1442
909.715881,1451
909.831848,1463
909.947815,1452
910.063782,1472
910.179749,1432
910.295776,1446
910.411743,1462
910.527649,1434
910.643616,1442
910.759583,1440
910.875488,1500
910.991455,1475
911.107361,1460
911.223267,1413
911.339294,1447
911.4552,1464
911.571106,1423
911.687073,1461
911.802979,1437
911.918823,1421
912.034729,1462
912.150635,1417
912.266602,1396
912.382446,1444
912.498352,1453
912.614197,1411
912.730103,1423
912.846008,1402
