792.44574,2353
792.56488,2346
792.68396,2316
792.80304,2282
792.92218,2280
793.041199,2202
793.160339,2180
793.279419,2186
793.398499,2197
793.517578,2220
793.636658,2182
793.755737,2170
793.874817,2140
793.993896,2156
794.112976,2175
794.232056,2137
794.351074,2083
794.470215,2091
794.589233,2118
794.708313,2047
794.827393,2083
794.946411,2049
795.065552,2003
795.18457,2071
795.303589,2050
795.422668,2039
795.541687,2078
795.660767,2055
795.779846,2069
795.898865,2015
796.017883,2030
796.136963,2042
796.255981,2023
796.375061,2033
796.49408,1986
796.613037,2039
796.732117,2011
796.851135,1973
796.970154,1986
797.089233,2003
797.208191,1951
797.327271,1936
797.446228,1973
797.565186,1976
797.684265,1956
797.803223,1962
797.922241,1923
798.04126,2013
798.160278,1952
798.279297,1934
798.398315,1907
798.517273,1969
798.636292,1942
798.75531,1944
798.874268,1947
798.993286,1956
799.112244,1982
799.231323,1926
799.350281,1953
799.469238,1946
799.588257,1941
799.707153,1979
799.826111,1968
799.945129,1931
800.064087,1968
800.183044,1949
800.302063,1968
800.421021,1981
800.539978,1934
800.658936,1938
800.777893,1998
800.896912,1943
801.015747,1994
801.134705,1976
801.253723,1944
801.37262,1964
801.491638,2000
801.610535,1943
801.729492,2002
801.84845,2013
801.967407,1976
802.086243,2023
802.205261,2000
802.324158,2008
802.443115,2027
802.562073,2021
802.680969,2054
802.799927,1985
802.918762,2002
803.037659,1976
803.156677,1995
803.275574,2042
803.39447,2017
803.513428,2051
803.632263,2022
803.751221,1996
803.870117,1977
803.989014,2030
804.107971,2065
804.226746,2026
804.345642,1996
804.4646,2027
804.583496,2046
804.702393,2036
804.821228,2047
804.940125,2047
805.059021,2016
805.177917,2089
805.296814,2043
805.415649,2078
805.534546,2078
805.653442,2105
805.772278,2105
805.891113,2053
806.01001,2053
806.128906,2119
806.247742,2106
806.366577,2129
806.485413,2085
806.604309,2074
806.723145,2141
806.84198,2107
806.960876,2108
807.079712,2109
807.198486,2113
807.317383,2123
807.436218,2094
807.554993,2103
807.673889,2202
807.792725,2167
807.91156,2106
808.030396,2110
808.14917,2111
808.268005,2132
808.386841,2130
808.505676,2138
808.624451,2123
808.743286,2154
808.862122,2117
808.980896,2140
809.099731,2124
809.218506,2130
809.337341,2132
809.456116,2113
809.57489,2168
809.693726,2211
809.8125,2150
809.931274,2141
810.050049,2185
810.168884,2198
810.287659,2143
810.406372,2152
810.525269,2144
810.643982,2177
810.762756,2150
810.881531,2162
811.000305,2185
811.11908,2167
811.237854,2193
811.356567,2169
811.475403,2208
811.594116,2160
811.71283,2202
811.831604,2185
811.950378,2175
812.069153,2180
812.187927,2199
812.30658,2179
812.425415,2229
812.544128,2263
812.662781,2200
812.781616,2185
812.900269,2192
813.019043,2168
813.137756,2182
813.256531,2127
813.375244,2183
813.493896,2174
813.612671,2186
813.731384,2187
813.850037,2185
813.96875,2142
814.087524,2140
814.206238,2136
814.324951,2124
814.443604,2152
814.562256,2174
814.68103,2144
814.799683,2134
814.918335,2155
815.037109,2098
815.155762,2165
815.274475,2143
815.393188,2141
815.511841,2114
815.630554,2126
815.749146,2101
815.867859,2094
815.986572,2131
816.105164,2078
816.223877,2115
816.342529,2098
816.461182,2092
816.579895,2102
816.698486,2140
816.817139,2134
816.935791,2130
817.054504,2142
817.173096,2064
817.291748,2115
817.4104,2126
817.529053,2131
817.647644,2028
817.766235,1986
817.884949,1954
818.00354,1934
818.122192,1934
818.240845,1889
818.359436,1874
818.478088,1798
818.59668,1771
818.715271,1753
818.833923,1748
818.952515,1718
819.071106,1683
819.189758,1634
819.30835,1637
819.426941,1625
819.545532,1650
819.664124,1591
819.782715,1589
819.901306,1620
820.019897,1592
820.138489,1622
820.25708,1612
820.375671,1582
820.494202,1538
820.612732,1550
820.731384,1590
820.849915,1547
820.968506,1575
821.087097,1517
821.205627,1539
821.324158,1524
821.442749,1502
821.561279,1497
821.679871,1491
821.798401,1482
821.916931,1474
822.035461,1513
822.154053,1465
822.272583,1467
822.391174,1450
822.509583,1509
822.628174,1439
822.746704,1509
822.865234,1501
822.983765,1474
823.102295,1461
823.220825,1477
823.339294,1461
823.457825,1524
823.576355,1503
823.694824,1555
823.813354,1478
823.931885,1515
824.050354,1517
824.168884,1469
824.287354,1503
824.405823,1522
824.524353,1499
824.642822,1544
824.761353,1516
824.879822,1480
824.998291,1507
825.116699,1503
825.235291,1520
825.353699,1479
825.472168,1515
825.590637,1490
825.709106,1462
825.827576,1434
825.946045,1467
826.064453,1467
826.182983,1441
826.301392,1441
826.4198,1401
826.53833,1443
826.656738,1456
826.775208,1394
826.893677,1422
827.012024,1450
827.130493,1414
827.248962,1419
827.36731,1425
827.485779,1430
827.604248,1415
827.722595,1404
827.841064,1398
827.959412,1348
828.077942,1432
828.196289,1392
828.314636,1403
828.433105,1430
828.551514,1399
828.669861,1372
828.78833,1371
828.906677,1345
829.025085,1418
829.143433,1362
829.261841,1396
829.38031,1400
829.498657,1381
829.617004,1386
829.735413,1370
829.85376,1374
829.972107,1370
830.090515,1412
830.208862,1372
830.327209,1386
830.445557,1393
830.563904,1378
830.682312,1374
830.800659,1384
830.919006,1426
831.037354,1368
831.155701,1371
831.274048,1369
831.392395,1367
831.51062,1339
831.629028,1369
831.747314,1349
831.865662,1357
831.984009,1400
832.102356,1380
832.220642,1330
832.338928,1411
832.457275,1353
832.575623,1357
832.693909,1359
832.812134,1314
832.930481,1382
833.048828,1354
833.167114,1427
833.2854,1375
833.403687,1407
833.521973,1352
833.640259,1351
833.758545,1366
833.876831,1416
833.995056,1389
834.113281,1345
834.231628,1368
834.349915,1377
834.468201,1369
834.586426,1399
834.704651,1370
834.822998,1369
834.941162,1400
835.059448,1361
835.177673,1373
835.295959,1367
835.414246,1373
835.53241,1367
835.650635,1382
835.768921,1353
835.887146,1381
836.005371,1429
836.123596,1404
836.241821,1399
836.360046,1411
836.478271,1413
836.596497,1367
836.714722,1426
836.832886,1457
836.95105,1431
837.069336,1435
837.1875,1511
837.305725,1438
837.423889,1443
837.542053,1415
837.660339,1440
837.778503,1459
837.896667,1412
838.014832,1426
838.132996,1453
838.25116,1462
838.369385,1432
838.487488,1431
838.605713,1465
838.723877,1407
838.84198,1449
838.960205,1431
839.078308,1445
839.196472,1419
839.314636,1430
839.4328,1422
839.550964,1375
839.669067,1395
839.787231,1431
839.905396,1380
840.023499,1456
840.141602,1429
840.259766,1450
840.377869,1428
840.495972,1400
840.614136,1402
840.732239,1448
840.850342,1401
840.968445,1409
841.086548,1407
841.204651,1393
841.322754,1416
841.440918,1373
841.55896,1396
841.677002,1397
841.795166,1352
841.913208,1348
842.031311,1388
842.149353,1369
842.267456,1379
842.385498,1368
842.503601,1366
842.621643,1373
842.739746,1383
842.857788,1378
842.97583,1323
843.093933,1350
843.211975,1331
843.330017,1359
843.44812,1326
843.566101,1392
843.684204,1318
843.802246,1349
843.920227,1394
844.038269,1379
844.156311,1312
844.274292,1360
844.392395,1382
844.510376,1370
844.628357,1328
844.74646,1321
844.864441,1343
844.982422,1335
845.100403,1355
845.218384,1338
845.336426,1317
845.454468,1357
845.572449,1341
845.69043,1307
845.808411,1353
845.926453,1299
846.044373,1372
846.162354,1357
846.280396,1331
846.398315,1306
846.516296,1276
846.634216,1334
846.752197,1299
846.870178,1345
846.988098,1302
847.106079,1311
847.22406,1303
847.34198,1325
847.4599,1316
847.577881,1353
847.695801,1361
847.813782,1277
847.931641,1341
848.049561,1334
848.167603,1342
848.285461,1315
848.403381,1353
848.521362,1364
848.639221,1379
848.75708,1326
848.875,1319
848.99292,1349
849.110901,1292
849.22876,1284
849.34668,1340
849.464539,1319
849.582458,1317
849.700317,1341
849.818176,1299
849.936096,1321
850.053955,1376
850.171875,1316
850.289673,1350
850.407593,1297
850.525452,1322
850.643311,1349
850.761169,1337
850.878967,1335
850.996887,1345
851.114746,1300
851.232544,1310
851.350403,1326
851.468262,1356
851.58606,1338
851.703979,1343
851.821777,1335
851.939636,1318
852.057434,1300
852.175232,1322
852.293091,1312
852.410889,1290
852.528687,1329
852.646545,1327
852.764343,1338
852.88208,1408
852.999939,1339
853.117676,1362
853.235535,1315
853.353271,1342
853.471069,1361
853.588928,1333
853.706604,1324
853.824402,1354
853.9422,1327
854.059998,1349
854.177734,1300
854.295532,1351
854.413269,1344
854.531006,1361
854.648804,1328
854.766541,1382
854.884277,1335
855.002014,1351
855.119751,1362
855.237549,1340
855.355225,1347
855.473022,1362
855.590698,1332
855.708435,1365
855.826172,1351
855.943848,1353
856.061646,1384
856.179321,1397
856.296997,1319
856.414795,1395
856.53241,1331
856.650085,1369
856.767822,1345
856.885559,1355
857.003174,1357
857.120911,1348
857.238586,1313
857.356201,1361
857.473938,1396
857.591614,1320
857.709351,1357
857.826965,1349
857.944641,1375
858.062317,1360
858.179993,1380
858.297668,1349
858.415283,1359
858.532959,1328
858.650574,1407
858.768188,1368
858.885803,1376
859.003479,1347
859.121094,1346
859.23877,1314
859.356384,1346
859.473999,1373
859.591675,1326
859.709229,1357
859.826843,1327
859.944458,1333
860.062012,1385
860.179626,1322
860.297302,1369
860.414856,1326
860.532471,1342
860.650024,1368
860.767639,1344
860.885193,1349
861.002808,1339
861.120361,1338
861.237976,1312
861.35553,1333
861.473022,1381
861.590698,1348
861.708191,1374
861.825745,1322
861.943298,1348
862.060852,1322
862.178406,1363
862.295959,1326
862.413513,1343
862.531006,1338
862.64856,1354
862.766113,1286
862.883667,1294
863.00116,1372
863.118713,1328
863.236206,1338
863.353699,1333
863.471252,1299
863.588745,1344
863.706177,1335
863.82373,1309
863.941162,1348
864.058716,1303
864.176208,1345
864.29364,1378
864.411194,1348
864.528687,1370
864.646118,1351
864.763611,1326
864.881042,1356
864.998535,1318
865.116028,1327
865.233459,1357
865.350891,1363
865.468384,1340
865.585754,1356
865.703308,1344
865.820679,1338
865.938171,1337
866.055542,1371
866.173035,1366
866.290466,1329
866.407837,1364
866.52533,1386
866.6427,1351
866.760071,1381
866.877563,1355
866.994934,1348
867.112305,1335
867.229736,1358
867.347107,1371
867.464539,1346
867.58197,1341
867.699341,1335
867.81665,1341
867.934082,1304
868.051453,1361
868.168823,1332
868.286194,1323
868.403564,1359
868.520935,1329
868.638306,1346
868.755676,1350
868.872986,1333
868.990295,1352
869.107727,1362
869.225037,1383
869.342346,1327
869.459717,1318
869.577026,1329
869.694336,1353
869.811707,1370
869.929016,1324
870.046326,1362
870.163635,1378
870.280945,1344
870.398254,1360
870.515564,1341
870.632812,1347
870.750183,1357
870.867432,1345
870.984741,1312
871.102051,1360
871.219299,1328
871.336609,1336
871.453918,1391
871.571106,1371
871.688416,1395
871.805664,1338
871.922852,1347
872.040222,1332
872.157471,1340
872.274719,1372
872.391968,1354
872.509155,1321
872.626465,1345
872.743652,1348
872.860962,1345
872.978149,1353
873.095337,1404
873.212646,1357
873.329834,1336
873.44696,1313
873.564209,1371
873.681396,1345
873.798645,1348
873.915894,1382
874.03302,1358
874.150208,1310
874.267456,1290
874.384583,1366
874.501831,1348
874.618958,1350
874.736145,1371
874.853333,1328
874.970459,1366
875.087646,1336
875.204834,1348
875.32196,1332
875.439148,1327
875.556274,1376
875.673401,1332
875.790527,1353
875.907715,1368
876.024841,1312
876.141968,1387
876.259094,1344
876.376282,1346
876.493347,1335
876.610474,1362
876.7276,1367
876.844727,1361
876.961853,1354
877.078918,1333
877.195984,1360
877.313171,1354
877.430237,1375
877.547302,1332
877.664368,1301
877.781433,1362
877.898499,1374
878.015625,1375
878.13269,1341
878.249695,1350
878.366821,1335
878.483887,1333
878.600952,1303
878.717957,1359
878.834961,1331
878.952087,1333
879.069092,1352
879.186157,1357
879.303162,1321
879.420227,1309
879.537231,1361
879.654236,1306
879.77124,1350
879.888306,1364
880.005249,1335
880.122314,1341
880.239319,1312
880.356323,1344
880.473328,1322
880.590271,1316
880.707275,1326
880.824341,1375
880.941284,1345
881.058228,1325
881.175232,1318
881.292236,1327
881.40918,1318
881.526123,1324
881.643066,1343
881.760071,1385
881.877014,1330
881.993958,1332
882.11084,1299
882.227783,1331
882.344727,1359
882.46167,1365
882.578613,1315
882.695618,1359
882.812439,1314
882.929382,1365
883.046326,1320
883.163208,1333
883.280151,1323
883.397034,1369
883.513916,1359
883.630798,1341
883.747742,1307
883.864563,1317
883.981506,1370
884.098389,1326
884.21521,1331
884.332153,1394
884.448975,1351
884.565796,1369
884.682678,1338
884.7995,1335
884.916443,1368
885.033264,1336
885.150085,1333
885.266968,1375
885.383789,1358
885.500671,1383
885.617493,1370
885.734314,1387
885.851196,1413
885.967896,1397
886.084717,1368
886.201599,1387
886.318359,1392
886.435181,1384
886.552002,1372
886.668762,1412
886.785645,1330
886.902344,1390
887.019165,1373
887.135925,1359
887.252747,1402
887.369446,1372
887.486267,1369
887.603027,1384
887.719788,1420
887.836548,1355
887.953247,1373
888.070068,1364
888.186829,1342
888.303528,1327
888.420288,1397
888.536987,1330
888.653687,1362
888.770447,1340
888.887146,1379
889.003967,1357
889.120667,1363
889.237305,1337
889.354065,1362
889.470703,1407
889.587463,1331
889.704163,1376
889.820862,1304
889.937561,1402
890.054199,1402
890.170837,1347
890.287598,1375
890.404236,1379
890.520874,1311
890.637634,1379
890.754211,1350
890.87085,1407
890.987549,1383
891.104187,1361
891.220886,1367
891.337463,1366
891.454102,1396
891.57074,1380
891.687378,1409
891.804077,1361
891.920654,1383
892.037231,1397
892.15387,1424
892.270447,1381
892.387085,1369
892.503723,1382
892.6203,1376
892.736877,1378
892.853516,1382
892.970032,1366
893.08667,1374
893.203186,1356
893.319763,1369
893.43634,1369
893.552917,1362
893.669556,1403
893.786011,1395
893.902588,1421
894.019165,1375
894.135681,1403
894.252197,1389
894.368835,1371
894.485291,1383
894.601868,1401
894.718384,1414
894.8349,1395
894.951355,1391
895.067932,1398
895.184448,1341
895.300964,1364
895.417419,1362
895.533936,1407
895.650452,1363
895.766907,1417
895.883423,1385
895.999878,1399
896.116333,1347
896.232849,1383
896.349304,1376
896.465759,1419
896.582214,1335
896.698669,1351
896.815125,1382
896.931641,1363
897.048035,1349
897.164551,1442
897.280884,1418
897.397339,1390
897.513794,1403
897.630249,1395
897.746582,1360
897.863098,1397
897.979431,1379
898.095886,1395
898.212341,1406
898.328674,1375
898.445129,1400
898.561462,1382
898.677795,1364
898.794312,1396
898.910645,1431
899.026978,1403
899.143433,1365
899.259766,1381
899.37616,1376
899.492493,1398
899.608765,1413
899.725159,1372
899.841553,1418
899.957947,1374
900.07428,1426
900.190552,1408
900.306946,1345
900.423157,1419
900.53949,1359
900.655884,1360
900.772156,1398
900.888489,1376
901.004822,1385
901.121033,1368
901.237366,1360
901.353699,1431
901.46991,1420
901.586304,1410
901.702515,1420
901.818787,1410
901.93512,1371
902.051331,1400
902.167603,1398
902.283875,1412
902.400085,1436
902.516418,1404
902.632629,1359
902.74884,1444
902.865112,1415
902.981384,1397
903.097595,1427
903.213867,1427
903.330017,1419
903.446289,1390
903.5625,1449
903.67865,1392
903.794922,1411
903.911072,1405
904.027344,1426
904.143494,1448
904.259705,1413
904.375916,1387
904.492065,1430
904.608215,1428
904.724426,1392
904.840576,1412
904.956726,1419
905.072876,1403
905.189087,1398
905.305176,1430
905.421387,1447
905.537537,1431
905.653687,1367
905.769775,1420
905.885925,1441
906.002014,1401
906.118164,1403
906.234314,1371
906.350403,1485
906.466492,1379
906.582642,1414
906.69873,1401
906.814758,1419
906.930908,1383
907.046936,1408
907.163086,1424
907.279175,1447
907.395264,1420
907.511353,1432
907.62738,1446
907.743408,1405
907.859497,1441
907.975525,1426
908.091553,1396
908.207703,1435
908.32373,1399
908.439758,1396
908.555786,1390
908.671814,1391
908.787842,1407
908.90387,1396
909.019775,1402
909.135864,1383
909.251892,1436
909.367859,1409
909.483826,1427
909.599854,1392
909.715881,1417
909.831848,1408
909.947815,1428
910.063782,1412
910.179749,1447
910.295776,1398
910.411743,1431
910.527649,1438
910.643616,1401
910.759583,1402
910.875488,1441
910.991455,1387
911.107361,1418
911.223267,1415
911.339294,1418
911.4552,1387
911.571106,1415
911.687073,1368
911.802979,1457
911.918823,1396
912.034729,1447
912.150635,1421
912.266602,1421
912.382446,1433
912.498352,1401
912.614197,1421
912.730103,1410
912.846008,1400
792.44574,2356
792.56488,2323
792.68396,2351
792.80304,2358
792.92218,2239
793.041199,2259
793.160339,2223
793.279419,2272
793.398499,2249
793.517578,2233
793.636658,2200
793.755737,2209
793.874817,2198
793.993896,2166
794.112976,2218
794.232056,2135
794.351074,2092
794.470215,2133
794.589233,2148
794.708313,2078
794.827393,2086
794.946411,2071
795.065552,2071
795.18457,2117
795.303589,2064
795.422668,2093
795.541687,2116
795.660767,2070
795.779846,2047
795.898865,2047
796.017883,2047
796.136963,2068
796.255981,2021
796.375061,2062
796.49408,2018
796.613037,2049
796.732117,2022
796.851135,2044
796.970154,2005
797.089233,1989
797.208191,2008
797.327271,2011
797.446228,2054
797.565186,1988
797.684265,1988
797.803223,1984
797.922241,1976
798.04126,2061
798.160278,2001
798.279297,1988
798.398315,2032
798.517273,1999
798.636292,1980
798.75531,2006
798.874268,1971
798.993286,1963
799.112244,2014
799.231323,1971
799.350281,1977
799.469238,1988
799.588257,1996
799.707153,2029
799.826111,2040
799.945129,1998
800.064087,2020
800.183044,1954
800.302063,2004
800.421021,1971
800.539978,1941
800.658936,1998
800.777893,2001
800.896912,1928
801.015747,1988
801.134705,2010
801.253723,1977
801.37262,2012
801.491638,2047
801.610535,2008
801.729492,1986
801.84845,1961
801.967407,2046
802.086243,2026
802.205261,2041
802.324158,2018
802.443115,2000
802.562073,2048
802.680969,2035
802.799927,2081
802.918762,2031
803.037659,1992
803.156677,2043
803.275574,2056
803.39447,2055
803.513428,2007
803.632263,2058
803.751221,2035
803.870117,2050
803.989014,2042
804.107971,2112
804.226746,2073
804.345642,2081
804.4646,2063
804.583496,2096
804.702393,2124
804.821228,2062
804.940125,2107
805.059021,2087
805.177917,2134
805.296814,2067
805.415649,2135
805.534546,2127
805.653442,2094
805.772278,2125
805.891113,2126
806.01001,2154
806.128906,2110
806.247742,2134
806.366577,2172
806.485413,2124
806.604309,2180
806.723145,2116
806.84198,2122
806.960876,2096
807.079712,2112
807.198486,2150
807.317383,2124
807.436218,2108
807.554993,2142
807.673889,2179
807.792725,2178
807.91156,2164
808.030396,2184
808.14917,2173
808.268005,2159
808.386841,2188
808.505676,2163
808.624451,2204
808.743286,2165
808.862122,2104
808.980896,2150
809.099731,2200
809.218506,2205
809.337341,2121
809.456116,2137
809.57489,2208
809.693726,2162
809.8125,2205
809.931274,2215
810.050049,2217
810.168884,2194
810.287659,2193
810.406372,2239
810.525269,2238
810.643982,2177
810.762756,2190
810.881531,2150
811.000305,2218
811.11908,2285
811.237854,2128
811.356567,2220
811.475403,2232
811.594116,2168
811.71283,2236
811.831604,2196
811.950378,2228
812.069153,2236
812.187927,2206
812.30658,2239
812.425415,2271
812.544128,2201
812.662781,2215
812.781616,2221
812.900269,2213
813.019043,2224
813.137756,2200
813.256531,2207
813.375244,2222
813.493896,2201
813.612671,2203
813.731384,2230
813.850037,2209
813.96875,2261
814.087524,2193
814.206238,2171
814.324951,2172
814.443604,2161
814.562256,2149
814.68103,2170
814.799683,2168
814.918335,2176
815.037109,2202
815.155762,2191
815.274475,2211
815.393188,2090
815.511841,2130
815.630554,2180
815.749146,2122
815.867859,2079
815.986572,2133
816.105164,2096
816.223877,2123
816.342529,2098
816.461182,2110
816.579895,2171
816.698486,2113
816.817139,2177
816.935791,2189
817.054504,2171
817.173096,2143
817.291748,2190
817.4104,2120
817.529053,2053
817.647644,2054
817.766235,1990
817.884949,2022
818.00354,1949
818.122192,1884
818.240845,1943
818.359436,1840
818.478088,1827
818.59668,1757
818.715271,1786
818.833923,1734
818.952515,1704
819.071106,1677
819.189758,1687
819.30835,1698
819.426941,1663
819.545532,1632
819.664124,1590
819.782715,1632
819.901306,1566
820.019897,1585
820.138489,1614
820.25708,1594
820.375671,1592
820.494202,1627
820.612732,1597
820.731384,1591
820.849915,1595
820.968506,1544
821.087097,1570
821.205627,1544
821.324158,1562
821.442749,1526
821.561279,1539
821.679871,1562
821.798401,1533
821.916931,1554
822.035461,1499
822.154053,1561
822.272583,1487
822.391174,1553
822.509583,1533
822.628174,1482
822.746704,1510
822.865234,1532
822.983765,1507
823.102295,1494
823.220825,1537
823.339294,1503
823.457825,1511
823.576355,1511
823.694824,1529
823.813354,1512
823.931885,1523
824.050354,1523
824.168884,1560
824.287354,1557
824.405823,1524
824.524353,1550
824.642822,1538
824.761353,1523
824.879822,1574
824.998291,1541
825.116699,1493
825.235291,1555
825.353699,1501
825.472168,1501
825.590637,1515
825.709106,1520
825.827576,1454
825.946045,1504
826.064453,1509
826.182983,1447
826.301392,1476
826.4198,1414
826.53833,1472
826.656738,1474
826.775208,1464
826.893677,1411
827.012024,1468
827.130493,1443
827.248962,1423
827.36731,1465
827.485779,1458
827.604248,1381
827.722595,1418
827.841064,1381
827.959412,1431
828.077942,1439
828.196289,1467
828.314636,1388
828.433105,1414
828.551514,1437
828.669861,1403
828.78833,1383
828.906677,1392
829.025085,1400
829.143433,1428
829.261841,1363
829.38031,1419
829.498657,1443
829.617004,1405
829.735413,1426
829.85376,1393
829.972107,1352
830.090515,1425
830.208862,1394
830.327209,1393
830.445557,1420
830.563904,1348
830.682312,1413
830.800659,1399
830.919006,1402
831.037354,1367
831.155701,1434
831.274048,1442
831.392395,1380
831.51062,1390
831.629028,1400
831.747314,1400
831.865662,1401
831.984009,1383
832.102356,1376
832.220642,1376
832.338928,1375
832.457275,1381
832.575623,1353
832.693909,1404
832.812134,1402
832.930481,1376
833.048828,1374
833.167114,1401
833.2854,1408
833.403687,1402
833.521973,1423
833.640259,1391
833.758545,1353
833.876831,1365
833.995056,1406
834.113281,1375
834.231628,1393
834.349915,1390
834.468201,1400
834.586426,1400
834.704651,1388
834.822998,1397
834.941162,1432
835.059448,1393
835.177673,1374
835.295959,1426
835.414246,1383
835.53241,1379
835.650635,1442
835.768921,1388
835.887146,1416
836.005371,1456
836.123596,1442
836.241821,1433
836.360046,1436
836.478271,1429
836.596497,1443
836.714722,1424
836.832886,1460
836.95105,1453
837.069336,1451
837.1875,1433
837.305725,1462
837.423889,1499
837.542053,1470
837.660339,1458
837.778503,1475
837.896667,1493
838.014832,1473
838.132996,1426
838.25116,1473
838.369385,1465
838.487488,1482
838.605713,1461
838.723877,1434
838.84198,1428
838.960205,1454
839.078308,1482
839.196472,1449
839.314636,1404
839.4328,1498
839.550964,1441
839.669067,1446
839.787231,1421
839.905396,1438
840.023499,1456
840.141602,1459
840.259766,1420
840.377869,1414
840.495972,1449
840.614136,1456
840.732239,1408
840.850342,1414
840.968445,1445
841.086548,1419
841.204651,1445
841.322754,1423
841.440918,1359
841.55896,1414
841.677002,1397
841.795166,1433
841.913208,1409
842.031311,1404
842.149353,1379
842.267456,1380
842.385498,1386
842.503601,1393
842.621643,1416
842.739746,1371
842.857788,1359
842.97583,1357
843.093933,1386
843.211975,1387
843.330017,1366
843.44812,1348
843.566101,1391
843.684204,1381
843.802246,1340
843.920227,1369
844.038269,1369
844.156311,1363
844.274292,1356
844.392395,1344
844.510376,1363
844.628357,1347
844.74646,1374
844.864441,1349
844.982422,1350
845.100403,1345
845.218384,1365
845.336426,1328
845.454468,1344
845.572449,1386
845.69043,1376
845.808411,1335
845.926453,1343
846.044373,1358
846.162354,1362
846.280396,1360
846.398315,1330
846.516296,1369
846.634216,1367
846.752197,1343
846.870178,1376
846.988098,1371
847.106079,1347
847.22406,1328
847.34198,1336
847.4599,1351
847.577881,1387
847.695801,1370
847.813782,1375
847.931641,1371
848.049561,1345
848.167603,1345
848.285461,1340
848.403381,1362
848.521362,1327
848.639221,1339
848.75708,1330
848.875,1359
848.99292,1377
849.110901,1350
849.22876,1366
849.34668,1343
849.464539,1335
849.582458,1318
849.700317,1316
849.818176,1340
849.936096,1376
850.053955,1338
850.171875,1335
850.289673,1349
850.407593,1338
850.525452,1326
850.643311,1335
850.761169,1333
850.878967,1351
850.996887,1321
851.114746,1380
851.232544,1307
851.350403,1354
851.468262,1334
851.58606,1330
851.703979,1315
851.821777,1336
851.939636,1349
852.057434,1315
852.175232,1337
852.293091,1388
852.410889,1323
852.528687,1358
852.646545,1360
852.764343,1396
852.88208,1370
852.999939,1390
853.117676,1370
853.235535,1384
853.353271,1343
853.471069,1333
853.588928,1375
853.706604,1386
853.824402,1359
853.9422,1361
854.059998,1343
854.177734,1400
854.295532,1394
854.413269,1381
854.531006,1412
854.648804,1400
854.766541,1397
854.884277,1378
855.002014,1385
855.119751,1376
855.237549,1412
855.355225,1391
855.473022,1389
855.590698,1374
855.708435,1359
855.826172,1391
855.943848,1356
856.061646,1362
856.179321,1408
856.296997,1348
856.414795,1418
856.53241,1399
856.650085,1378
856.767822,1364
856.885559,1398
857.003174,1351
857.120911,1370
857.238586,1394
857.356201,1450
857.473938,1400
857.591614,1388
857.709351,1390
857.826965,1396
857.944641,1374
858.062317,1376
858.179993,1378
858.297668,1416
858.415283,1387
858.532959,1391
858.650574,1403
858.768188,1338
858.885803,1388
859.003479,1366
859.121094,1383
859.23877,1365
859.356384,1363
859.473999,1374
859.591675,1417
859.709229,1401
859.826843,1376
859.944458,1406
860.062012,1337
860.179626,1388
860.297302,1356
860.414856,1359
860.532471,1336
860.650024,1350
860.767639,1322
860.885193,1349
861.002808,1374
861.120361,1330
861.237976,1358
861.35553,1344
861.473022,1360
861.590698,1349
861.708191,1316
861.825745,1371
861.943298,1360
862.060852,1314
862.178406,1364
862.295959,1375
862.413513,1341
862.531006,1356
862.64856,1369
862.766113,1380
862.883667,1367
863.00116,1351
863.118713,1397
863.236206,1322
863.353699,1368
863.471252,1346
863.588745,1330
863.706177,1353
863.82373,1377
863.941162,1385
864.058716,1399
864.176208,1353
864.29364,1341
864.411194,1384
864.528687,1340
864.646118,1346
864.763611,1353
864.881042,1374
864.998535,1327
865.116028,1370
865.233459,1338
865.350891,1376
865.468384,1349
865.585754,1351
865.703308,1354
865.820679,1389
865.938171,1356
866.055542,1375
866.173035,1342
866.290466,1354
866.407837,1397
866.52533,1367
866.6427,1352
866.760071,1372
866.877563,1382
866.994934,1368
867.112305,1351
867.229736,1359
867.347107,1383
867.464539,1378
867.58197,1420
867.699341,1388
867.81665,1365
867.934082,1355
868.051453,1345
868.168823,1382
868.286194,1401
868.403564,1361
868.520935,1393
868.638306,1389
868.755676,1351
868.872986,1386
868.990295,1436
869.107727,1395
869.225037,1411
869.342346,1375
869.459717,1366
869.577026,1370
869.694336,1365
869.811707,1348
869.929016,1402
870.046326,1369
870.163635,1393
870.280945,1382
870.398254,1384
870.515564,1401
870.632812,1377
870.750183,1377
870.867432,1391
870.984741,1373
871.102051,1372
871.219299,1333
871.336609,1378
871.453918,1359
871.571106,1393
871.688416,1388
871.805664,1353
871.922852,1364
872.040222,1367
872.157471,1396
872.274719,1354
872.391968,1390
872.509155,1379
872.626465,1329
872.743652,1389
872.860962,1363
872.978149,1390
873.095337,1352
873.212646,1395
873.329834,1374
873.44696,1374
873.564209,1406
873.681396,1362
873.798645,1333
873.915894,1347
874.03302,1392
874.150208,1355
874.267456,1384
874.384583,1388
874.501831,1375
874.618958,1374
874.736145,1370
874.853333,1349
874.970459,1413
875.087646,1350
875.204834,1382
875.32196,1373
875.439148,1397
875.556274,1318
875.673401,1376
875.790527,1371
875.907715,1379
876.024841,1343
876.141968,1353
876.259094,1354
876.376282,1384
876.493347,1381
876.610474,1352
876.7276,1363
876.844727,1412
876.961853,1372
877.078918,1331
877.195984,1363
877.313171,1395
877.430237,1316
877.547302,1382
877.664368,1380
877.781433,1358
877.898499,1377
878.015625,1375
878.13269,1407
878.249695,1386
878.366821,1361
878.483887,1378
878.600952,1377
878.717957,1356
878.834961,1394
878.952087,1366
879.069092,1381
879.186157,1391
879.303162,1338
879.420227,1372
879.537231,1376
879.654236,1369
879.77124,1353
879.888306,1329
880.005249,1379
880.122314,1345
880.239319,1349
880.356323,1358
880.473328,1354
880.590271,1353
880.707275,1345
880.824341,1365
880.941284,1355
881.058228,1408
881.175232,1372
881.292236,1339
881.40918,1376
881.526123,1365
881.643066,1388
881.760071,1362
881.877014,1377
881.993958,1394
882.11084,1371
882.227783,1359
882.344727,1363
882.46167,1378
882.578613,1359
882.695618,1382
882.812439,1356
882.929382,1386
883.046326,1359
883.163208,1344
883.280151,1351
883.397034,1348
883.513916,1326
883.630798,1376
883.747742,1386
883.864563,1363
883.981506,1358
884.098389,1360
884.21521,1370
884.332153,1385
884.448975,1400
884.565796,1416
884.682678,1392
884.7995,1382
884.916443,1376
885.033264,1432
885.150085,1429
885.266968,1446
885.383789,1405
885.500671,1415
885.617493,1382
885.734314,1432
885.851196,1413
885.967896,1392
886.084717,1400
886.201599,1460
886.318359,1441
886.435181,1408
886.552002,1400
886.668762,1408
886.785645,1396
886.902344,1424
887.019165,1407
887.135925,1436
887.252747,1439
887.369446,1377
887.486267,1408
887.603027,1427
887.719788,1400
887.836548,1411
887.953247,1407
888.070068,1397
888.186829,1391
888.303528,1391
888.420288,1376
888.536987,1418
888.653687,1361
888.770447,1402
888.887146,1373
889.003967,1392
889.120667,1406
889.237305,1382
889.354065,1392
889.470703,1423
889.587463,1408
889.704163,1389
889.820862,1417
889.937561,1405
890.054199,1425
890.170837,1366
890.287598,1371
890.404236,1387
890.520874,1394
890.637634,1408
890.754211,1404
890.87085,1379
890.987549,1411
891.104187,1397
891.220886,1356
891.337463,1374
891.454102,1441
891.57074,1391
891.687378,1418
891.804077,1397
891.920654,1409
892.037231,1419
892.15387,1429
892.270447,1361
892.387085,1449
892.503723,1381
892.6203,1407
892.736877,1387
892.853516,1397
892.970032,1470
893.08667,1400
893.203186,1419
893.319763,1374
893.43634,1438
893.552917,1406
893.669556,1458
893.786011,1372
893.902588,1434
894.019165,1383
894.135681,1398
894.252197,1421
894.368835,1427
894.485291,1461
894.601868,1387
894.718384,1419
894.8349,1403
894.951355,1406
895.067932,1404
895.184448,1399
895.300964,1447
895.417419,1438
895.533936,1394
895.650452,1403
895.766907,1427
895.883423,1404
895.999878,1410
896.116333,1412
896.232849,1390
896.349304,1449
896.465759,1355
896.582214,1425
896.698669,1414
896.815125,1422
896.931641,1407
897.048035,1411
897.164551,1395
897.280884,1421
897.397339,1408
897.513794,1419
897.630249,1431
897.746582,1438
897.863098,1437
897.979431,1429
898.095886,1431
898.212341,1396
898.328674,1407
898.445129,1411
898.561462,1409
898.677795,1466
898.794312,1402
898.910645,1418
899.026978,1459
899.143433,1421
899.259766,1392
899.37616,1424
899.492493,1403
899.608765,1407
899.725159,1402
899.841553,1423
899.957947,1394
900.07428,1442
900.190552,1409
900.306946,1434
900.423157,1450
900.53949,1442
900.655884,1391
900.772156,1420
900.888489,1385
901.004822,1431
901.121033,1409
901.237366,1408
901.353699,1424
901.46991,1425
901.586304,1404
901.702515,1431
901.818787,1430
901.93512,1454
902.051331,1397
902.167603,1469
902.283875,1416
902.400085,1440
902.516418,1469
902.632629,1476
902.74884,1390
902.865112,1477
902.981384,1391
903.097595,1464
903.213867,1468
903.330017,1415
903.446289,1485
903.5625,1439
903.67865,1426
903.794922,1482
903.911072,1431
904.027344,1451
904.143494,1466
904.259705,1471
904.375916,1434
904.492065,1468
904.608215,1454
904.724426,1449
904.840576,1437
904.956726,1454
905.072876,1416
905.189087,1412
905.305176,1423
905.421387,1450
905.537537,1450
905.653687,1454
905.769775,1441
905.885925,1456
906.002014,1425
906.118164,1402
906.234314,1447
906.350403,1414
906.466492,1434
906.582642,1475
906.69873,1460
906.814758,1464
906.930908,1464
907.046936,1428
907.163086,1474
907.279175,1409
907.395264,1483
907.511353,1435
907.62738,1450
907.743408,1433
907.859497,1476
907.975525,1456
908.091553,1473
908.207703,1505
908.32373,1406
908.439758,1441
908.555786,1468
908.671814,1459
908.787842,1414
908.90387,1490
909.019775,1439
909.135864,1415
909.251892,1476
909.367859,1498
909.483826,1403
909.599854,1463
909.715881,1440
909.831848,1448
909.947815,1484
910.063782,1442
910.179749,1475
910.295776,1488
910.411743,1465
910.527649,1428
910.643616,1453
910.759583,1470
910.875488,1434
910.991455,1453
911.107361,1468
911.223267,1437
911.339294,1432
911.4552,1458
911.571106,1463
911.687073,1434
911.802979,1482
911.918823,1435
912.034729,1436
912.150635,1433
912.266602,1433
912.382446,1427
912.498352,1442
912.614197,1422
912.730103,1440
912.846008,1421
792.44574,2420
792.56488,2409
792.68396,2346
792.80304,2370
792.92218,2304
793.041199,2224
793.160339,2237
793.279419,2224
793.398499,2287
793.517578,2223
793.636658,2211
793.755737,2265
793.874817,2194
793.993896,2212
794.112976,2206
794.232056,2137
794.351074,2195
794.470215,2153
794.589233,2115
794.708313,2150
794.827393,2105
794.946411,2093
795.065552,2124
795.18457,2128
795.303589,2113
795.422668,2084
795.541687,2123
795.660767,2097
795.779846,2062
795.898865,2035
796.017883,2070
796.136963,2066
796.255981,2060
796.375061,2064
796.49408,1998
796.613037,2088
796.732117,2027
796.851135,2032
796.970154,2038
797.089233,2012
797.208191,2026
797.327271,1979
797.446228,2012
797.565186,2016
797.684265,2015
797.803223,2001
797.922241,1937
798.04126,2032
798.160278,2025
798.279297,1979
798.398315,2038
798.517273,2020
798.636292,2008
798.75531,2006
798.874268,1990
798.993286,2031
799.112244,1984
799.231323,1957
799.350281,1982
799.469238,1966
799.588257,1999
799.707153,1980
799.826111,2015
799.945129,1961
800.064087,2005
800.183044,2028
800.302063,1987
800.421021,1939
800.539978,1999
800.658936,1995
800.777893,2001
800.896912,2013
801.015747,2041
801.134705,1991
801.253723,1950
801.37262,2010
801.491638,2002
801.610535,2021
801.729492,2001
801.84845,2010
801.967407,1994
802.086243,2058
802.205261,2040
802.324158,2046
802.443115,2002
802.562073,2073
802.680969,2044
802.799927,2095
802.918762,2086
803.037659,2065
803.156677,2062
803.275574,2100
803.39447,2045
803.513428,2071
803.632263,2070
803.751221,2047
803.870117,2048
803.989014,2058
804.107971,2096
804.226746,2106
804.345642,2055
804.4646,2140
804.583496,2124
804.702393,2064
804.821228,2067
804.940125,2074
805.059021,2122
805.177917,2076
805.296814,2139
805.415649,2083
805.534546,2117
805.653442,2096
805.772278,2157
805.891113,2143
806.01001,2178
806.128906,2147
806.247742,2083
806.366577,2122
806.485413,2116
806.604309,2205
806.723145,2147
806.84198,2126
806.960876,2127
807.079712,2126
807.198486,2157
807.317383,2148
807.436218,2132
807.554993,2169
807.673889,2166
807.792725,2150
807.91156,2190
808.030396,2161
808.14917,2109
808.268005,2163
808.386841,2165
808.505676,2182
808.624451,2137
808.743286,2165
808.862122,2212
808.980896,2188
809.099731,2197
809.218506,2174
809.337341,2135
809.456116,2217
809.57489,2225
809.693726,2219
809.8125,2219
809.931274,2206
810.050049,2192
810.168884,2247
810.287659,2240
810.406372,2237
810.525269,2210
810.643982,2180
810.762756,2224
810.881531,2221
811.000305,2256
811.11908,2204
811.237854,2199
811.356567,2220
811.475403,2208
811.594116,2243
811.71283,2208
811.831604,2225
811.950378,2241
812.069153,2229
812.187927,2265
812.30658,2234
812.425415,2230
812.544128,2222
812.662781,2222
812.781616,2192
812.900269,2295
813.019043,2171
813.137756,2277
813.256531,2185
813.375244,2203
813.493896,2212
813.612671,2231
813.731384,2199
813.850037,2216
813.96875,2149
814.087524,2207
814.206238,2177
814.324951,2179
814.443604,2186
814.562256,2211
814.68103,2216
814.799683,2188
814.918335,2143
815.037109,2175
815.155762,2227
815.274475,2164
815.393188,2219
815.511841,2157
815.630554,2164
815.749146,2158
815.867859,2120
815.986572,2100
816.105164,2127
816.223877,2086
816.342529,2066
816.461182,2171
816.579895,2153
816.698486,2140
816.817139,2204
816.935791,2185
817.054504,2149
817.173096,2152
817.291748,2208
817.4104,2156
817.529053,2069
817.647644,2092
817.766235,2079
817.884949,1933
818.00354,2002
818.122192,1922
818.240845,1913
818.359436,1860
818.478088,1868
818.59668,1799
818.715271,1830
818.833923,1770
818.952515,1753
819.071106,1700
819.189758,1687
819.30835,1671
819.426941,1662
819.545532,1673
819.664124,1647
819.782715,1627
819.901306,1619
820.019897,1614
820.138489,1629
820.25708,1618
820.375671,1640
820.494202,1600
820.612732,1551
820.731384,1589
820.849915,1540
820.968506,1561
821.087097,1541
821.205627,1552
821.324158,1548
821.442749,1514
821.561279,1551
821.679871,1555
821.798401,1519
821.916931,1512
822.035461,1549
822.154053,1538
822.272583,1526
822.391174,1500
822.509583,1557
822.628174,1523
822.746704,1559
822.865234,1481
822.983765,1566
823.102295,1498
823.220825,1524
823.339294,1491
823.457825,1493
823.576355,1516
823.694824,1487
823.813354,1536
823.931885,1525
824.050354,1552
824.168884,1549
824.287354,1547
824.405823,1551
824.524353,1524
824.642822,1489
824.761353,1553
824.879822,1553
824.998291,1574
825.116699,1512
825.235291,1528
825.353699,1527
825.472168,1498
825.590637,1543
825.709106,1477
825.827576,1467
825.946045,1489
826.064453,1498
826.182983,1420
826.301392,1461
826.4198,1462
826.53833,1447
826.656738,1474
826.775208,1449
826.893677,1435
827.012024,1453
827.130493,1418
827.248962,1465
827.36731,1459
827.485779,1435
827.604248,1467
827.722595,1421
827.841064,1389
827.959412,1440
828.077942,1415
828.196289,1451
828.314636,1446
828.433105,1461
828.551514,1408
828.669861,1445
828.78833,1414
828.906677,1440
829.025085,1424
829.143433,1393
829.261841,1397
829.38031,1419
829.498657,1442
829.617004,1401
829.735413,1391
829.85376,1396
829.972107,1429
830.090515,1389
830.208862,1393
830.327209,1434
830.445557,1399
830.563904,1413
830.682312,1404
830.800659,1399
830.919006,1362
831.037354,1401
831.155701,1411
831.274048,1379
831.392395,1412
831.51062,1391
831.629028,1371
831.747314,1428
831.865662,1363
831.984009,1426
832.102356,1365
832.220642,1375
832.338928,1407
832.457275,1420
832.575623,1443
832.693909,1406
832.812134,1397
832.930481,1402
833.048828,1386
833.167114,1390
833.2854,1343
833.403687,1456
833.521973,1403
833.640259,1369
833.758545,1408
833.876831,1443
833.995056,1376
834.113281,1388
834.231628,1411
834.349915,1384
834.468201,1371
834.586426,1355
834.704651,1394
834.822998,1392
834.941162,1441
835.059448,1405
835.177673,1364
835.295959,1424
835.414246,1409
835.53241,1403
835.650635,1421
835.768921,1424
835.887146,1416
836.005371,1350
836.123596,1434
836.241821,1429
836.360046,1460
836.478271,1435
836.596497,1470
836.714722,1453
836.832886,1409
836.95105,1466
837.069336,1442
837.1875,1475
837.305725,1472
837.423889,1467
837.542053,1446
837.660339,1426
837.778503,1518
837.896667,1502
838.014832,1423
838.132996,1461
838.25116,1451
838.369385,1470
838.487488,1462
838.605713,1494
838.723877,1512
838.84198,1472
838.960205,1452
839.078308,1468
839.196472,1476
839.314636,1458
839.4328,1449
839.550964,1486
839.669067,1449
839.787231,1450
839.905396,1440
840.023499,1462
840.141602,1437
840.259766,1451
840.377869,1476
840.495972,1480
840.614136,1454
840.732239,1433
840.850342,1443
840.968445,1425
841.086548,1455
841.204651,1449
841.322754,1448
841.440918,1419
841.55896,1451
841.677002,1386
841.795166,1432
841.913208,1404
842.031311,1402
842.149353,1361
842.267456,1362
842.385498,1392
842.503601,1409
842.621643,1406
842.739746,1399
842.857788,1382
842.97583,1414
843.093933,1404
843.211975,1427
843.330017,1348
843.44812,1343
843.566101,1367
843.684204,1358
843.802246,1381
843.920227,1348
844.038269,1390
844.156311,1375
844.274292,1375
844.392395,1396
844.510376,1370
844.628357,1349
844.74646,1350
844.864441,1330
844.982422,1363
845.100403,1369
845.218384,1353
845.336426,1347
845.454468,1364
845.572449,1380
845.69043,1404
845.808411,1322
845.926453,1347
846.044373,1339
846.162354,1355
846.280396,1376
846.398315,1368
846.516296,1368
846.634216,1369
846.752197,1326
846.870178,1367
846.988098,1347
847.106079,1366
847.22406,1348
847.34198,1334
847.4599,1397
847.577881,1367
847.695801,1331
847.813782,1402
847.931641,1349
848.049561,1348
848.167603,1339
848.285461,1366
848.403381,1388
848.521362,1348
848.639221,1334
848.75708,1348
848.875,1330
848.99292,1355
849.110901,1331
849.22876,1342
849.34668,1351
849.464539,1375
849.582458,1329
849.700317,1356
849.818176,1338
849.936096,1361
850.053955,1361
850.171875,1341
850.289673,1320
850.407593,1339
850.525452,1365
850.643311,1353
850.761169,1371
850.878967,1405
850.996887,1321
851.114746,1311
851.232544,1349
851.350403,1349
851.468262,1337
851.58606,1367
851.703979,1354
851.821777,1337
851.939636,1379
852.057434,1352
852.175232,1351
852.293091,1378
852.410889,1330
852.528687,1350
852.646545,1377
852.764343,1370
852.88208,1397
852.999939,1387
853.117676,1433
853.235535,1347
853.353271,1379
853.471069,1378
853.588928,1385
853.706604,1383
853.824402,1399
853.9422,1364
854.059998,1350
854.177734,1367
854.295532,1405
854.413269,1396
854.531006,1395
854.648804,1353
854.766541,1352
854.884277,1353
855.002014,1361
855.119751,1400
855.237549,1376
855.355225,1375
855.473022,1392
855.590698,1396
855.708435,1392
855.826172,1393
855.943848,1407
856.061646,1392
856.179321,1423
856.296997,1378
856.414795,1359
856.53241,1363
856.650085,1396
856.767822,1354
856.885559,1395
857.003174,1404
857.120911,1409
857.238586,1409
857.356201,1426
857.473938,1411
857.591614,1384
857.709351,1409
857.826965,1426
857.944641,1382
858.062317,1416
858.179993,1376
858.297668,1405
858.415283,1390
858.532959,1403
858.650574,1379
858.768188,1352
858.885803,1385
859.003479,1386
859.121094,1361
859.23877,1368
859.356384,1382
859.473999,1407
859.591675,1406
859.709229,1404
859.826843,1396
859.944458,1373
860.062012,1363
860.179626,1415
860.297302,1354
860.414856,1386
860.532471,1349
860.650024,1365
860.767639,1372
860.885193,1356
861.002808,1348
861.120361,1427
861.237976,1351
861.35553,1393
861.473022,1391
861.590698,1383
861.708191,1333
861.825745,1394
861.943298,1359
862.060852,1357
862.178406,1353
862.295959,1367
862.413513,1356
862.531006,1340
862.64856,1367
862.766113,1332
862.883667,1334
863.00116,1396
863.118713,1403
863.236206,1383
863.353699,1350
863.471252,1345
863.588745,1363
863.706177,1361
863.82373,1357
863.941162,1359
864.058716,1365
864.176208,1381
864.29364,1349
864.411194,1359
864.528687,1341
864.646118,1406
864.763611,1311
864.881042,1368
864.998535,1389
865.116028,1366
865.233459,1392
865.350891,1386
865.468384,1418
865.585754,1376
865.703308,1401
865.820679,1398
865.938171,1403
866.055542,1389
866.173035,1365
866.290466,1360
866.407837,1352
866.52533,1406
866.6427,1365
866.760071,1399
866.877563,1383
866.994934,1377
867.112305,1384
867.229736,1363
867.347107,1406
867.464539,1346
867.58197,1386
867.699341,1380
867.81665,1357
867.934082,1401
868.051453,1365
868.168823,1376
868.286194,1375
868.403564,1403
868.520935,1408
868.638306,1362
868.755676,1374
868.872986,1361
868.990295,1372
869.107727,1384
869.225037,1367
869.342346,1400
869.459717,1392
869.577026,1373
869.694336,1405
869.811707,1335
869.929016,1377
870.046326,1366
870.163635,1406
870.280945,1387
870.398254,1373
870.515564,1363
870.632812,1346
870.750183,1418
870.867432,1370
870.984741,1374
871.102051,1421
871.219299,1367
871.336609,1375
871.453918,1385
871.571106,1379
871.688416,1392
871.805664,1400
871.922852,1435
872.040222,1370
872.157471,1398
872.274719,1397
872.391968,1422
872.509155,1344
872.626465,1384
872.743652,1406
872.860962,1362
872.978149,1392
873.095337,1357
873.212646,1385
873.329834,1350
873.44696,1345
873.564209,1385
873.681396,1396
873.798645,1401
873.915894,1361
874.03302,1395
874.150208,1377
874.267456,1383
874.384583,1395
874.501831,1396
874.618958,1376
874.736145,1419
874.853333,1378
874.970459,1340
875.087646,1397
875.204834,1391
875.32196,1394
875.439148,1434
875.556274,1361
875.673401,1383
875.790527,1380
875.907715,1363
876.024841,1361
876.141968,1373
876.259094,1360
876.376282,1338
876.493347,1392
876.610474,1369
876.7276,1358
876.844727,1378
876.961853,1385
877.078918,1395
877.195984,1400
877.313171,1393
877.430237,1363
877.547302,1396
877.664368,1402
877.781433,1369
877.898499,1399
878.015625,1394
878.13269,1347
878.249695,1409
878.366821,1344
878.483887,1376
878.600952,1369
878.717957,1376
878.834961,1407
878.952087,1378
879.069092,1361
879.186157,1390
879.303162,1367
879.420227,1391
879.537231,1331
879.654236,1398
879.77124,1342
879.888306,1358
880.005249,1383
880.122314,1383
880.239319,1424
880.356323,1342
880.473328,1383
880.590271,1366
880.707275,1332
880.824341,1360
880.941284,1405
881.058228,1405
881.175232,1355
881.292236,1376
881.40918,1378
881.526123,1344
881.643066,1373
881.760071,1348
881.877014,1418
881.993958,1370
882.11084,1346
882.227783,1338
882.344727,1365
882.46167,1351
882.578613,1367
882.695618,1383
882.812439,1392
882.929382,1400
883.046326,1418
883.163208,1398
883.280151,1354
883.397034,1361
883.513916,1374
883.630798,1374
883.747742,1421
883.864563,1357
883.981506,1381
884.098389,1387
884.21521,1407
884.332153,1389
884.448975,1393
884.565796,1397
884.682678,1396
884.7995,1398
884.916443,1421
885.033264,1410
885.150085,1415
885.266968,1412
885.383789,1417
885.500671,1388
885.617493,1455
885.734314,1473
885.851196,1392
885.967896,1397
886.084717,1395
886.201599,1412
886.318359,1414
886.435181,1424
886.552002,1439
886.668762,1449
886.785645,1426
886.902344,1454
887.019165,1421
887.135925,1438
887.252747,1443
887.369446,1377
887.486267,1414
887.603027,1374
887.719788,1422
887.836548,1413
887.953247,1370
888.070068,1398
888.186829,1401
888.303528,1443
888.420288,1372
888.536987,1432
888.653687,1427
888.770447,1380
888.887146,1388
889.003967,1404
889.120667,1410
889.237305,1383
889.354065,1413
889.470703,1380
889.587463,1367
889.704163,1384
889.820862,1387
889.937561,1427
890.054199,1385
890.170837,1444
890.287598,1427
890.404236,1420
890.520874,1432
890.637634,1456
890.754211,1378
890.87085,1444
890.987549,1403
891.104187,1425
891.220886,1427
891.337463,1451
891.454102,1413
891.57074,1395
891.687378,1430
891.804077,1357
891.920654,1412
892.037231,1384
892.15387,1409
892.270447,1390
892.387085,1432
892.503723,1374
892.6203,1418
892.736877,1429
892.853516,1413
892.970032,1375
893.08667,1440
893.203186,1383
893.319763,1397
893.43634,1415
893.552917,1485
893.669556,1400
893.786011,1438
893.902588,1420
894.019165,1421
894.135681,1402
894.252197,1425
894.368835,1414
894.485291,1426
894.601868,1445
894.718384,1406
894.8349,1457
894.951355,1401
895.067932,1406
895.184448,1444
895.300964,1414
895.417419,1410
895.533936,1385
895.650452,1432
895.766907,1407
895.883423,1432
895.999878,1376
896.116333,1426
896.232849,1442
896.349304,1408
896.465759,1437
896.582214,1404
896.698669,1453
896.815125,1431
896.931641,1403
897.048035,1396
897.164551,1436
897.280884,1412
897.397339,1386
897.513794,1432
897.630249,1453
897.746582,1417
897.863098,1439
897.979431,1426
898.095886,1424
898.212341,1424
898.328674,1437
898.445129,1409
898.561462,1426
898.677795,1420
898.794312,1402
898.910645,1429
899.026978,1438
899.143433,1390
899.259766,1445
899.37616,1433
899.492493,1472
899.608765,1438
899.725159,1431
899.841553,1442
899.957947,1438
900.07428,1444
900.190552,1470
900.306946,1408
900.423157,1445
900.53949,1453
900.655884,1458
900.772156,1440
900.888489,1437
901.004822,1388
901.121033,1427
901.237366,1445
901.353699,1434
901.46991,1440
901.586304,1440
901.702515,1421
901.818787,1451
901.93512,1409
902.051331,1485
902.167603,1441
902.283875,1440
902.400085,1407
902.516418,1469
902.632629,1481
902.74884,1486
902.865112,1499
902.981384,1435
903.097595,1439
903.213867,1464
903.330017,1498
903.446289,1439
903.5625,1479
903.67865,1422
903.794922,1468
903.911072,1444
904.027344,1512
904.143494,1453
904.259705,1441
904.375916,1524
904.492065,1460
904.608215,1456
904.724426,1433
904.840576,1478
904.956726,1463
905.072876,1448
905.189087,1438
905.305176,1464
905.421387,1444
905.537537,1448
905.653687,1453
905.769775,1435
905.885925,1438
906.002014,1468
906.118164,1483
906.234314,1478
906.350403,1480
906.466492,1469
906.582642,1456
906.69873,1440
906.814758,1412
906.930908,1441
907.046936,1454
907.163086,1397
907.279175,1461
907.395264,1477
907.511353,1458
907.62738,1460
907.743408,1435
907.859497,1479
907.975525,1467
908.091553,1488
908.207703,1443
908.32373,1457
908.439758,1446
908.555786,1466
908.671814,1448
908.787842,1477
908.90387,1503
909.019775,1432
909.135864,1463
909.251892,1476
909.367859,1465
909.483826,1462
909.599854,1447
909.715881,1481
909.831848,1452
909.947815,1435
910.063782,1460
910.179749,1448
910.295776,1484
910.411743,1489
910.527649,1424
910.643616,1487
910.759583,1460
910.875488,1495
910.991455,1469
911.107361,1441
911.223267,1477
911.339294,1451
911.4552,1459
911.571106,1416
911.687073,1477
911.802979,1444
911.918823,1453
912.034729,1474
912.150635,1458
912.266602,1453
912.382446,1421
912.498352,1461
912.614197,1437
912.730103,1447
912.846008,1452
