792.44574,1577
792.56488,1617
792.68396,1692
792.80304,1575
792.92218,1507
793.041199,1557
793.160339,1556
793.279419,1592
793.398499,1546
793.517578,1497
793.636658,1523
793.755737,1566
793.874817,1544
793.993896,1525
794.112976,1523
794.232056,1503
794.351074,1502
794.470215,1524
794.589233,1505
794.708313,1531
794.827393,1498
794.946411,1524
795.065552,1528
795.18457,1508
795.303589,1498
795.422668,1524
795.541687,1488
795.660767,1471
795.779846,1503
795.898865,1495
796.017883,1488
796.136963,1468
796.255981,1476
796.375061,1473
796.49408,1519
796.613037,1478
796.732117,1453
796.851135,1497
796.970154,1515
797.089233,1424
797.208191,1505
797.327271,1498
797.446228,1474
797.565186,1447
797.684265,1532
797.803223,1492
797.922241,1396
798.04126,1474
798.160278,1481
798.279297,1442
798.398315,1440
798.517273,1428
798.636292,1462
798.75531,1462
798.874268,1434
798.993286,1497
799.112244,1440
799.231323,1465
799.350281,1478
799.469238,1465
799.588257,1451
799.707153,1433
799.826111,1440
799.945129,1453
800.064087,1438
800.183044,1457
800.302063,1453
800.421021,1475
800.539978,1422
800.658936,1447
800.777893,1466
800.896912,1486
801.015747,1448
801.134705,1459
801.253723,1455
801.37262,1464
801.491638,1425
801.610535,1431
801.729492,1454
801.84845,1420
801.967407,1444
802.086243,1461
802.205261,1419
802.324158,1457
802.443115,1466
802.562073,1450
802.680969,1458
802.799927,1483
802.918762,1410
803.037659,1438
803.156677,1438
803.275574,1451
803.39447,1475
803.513428,1428
803.632263,1488
803.751221,1401
803.870117,1477
803.989014,1445
804.107971,1443
804.226746,1446
804.345642,1470
804.4646,1407
804.583496,1463
804.702393,1480
804.821228,1414
804.940125,1481
805.059021,1418
805.177917,1484
805.296814,1456
805.415649,1468
805.534546,1462
805.653442,1435
805.772278,1417
805.891113,1494
806.01001,1415
806.128906,1436
806.247742,1465
806.366577,1413
806.485413,1455
806.604309,1445
806.723145,1443
806.84198,1464
806.960876,1496
807.079712,1459
807.198486,1454
807.317383,1466
807.436218,1474
807.554993,1437
807.673889,1469
807.792725,1432
807.91156,1478
808.030396,1453
808.14917,1449
808.268005,1433
808.386841,1488
808.505676,1431
808.624451,1427
808.743286,1441
808.862122,1458
808.980896,1455
809.099731,1473
809.218506,1405
809.337341,1478
809.456116,1473
809.57489,1439
809.693726,1468
809.8125,1461
809.931274,1438
810.050049,1454
810.168884,1464
810.287659,1421
810.406372,1483
810.525269,1498
810.643982,1411
810.762756,1497
810.881531,1422
811.000305,1462
811.11908,1458
811.237854,1432
811.356567,1457
811.475403,1472
811.594116,1476
811.71283,1455
811.831604,1486
811.950378,1447
812.069153,1410
812.187927,1463
812.30658,1450
812.425415,1433
812.544128,1441
812.662781,1427
812.781616,1435
812.900269,1446
813.019043,1452
813.137756,1439
813.256531,1438
813.375244,1442
813.493896,1438
813.612671,1427
813.731384,1456
813.850037,1434
813.96875,1438
814.087524,1432
814.206238,1402
814.324951,1436
814.443604,1443
814.562256,1428
814.68103,1382
814.799683,1407
814.918335,1396
815.037109,1415
815.155762,1459
815.274475,1430
815.393188,1471
815.511841,1441
815.630554,1409
815.749146,1433
815.867859,1425
815.986572,1410
816.105164,1407
816.223877,1400
816.342529,1430
816.461182,1402
816.579895,1413
816.698486,1377
816.817139,1466
816.935791,1420
817.054504,1442
817.173096,1401
817.291748,1397
817.4104,1382
817.529053,1396
817.647644,1455
817.766235,1409
817.884949,1395
818.00354,1401
818.122192,1407
818.240845,1357
818.359436,1383
818.478088,1389
818.59668,1402
818.715271,1383
818.833923,1365
818.952515,1380
819.071106,1368
819.189758,1316
819.30835,1369
819.426941,1375
819.545532,1338
819.664124,1341
819.782715,1334
819.901306,1342
820.019897,1377
820.138489,1297
820.25708,1349
820.375671,1292
820.494202,1313
820.612732,1320
820.731384,1326
820.849915,1328
820.968506,1310
821.087097,1359
821.205627,1327
821.324158,1317
821.442749,1332
821.561279,1305
821.679871,1333
821.798401,1335
821.916931,1310
822.035461,1298
822.154053,1301
822.272583,1290
822.391174,1298
822.509583,1327
822.628174,1333
822.746704,1330
822.865234,1327
822.983765,1323
823.102295,1337
823.220825,1303
823.339294,1276
823.457825,1336
823.576355,1268
823.694824,1292
823.813354,1289
823.931885,1307
824.050354,1294
824.168884,1316
824.287354,1272
824.405823,1348
824.524353,1319
824.642822,1300
824.761353,1316
824.879822,1301
824.998291,1285
825.116699,1353
825.235291,1282
825.353699,1326
825.472168,1319
825.590637,1301
825.709106,1315
825.827576,1318
825.946045,1322
826.064453,1315
826.182983,1257
826.301392,1288
826.4198,1269
826.53833,1269
826.656738,1258
826.775208,1289
826.893677,1316
827.012024,1273
827.130493,1294
827.248962,1267
827.36731,1279
827.485779,1277
827.604248,1280
827.722595,1303
827.841064,1250
827.959412,1294
828.077942,1274
828.196289,1283
828.314636,1273
828.433105,1243
828.551514,1282
828.669861,1256
828.78833,1300
828.906677,1269
829.025085,1235
829.143433,1301
829.261841,1263
829.38031,1247
829.498657,1269
829.617004,1293
829.735413,1286
829.85376,1265
829.972107,1261
830.090515,1217
830.208862,1265
830.327209,1265
830.445557,1270
830.563904,1258
830.682312,1293
830.800659,1236
830.919006,1251
831.037354,1241
831.155701,1257
831.274048,1278
831.392395,1258
831.51062,1274
831.629028,1238
831.747314,1297
831.865662,1245
831.984009,1274
832.102356,1240
832.220642,1294
832.338928,1270
832.457275,1250
832.575623,1251
832.693909,1283
832.812134,1215
832.930481,1278
833.048828,1290
833.167114,1260
833.2854,1219
833.403687,1257
833.521973,1272
833.640259,1220
833.758545,1292
833.876831,1255
833.995056,1263
834.113281,1238
834.231628,1296
834.349915,1311
834.468201,1278
834.586426,1257
834.704651,1273
834.822998,1268
834.941162,1240
835.059448,1255
835.177673,1285
835.295959,1242
835.414246,1234
835.53241,1253
835.650635,1268
835.768921,1268
835.887146,1279
836.005371,1248
836.123596,1243
836.241821,1238
836.360046,1294
836.478271,1322
836.596497,1233
836.714722,1261
836.832886,1227
836.95105,1291
837.069336,1276
837.1875,1302
837.305725,1283
837.423889,1294
837.542053,1246
837.660339,1279
837.778503,1261
837.896667,1276
838.014832,1226
838.132996,1247
838.25116,1283
838.369385,1248
838.487488,1278
838.605713,1281
838.723877,1291
838.84198,1255
838.960205,1244
839.078308,1268
839.196472,1229
839.314636,1256
839.4328,1231
839.550964,1247
839.669067,1229
839.787231,1257
839.905396,1252
840.023499,1238
840.141602,1239
840.259766,1245
840.377869,1250
840.495972,1193
840.614136,1242
840.732239,1264
840.850342,1261
840.968445,1229
841.086548,1233
841.204651,1256
841.322754,1235
841.440918,1222
841.55896,1262
841.677002,1262
841.795166,1268
841.913208,1251
842.031311,1254
842.149353,1268
842.267456,1271
842.385498,1244
842.503601,1233
842.621643,1239
842.739746,1247
842.857788,1244
842.97583,1228
843.093933,1232
843.211975,1272
843.330017,1264
843.44812,1194
843.566101,1212
843.684204,1253
843.802246,1232
843.920227,1245
844.038269,1235
844.156311,1256
844.274292,1226
844.392395,1206
844.510376,1218
844.628357,1237
844.74646,1241
844.864441,1251
844.982422,1229
845.100403,1232
845.218384,1216
845.336426,1280
845.454468,1239
845.572449,1227
845.69043,1223
845.808411,1235
845.926453,1222
846.044373,1235
846.162354,1247
846.280396,1222
846.398315,1199
846.516296,1211
846.634216,1249
846.752197,1241
846.870178,1280
846.988098,1230
847.106079,1242
847.22406,1269
847.34198,1251
847.4599,1211
847.577881,1234
847.695801,1252
847.813782,1200
847.931641,1238
848.049561,1223
848.167603,1222
848.285461,1225
848.403381,1230
848.521362,1257
848.639221,1222
848.75708,1225
848.875,1209
848.99292,1273
849.110901,1228
849.22876,1232
849.34668,1234
849.464539,1220
849.582458,1235
849.700317,1216
849.818176,1256
849.936096,1243
850.053955,1257
850.171875,1243
850.289673,1256
850.407593,1230
850.525452,1264
850.643311,1249
850.761169,1233
850.878967,1259
850.996887,1271
851.114746,1216
851.232544,1222
851.350403,1222
851.468262,1242
851.58606,1205
851.703979,1201
851.821777,1233
851.939636,1276
852.057434,1232
852.175232,1228
852.293091,1237
852.410889,1220
852.528687,1257
852.646545,1265
852.764343,1277
852.88208,1224
852.999939,1294
853.117676,1240
853.235535,1239
853.353271,1236
853.471069,1235
853.588928,1222
853.706604,1290
853.824402,1237
853.9422,1249
854.059998,1221
854.177734,1246
854.295532,1242
854.413269,1243
854.531006,1243
854.648804,1278
854.766541,1229
854.884277,1196
855.002014,1220
855.119751,1238
855.237549,1235
855.355225,1246
855.473022,1262
855.590698,1234
855.708435,1247
855.826172,1213
855.943848,1225
856.061646,1290
856.179321,1261
856.296997,1249
856.414795,1269
856.53241,1303
856.650085,1257
856.767822,1231
856.885559,1246
857.003174,1268
857.120911,1227
857.238586,1274
857.356201,1269
857.473938,1236
857.591614,1276
857.709351,1237
857.826965,1224
857.944641,1261
858.062317,1248
858.179993,1240
858.297668,1239
858.415283,1260
858.532959,1257
858.650574,1265
858.768188,1263
858.885803,1233
859.003479,1237
859.121094,1259
859.23877,1256
859.356384,1228
859.473999,1237
859.591675,1265
859.709229,1271
859.826843,1284
859.944458,1263
860.062012,1246
860.179626,1264
860.297302,1235
860.414856,1258
860.532471,1232
860.650024,1254
860.767639,1275
860.885193,1279
861.002808,1264
861.120361,1268
861.237976,1243
861.35553,1234
861.473022,1218
861.590698,1256
861.708191,1218
861.825745,1264
861.943298,1260
862.060852,1251
862.178406,1246
862.295959,1263
862.413513,1249
862.531006,1262
862.64856,1241
862.766113,1243
862.883667,1241
863.00116,1265
863.118713,1228
863.236206,1245
863.353699,1229
863.471252,1213
863.588745,1248
863.706177,1237
863.82373,1271
863.941162,1243
864.058716,1290
864.176208,1219
864.29364,1247
864.411194,1256
864.528687,1210
864.646118,1246
864.763611,1245
864.881042,1282
864.998535,1220
865.116028,1245
865.233459,1252
865.350891,1269
865.468384,1249
865.585754,1227
865.703308,1278
865.820679,1241
865.938171,1239
866.055542,1258
866.173035,1245
866.290466,1257
866.407837,1270
866.52533,1277
866.6427,1274
866.760071,1266
866.877563,1298
866.994934,1266
867.112305,1280
867.229736,1273
867.347107,1258
867.464539,1289
867.58197,1273
867.699341,1279
867.81665,1220
867.934082,1232
868.051453,1253
868.168823,1234
868.286194,1225
868.403564,1242
868.520935,1256
868.638306,1270
868.755676,1228
868.872986,1219
868.990295,1266
869.107727,1216
869.225037,1305
869.342346,1257
869.459717,1257
869.577026,1247
869.694336,1247
869.811707,1230
869.929016,1251
870.046326,1269
870.163635,1279
870.280945,1280
870.398254,1275
870.515564,1261
870.632812,1295
870.750183,1242
870.867432,1253
870.984741,1264
871.102051,1229
871.219299,1262
871.336609,1270
871.453918,1263
871.571106,1280
871.688416,1247
871.805664,1271
871.922852,1246
872.040222,1260
872.157471,1258
872.274719,1235
872.391968,1267
872.509155,1265
872.626465,1215
872.743652,1299
872.860962,1262
872.978149,1294
873.095337,1267
873.212646,1273
873.329834,1237
873.44696,1300
873.564209,1245
873.681396,1225
873.798645,1262
873.915894,1259
874.03302,1251
874.150208,1268
874.267456,1268
874.384583,1244
874.501831,1248
874.618958,1249
874.736145,1285
874.853333,1270
874.970459,1281
875.087646,1262
875.204834,1244
875.32196,1253
875.439148,1292
875.556274,1294
875.673401,1256
875.790527,1223
875.907715,1260
876.024841,1265
876.141968,1255
876.259094,1253
876.376282,1256
876.493347,1293
876.610474,1287
876.7276,1277
876.844727,1316
876.961853,1281
877.078918,1271
877.195984,1229
877.313171,1270
877.430237,1275
877.547302,1229
877.664368,1300
877.781433,1262
877.898499,1300
878.015625,1301
878.13269,1267
878.249695,1248
878.366821,1251
878.483887,1296
878.600952,1283
878.717957,1276
878.834961,1311
878.952087,1239
879.069092,1279
879.186157,1255
879.303162,1271
879.420227,1296
879.537231,1277
879.654236,1285
879.77124,1265
879.888306,1240
880.005249,1272
880.122314,1262
880.239319,1263
880.356323,1305
880.473328,1246
880.590271,1267
880.707275,1270
880.824341,1259
880.941284,1255
881.058228,1308
881.175232,1303
881.292236,1269
881.40918,1272
881.526123,1246
881.643066,1260
881.760071,1309
881.877014,1251
881.993958,1268
882.11084,1255
882.227783,1280
882.344727,1312
882.46167,1263
882.578613,1280
882.695618,1242
882.812439,1307
882.929382,1266
883.046326,1272
883.163208,1297
883.280151,1301
883.397034,1255
883.513916,1252
883.630798,1290
883.747742,1254
883.864563,1260
883.981506,1281
884.098389,1251
884.21521,1278
884.332153,1249
884.448975,1287
884.565796,1284
884.682678,1303
884.7995,1290
884.916443,1281
885.033264,1273
885.150085,1289
885.266968,1260
885.383789,1292
885.500671,1293
885.617493,1308
885.734314,1315
885.851196,1292
885.967896,1291
886.084717,1296
886.201599,1296
886.318359,1267
886.435181,1328
886.552002,1269
886.668762,1245
886.785645,1321
886.902344,1306
887.019165,1301
887.135925,1287
887.252747,1311
887.369446,1270
887.486267,1287
887.603027,1259
887.719788,1311
887.836548,1282
887.953247,1319
888.070068,1269
888.186829,1305
888.303528,1289
888.420288,1309
888.536987,1283
888.653687,1279
888.770447,1303
888.887146,1286
889.003967,1276
889.120667,1293
889.237305,1305
889.354065,1313
889.470703,1276
889.587463,1259
889.704163,1269
889.820862,1326
889.937561,1281
890.054199,1263
890.170837,1306
890.287598,1286
890.404236,1273
890.520874,1298
890.637634,1270
890.754211,1307
890.87085,1291
890.987549,1299
891.104187,1323
891.220886,1319
891.337463,1319
891.454102,1290
891.57074,1302
891.687378,1289
891.804077,1328
891.920654,1330
892.037231,1294
892.15387,1314
892.270447,1288
892.387085,1322
892.503723,1322
892.6203,1321
892.736877,1303
892.853516,1271
892.970032,1296
893.08667,1317
893.203186,1326
893.319763,1302
893.43634,1333
893.552917,1316
893.669556,1284
893.786011,1333
893.902588,1313
894.019165,1305
894.135681,1329
894.252197,1287
894.368835,1337
894.485291,1284
894.601868,1331
894.718384,1372
894.8349,1293
894.951355,1305
895.067932,1302
895.184448,1335
895.300964,1303
895.417419,1334
895.533936,1346
895.650452,1300
895.766907,1322
895.883423,1283
895.999878,1338
896.116333,1321
896.232849,1300
896.349304,1310
896.465759,1330
896.582214,1327
896.698669,1318
896.815125,1298
896.931641,1323
897.048035,1307
897.164551,1338
897.280884,1328
897.397339,1341
897.513794,1324
897.630249,1334
897.746582,1315
897.863098,1340
897.979431,1294
898.095886,1322
898.212341,1335
898.328674,1310
898.445129,1362
898.561462,1285
898.677795,1366
898.794312,1339
898.910645,1331
899.026978,1365
899.143433,1360
899.259766,1260
899.37616,1348
899.492493,1328
899.608765,1351
899.725159,1293
899.841553,1341
899.957947,1322
900.07428,1308
900.190552,1359
900.306946,1302
900.423157,1348
900.53949,1295
900.655884,1367
900.772156,1353
900.888489,1370
901.004822,1349
901.121033,1349
901.237366,1329
901.353699,1315
901.46991,1355
901.586304,1343
901.702515,1319
901.818787,1319
901.93512,1340
902.051331,1342
902.167603,1343
902.283875,1352
902.400085,1328
902.516418,1340
902.632629,1357
902.74884,1376
902.865112,1308
902.981384,1334
903.097595,1358
903.213867,1338
903.330017,1353
903.446289,1337
903.5625,1349
903.67865,1305
903.794922,1335
903.911072,1340
904.027344,1402
904.143494,1318
904.259705,1356
904.375916,1352
904.492065,1297
904.608215,1345
904.724426,1312
904.840576,1333
904.956726,1376
905.072876,1315
905.189087,1369
905.305176,1339
905.421387,1304
905.537537,1335
905.653687,1353
905.769775,1334
905.885925,1328
906.002014,1351
906.118164,1319
906.234314,1337
906.350403,1371
906.466492,1343
906.582642,1328
906.69873,1369
906.814758,1343
906.930908,1365
907.046936,1295
907.163086,1317
907.279175,1381
907.395264,1346
907.511353,1359
907.62738,1343
907.743408,1328
907.859497,1380
907.975525,1373
908.091553,1354
908.207703,1347
908.32373,1343
908.439758,1352
908.555786,1365
908.671814,1394
908.787842,1344
908.90387,1344
909.019775,1373
909.135864,1321
909.251892,1385
909.367859,1355
909.483826,1395
909.599854,1364
909.715881,1374
909.831848,1352
909.947815,1332
910.063782,1382
910.179749,1404
910.295776,1327
910.411743,1382
910.527649,1347
910.643616,1377
910.759583,1372
910.875488,1373
910.991455,1325
911.107361,1372
911.223267,1379
911.339294,1373
911.4552,1387
911.571106,1342
911.687073,1333
911.802979,1359
911.918823,1395
912.034729,1354
912.150635,1335
912.266602,1320
912.382446,1382
912.498352,1326
912.614197,1356
912.730103,1366
912.846008,1315
792.44574,1644
792.56488,1640
792.68396,1661
792.80304,1635
792.92218,1549
793.041199,1603
793.160339,1531
793.279419,1579
793.398499,1559
793.517578,1547
793.636658,1584
793.755737,1596
793.874817,1543
793.993896,1566
794.112976,1581
794.232056,1548
794.351074,1518
794.470215,1570
794.589233,1538
794.708313,1516
794.827393,1536
794.946411,1562
795.065552,1548
795.18457,1507
795.303589,1558
795.422668,1514
795.541687,1493
795.660767,1518
795.779846,1537
795.898865,1520
796.017883,1491
796.136963,1522
796.255981,1517
796.375061,1512
796.49408,1498
796.613037,1510
796.732117,1527
796.851135,1498
796.970154,1511
797.089233,1505
797.208191,1532
797.327271,1504
797.446228,1511
797.565186,1527
797.684265,1494
797.803223,1507
797.922241,1535
798.04126,1518
798.160278,1509
798.279297,1507
798.398315,1472
798.517273,1436
798.636292,1497
798.75531,1481
798.874268,1500
798.993286,1490
799.112244,1515
799.231323,1530
799.350281,1510
799.469238,1483
799.588257,1490
799.707153,1490
799.826111,1497
799.945129,1479
800.064087,1541
800.183044,1464
800.302063,1486
800.421021,1512
800.539978,1486
800.658936,1521
800.777893,1490
800.896912,1493
801.015747,1492
801.134705,1501
801.253723,1459
801.37262,1542
801.491638,1505
801.610535,1445
801.729492,1481
801.84845,1472
801.967407,1494
802.086243,1506
802.205261,1538
802.324158,1469
802.443115,1473
802.562073,1511
802.680969,1448
802.799927,1549
802.918762,1487
803.037659,1473
803.156677,1487
803.275574,1485
803.39447,1498
803.513428,1485
803.632263,1481
803.751221,1505
803.870117,1523
803.989014,1484
804.107971,1498
804.226746,1515
804.345642,1509
804.4646,1505
804.583496,1476
804.702393,1447
804.821228,1494
804.940125,1490
805.059021,1461
805.177917,1513
805.296814,1464
805.415649,1508
805.534546,1496
805.653442,1466
805.772278,1502
805.891113,1500
806.01001,1488
806.128906,1507
806.247742,1489
806.366577,1460
806.485413,1481
806.604309,1487
806.723145,1461
806.84198,1521
806.960876,1447
807.079712,1498
807.198486,1476
807.317383,1512
807.436218,1463
807.554993,1490
807.673889,1476
807.792725,1531
807.91156,1466
808.030396,1500
808.14917,1471
808.268005,1458
808.386841,1468
808.505676,1488
808.624451,1493
808.743286,1519
808.862122,1468
808.980896,1450
809.099731,1477
809.218506,1472
809.337341,1496
809.456116,1469
809.57489,1492
809.693726,1465
809.8125,1512
809.931274,1534
810.050049,1492
810.168884,1509
810.287659,1478
810.406372,1488
810.525269,1473
810.643982,1447
810.762756,1468
810.881531,1522
811.000305,1484
811.11908,1433
811.237854,1477
811.356567,1474
811.475403,1486
811.594116,1476
811.71283,1490
811.831604,1465
811.950378,1467
812.069153,1470
812.187927,1478
812.30658,1518
812.425415,1442
812.544128,1506
812.662781,1473
812.781616,1465
812.900269,1462
813.019043,1487
813.137756,1442
813.256531,1491
813.375244,1490
813.493896,1483
813.612671,1516
813.731384,1463
813.850037,1484
813.96875,1504
814.087524,1449
814.206238,1489
814.324951,1417
814.443604,1457
814.562256,1448
814.68103,1482
814.799683,1457
814.918335,1463
815.037109,1507
815.155762,1469
815.274475,1456
815.393188,1455
815.511841,1481
815.630554,1470
815.749146,1452
815.867859,1445
815.986572,1463
816.105164,1430
816.223877,1454
816.342529,1419
816.461182,1453
816.579895,1399
816.698486,1434
816.817139,1472
816.935791,1474
817.054504,1433
817.173096,1459
817.291748,1443
817.4104,1439
817.529053,1447
817.647644,1421
817.766235,1402
817.884949,1404
818.00354,1409
818.122192,1379
818.240845,1394
818.359436,1356
818.478088,1369
818.59668,1411
818.715271,1407
818.833923,1384
818.952515,1352
819.071106,1389
819.189758,1372
819.30835,1356
819.426941,1358
819.545532,1349
819.664124,1346
819.782715,1353
819.901306,1381
820.019897,1327
820.138489,1376
820.25708,1405
820.375671,1370
820.494202,1369
820.612732,1339
820.731384,1382
820.849915,1331
820.968506,1383
821.087097,1354
821.205627,1382
821.324158,1311
821.442749,1316
821.561279,1365
821.679871,1368
821.798401,1343
821.916931,1345
822.035461,1378
822.154053,1329
822.272583,1314
822.391174,1323
822.509583,1315
822.628174,1322
822.746704,1365
822.865234,1328
822.983765,1357
823.102295,1343
823.220825,1342
823.339294,1305
823.457825,1366
823.576355,1317
823.694824,1330
823.813354,1348
823.931885,1299
824.050354,1344
824.168884,1320
824.287354,1350
824.405823,1322
824.524353,1352
824.642822,1344
824.761353,1330
824.879822,1328
824.998291,1357
825.116699,1321
825.235291,1283
825.353699,1329
825.472168,1345
825.590637,1382
825.709106,1362
825.827576,1310
825.946045,1311
826.064453,1304
826.182983,1321
826.301392,1361
826.4198,1324
826.53833,1311
826.656738,1321
826.775208,1340
826.893677,1300
827.012024,1341
827.130493,1332
827.248962,1299
827.36731,1318
827.485779,1286
827.604248,1310
827.722595,1341
827.841064,1309
827.959412,1329
828.077942,1280
828.196289,1316
828.314636,1283
828.433105,1319
828.551514,1285
828.669861,1307
828.78833,1293
828.906677,1322
829.025085,1277
829.143433,1333
829.261841,1281
829.38031,1296
829.498657,1291
829.617004,1278
829.735413,1293
829.85376,1256
829.972107,1285
830.090515,1320
830.208862,1304
830.327209,1310
830.445557,1283
830.563904,1310
830.682312,1287
830.800659,1305
830.919006,1271
831.037354,1278
831.155701,1358
831.274048,1304
831.392395,1293
831.51062,1273
831.629028,1290
831.747314,1305
831.865662,1265
831.984009,1325
832.102356,1301
832.220642,1282
832.338928,1278
832.457275,1313
832.575623,1301
832.693909,1297
832.812134,1322
832.930481,1334
833.048828,1266
833.167114,1284
833.2854,1273
833.403687,1288
833.521973,1286
833.640259,1282
833.758545,1295
833.876831,1246
833.995056,1312
834.113281,1265
834.231628,1294
834.349915,1318
834.468201,1306
834.586426,1255
834.704651,1283
834.822998,1317
834.941162,1250
835.059448,1331
835.177673,1327
835.295959,1268
835.414246,1290
835.53241,1263
835.650635,1289
835.768921,1277
835.887146,1251
836.005371,1311
836.123596,1293
836.241821,1327
836.360046,1343
836.478271,1279
836.596497,1295
836.714722,1273
836.832886,1271
836.95105,1282
837.069336,1269
837.1875,1323
837.305725,1312
837.423889,1313
837.542053,1278
837.660339,1294
837.778503,1258
837.896667,1280
838.014832,1314
838.132996,1303
838.25116,1295
838.369385,1292
838.487488,1296
838.605713,1258
838.723877,1280
838.84198,1261
838.960205,1300
839.078308,1297
839.196472,1310
839.314636,1267
839.4328,1246
839.550964,1292
839.669067,1288
839.787231,1284
839.905396,1293
840.023499,1311
840.141602,1290
840.259766,1286
840.377869,1296
840.495972,1303
840.614136,1262
840.732239,1336
840.850342,1270
840.968445,1246
841.086548,1287
841.204651,1253
841.322754,1252
841.440918,1270
841.55896,1284
841.677002,1277
841.795166,1271
841.913208,1251
842.031311,1272
842.149353,1297
842.267456,1294
842.385498,1283
842.503601,1293
842.621643,1305
842.739746,1281
842.857788,1258
842.97583,1224
843.093933,1289
843.211975,1265
843.330017,1282
843.44812,1280
843.566101,1258
843.684204,1234
843.802246,1273
843.920227,1289
844.038269,1306
844.156311,1281
844.274292,1283
844.392395,1223
844.510376,1286
844.628357,1276
844.74646,1247
844.864441,1212
844.982422,1280
845.100403,1241
845.218384,1251
845.336426,1232
845.454468,1256
845.572449,1301
845.69043,1267
845.808411,1248
845.926453,1243
846.044373,1253
846.162354,1289
846.280396,1273
846.398315,1236
846.516296,1265
846.634216,1256
846.752197,1249
846.870178,1244
846.988098,1264
847.106079,1273
847.22406,1242
847.34198,1305
847.4599,1274
847.577881,1250
847.695801,1255
847.813782,1260
847.931641,1259
848.049561,1285
848.167603,1275
848.285461,1246
848.403381,1281
848.521362,1273
848.639221,1274
848.75708,1298
848.875,1244
848.99292,1236
849.110901,1262
849.22876,1258
849.34668,1264
849.464539,1225
849.582458,1261
849.700317,1251
849.818176,1261
849.936096,1270
850.053955,1292
850.171875,1266
850.289673,1250
850.407593,1256
850.525452,1255
850.643311,1255
850.761169,1256
850.878967,1232
850.996887,1240
851.114746,1282
851.232544,1238
851.350403,1234
851.468262,1282
851.58606,1247
851.703979,1274
851.821777,1255
851.939636,1272
852.057434,1244
852.175232,1267
852.293091,1270
852.410889,1249
852.528687,1286
852.646545,1292
852.764343,1264
852.88208,1300
852.999939,1274
853.117676,1250
853.235535,1267
853.353271,1274
853.471069,1245
853.588928,1305
853.706604,1282
853.824402,1234
853.9422,1270
854.059998,1255
854.177734,1281
854.295532,1276
854.413269,1251
854.531006,1278
854.648804,1274
854.766541,1245
854.884277,1282
855.002014,1258
855.119751,1266
855.237549,1306
855.355225,1286
855.473022,1303
855.590698,1258
855.708435,1287
855.826172,1272
855.943848,1275
856.061646,1295
856.179321,1269
856.296997,1266
856.414795,1255
856.53241,1241
856.650085,1286
856.767822,1271
856.885559,1247
857.003174,1295
857.120911,1284
857.238586,1287
857.356201,1278
857.473938,1252
857.591614,1287
857.709351,1284
857.826965,1260
857.944641,1276
858.062317,1264
858.179993,1260
858.297668,1237
858.415283,1260
858.532959,1274
858.650574,1321
858.768188,1296
858.885803,1250
859.003479,1268
859.121094,1238
859.23877,1233
859.356384,1271
859.473999,1287
859.591675,1253
859.709229,1311
859.826843,1256
859.944458,1205
860.062012,1302
860.179626,1285
860.297302,1291
860.414856,1283
860.532471,1299
860.650024,1254
860.767639,1299
860.885193,1243
861.002808,1281
861.120361,1288
861.237976,1281
861.35553,1270
861.473022,1271
861.590698,1294
861.708191,1305
861.825745,1280
861.943298,1270
862.060852,1275
862.178406,1307
862.295959,1250
862.413513,1264
862.531006,1274
862.64856,1275
862.766113,1268
862.883667,1287
863.00116,1260
863.118713,1254
863.236206,1294
863.353699,1297
863.471252,1287
863.588745,1278
863.706177,1251
863.82373,1272
863.941162,1295
864.058716,1292
864.176208,1243
864.29364,1276
864.411194,1251
864.528687,1276
864.646118,1296
864.763611,1280
864.881042,1300
864.998535,1281
865.116028,1279
865.233459,1264
865.350891,1295
865.468384,1252
865.585754,1287
865.703308,1248
865.820679,1280
865.938171,1275
866.055542,1269
866.173035,1244
866.290466,1329
866.407837,1296
866.52533,1237
866.6427,1323
866.760071,1302
866.877563,1250
866.994934,1293
867.112305,1238
867.229736,1257
867.347107,1262
867.464539,1299
867.58197,1325
867.699341,1315
867.81665,1271
867.934082,1302
868.051453,1290
868.168823,1264
868.286194,1271
868.403564,1286
868.520935,1275
868.638306,1264
868.755676,1314
868.872986,1298
868.990295,1254
869.107727,1360
869.225037,1290
869.342346,1312
869.459717,1291
869.577026,1274
869.694336,1292
869.811707,1295
869.929016,1272
870.046326,1328
870.163635,1230
870.280945,1331
870.398254,1260
870.515564,1275
870.632812,1315
870.750183,1310
870.867432,1297
870.984741,1274
871.102051,1291
871.219299,1272
871.336609,1279
871.453918,1329
871.571106,1272
871.688416,1281
871.805664,1274
871.922852,1290
872.040222,1306
872.157471,1294
872.274719,1277
872.391968,1320
872.509155,1290
872.626465,1249
872.743652,1309
872.860962,1268
872.978149,1269
873.095337,1301
873.212646,1289
873.329834,1284
873.44696,1305
873.564209,1284
873.681396,1300
873.798645,1274
873.915894,1266
874.03302,1272
874.150208,1312
874.267456,1311
874.384583,1247
874.501831,1306
874.618958,1296
874.736145,1288
874.853333,1291
874.970459,1316
875.087646,1315
875.204834,1320
875.32196,1310
875.439148,1276
875.556274,1293
875.673401,1301
875.790527,1353
875.907715,1287
876.024841,1310
876.141968,1308
876.259094,1304
876.376282,1325
876.493347,1249
876.610474,1298
876.7276,1330
876.844727,1281
876.961853,1293
877.078918,1306
877.195984,1285
877.313171,1306
877.430237,1285
877.547302,1315
877.664368,1310
877.781433,1280
877.898499,1324
878.015625,1273
878.13269,1304
878.249695,1262
878.366821,1294
878.483887,1258
878.600952,1321
878.717957,1247
878.834961,1308
878.952087,1284
879.069092,1302
879.186157,1281
879.303162,1284
879.420227,1292
879.537231,1300
879.654236,1293
879.77124,1287
879.888306,1316
880.005249,1290
880.122314,1296
880.239319,1263
880.356323,1280
880.473328,1295
880.590271,1303
880.707275,1308
880.824341,1338
880.941284,1306
881.058228,1276
881.175232,1296
881.292236,1299
881.40918,1284
881.526123,1286
881.643066,1304
881.760071,1292
881.877014,1301
881.993958,1305
882.11084,1287
882.227783,1343
882.344727,1256
882.46167,1310
882.578613,1298
882.695618,1268
882.812439,1307
882.929382,1305
883.046326,1319
883.163208,1316
883.280151,1312
883.397034,1294
883.513916,1313
883.630798,1316
883.747742,1295
883.864563,1318
883.981506,1308
884.098389,1281
884.21521,1352
884.332153,1302
884.448975,1270
884.565796,1317
884.682678,1294
884.7995,1290
884.916443,1338
885.033264,1298
885.150085,1343
885.266968,1351
885.383789,1299
885.500671,1342
885.617493,1324
885.734314,1346
885.851196,1342
885.967896,1273
886.084717,1342
886.201599,1338
886.318359,1296
886.435181,1309
886.552002,1343
886.668762,1316
886.785645,1351
886.902344,1297
887.019165,1350
887.135925,1291
887.252747,1291
887.369446,1323
887.486267,1310
887.603027,1335
887.719788,1308
887.836548,1326
887.953247,1352
888.070068,1345
888.186829,1330
888.303528,1358
888.420288,1338
888.536987,1353
888.653687,1350
888.770447,1340
888.887146,1332
889.003967,1342
889.120667,1331
889.237305,1331
889.354065,1327
889.470703,1303
889.587463,1308
889.704163,1317
889.820862,1323
889.937561,1319
890.054199,1316
890.170837,1334
890.287598,1344
890.404236,1325
890.520874,1327
890.637634,1349
890.754211,1334
890.87085,1370
890.987549,1344
891.104187,1352
891.220886,1381
891.337463,1358
891.454102,1352
891.57074,1342
891.687378,1370
891.804077,1307
891.920654,1347
892.037231,1328
892.15387,1327
892.270447,1312
892.387085,1374
892.503723,1337
892.6203,1333
892.736877,1327
892.853516,1331
892.970032,1312
893.08667,1371
893.203186,1344
893.319763,1333
893.43634,1354
893.552917,1313
893.669556,1323
893.786011,1345
893.902588,1322
894.019165,1376
894.135681,1342
894.252197,1300
894.368835,1350
894.485291,1346
894.601868,1346
894.718384,1415
894.8349,1365
894.951355,1325
895.067932,1347
895.184448,1402
895.300964,1345
895.417419,1331
895.533936,1361
895.650452,1363
895.766907,1362
895.883423,1362
895.999878,1323
896.116333,1377
896.232849,1324
896.349304,1344
896.465759,1366
896.582214,1358
896.698669,1386
896.815125,1340
896.931641,1381
897.048035,1309
897.164551,1327
897.280884,1366
897.397339,1328
897.513794,1374
897.630249,1349
897.746582,1328
897.863098,1346
897.979431,1335
898.095886,1380
898.212341,1368
898.328674,1332
898.445129,1395
898.561462,1353
898.677795,1378
898.794312,1322
898.910645,1335
899.026978,1344
899.143433,1335
899.259766,1344
899.37616,1366
899.492493,1347
899.608765,1370
899.725159,1354
899.841553,1372
899.957947,1345
900.07428,1389
900.190552,1320
900.306946,1379
900.423157,1326
900.53949,1332
900.655884,1403
900.772156,1352
900.888489,1352
901.004822,1348
901.121033,1345
901.237366,1342
901.353699,1369
901.46991,1363
901.586304,1393
901.702515,1375
901.818787,1359
901.93512,1344
902.051331,1405
902.167603,1333
902.283875,1352
902.400085,1362
902.516418,1355
902.632629,1388
902.74884,1391
902.865112,1391
902.981384,1334
903.097595,1373
903.213867,1417
903.330017,1371
903.446289,1372
903.5625,1356
903.67865,1401
903.794922,1394
903.911072,1357
904.027344,1390
904.143494,1379
904.259705,1366
904.375916,1403
904.492065,1359
904.608215,1417
904.724426,1372
904.840576,1386
904.956726,1326
905.072876,1380
905.189087,1374
905.305176,1408
905.421387,1403
905.537537,1394
905.653687,1376
905.769775,1390
905.885925,1428
906.002014,1386
906.118164,1435
906.234314,1371
906.350403,1408
906.466492,1349
906.582642,1358
906.69873,1355
906.814758,1365
906.930908,1434
907.046936,1393
907.163086,1417
907.279175,1397
907.395264,1363
907.511353,1404
907.62738,1395
907.743408,1387
907.859497,1394
907.975525,1420
908.091553,1399
908.207703,1355
908.32373,1385
908.439758,1386
908.555786,1406
908.671814,1392
908.787842,1380
908.90387,1418
909.019775,1371
909.135864,1368
909.251892,1394
909.367859,1396
909.483826,1349
909.599854,1376
909.715881,1408
909.831848,1388
909.947815,1398
910.063782,1402
910.179749,1375
910.295776,1424
910.411743,1373
910.527649,1418
910.643616,1410
910.759583,1378
910.875488,1363
910.991455,1412
911.107361,1428
911.223267,1425
911.339294,1385
911.4552,1393
911.571106,1377
911.687073,1425
911.802979,1431
911.918823,1406
912.034729,1407
912.150635,1362
912.266602,1409
912.382446,1416
912.498352,1395
912.614197,1416
912.730103,1378
912.846008,1386
792.44574,1646
792.56488,1647
792.68396,1653
792.80304,1631
792.92218,1593
793.041199,1592
793.160339,1599
793.279419,1645
793.398499,1579
793.517578,1578
793.636658,1572
793.755737,1631
793.874817,1586
793.993896,1611
794.112976,1579
794.232056,1558
794.351074,1610
794.470215,1552
794.589233,1580
794.708313,1620
794.827393,1522
794.946411,1596
795.065552,1602
795.18457,1548
795.303589,1567
795.422668,1556
795.541687,1604
795.660767,1599
795.779846,1519
795.898865,1553
796.017883,1542
796.136963,1521
796.255981,1539
796.375061,1535
796.49408,1499
796.613037,1565
796.732117,1546
796.851135,1508
796.970154,1527
797.089233,1514
797.208191,1498
797.327271,1549
797.446228,1518
797.565186,1544
797.684265,1521
797.803223,1520
797.922241,1521
798.04126,1488
798.160278,1494
798.279297,1478
798.398315,1502
798.517273,1514
798.636292,1495
798.75531,1528
798.874268,1502
798.993286,1483
799.112244,1516
799.231323,1508
799.350281,1509
799.469238,1504
799.588257,1503
799.707153,1516
799.826111,1513
799.945129,1490
800.064087,1492
800.183044,1480
800.302063,1509
800.421021,1502
800.539978,1518
800.658936,1511
800.777893,1500
800.896912,1506
801.015747,1474
801.134705,1459
801.253723,1505
801.37262,1519
801.491638,1513
801.610535,1529
801.729492,1496
801.84845,1491
801.967407,1500
802.086243,1531
802.205261,1467
802.324158,1490
802.443115,1512
802.562073,1440
802.680969,1488
802.799927,1471
802.918762,1482
803.037659,1518
803.156677,1476
803.275574,1533
803.39447,1502
803.513428,1464
803.632263,1511
803.751221,1499
803.870117,1519
803.989014,1476
804.107971,1527
804.226746,1509
804.345642,1520
804.4646,1479
804.583496,1472
804.702393,1534
804.821228,1475
804.940125,1501
805.059021,1479
805.177917,1539
805.296814,1472
805.415649,1526
805.534546,1471
805.653442,1526
805.772278,1483
805.891113,1467
806.01001,1496
806.128906,1520
806.247742,1483
806.366577,1493
806.485413,1486
806.604309,1502
806.723145,1498
806.84198,1509
806.960876,1468
807.079712,1522
807.198486,1526
807.317383,1481
807.436218,1507
807.554993,1495
807.673889,1525
807.792725,1482
807.91156,1492
808.030396,1476
808.14917,1463
808.268005,1435
808.386841,1500
808.505676,1447
808.624451,1546
808.743286,1500
808.862122,1514
808.980896,1503
809.099731,1487
809.218506,1495
809.337341,1519
809.456116,1474
809.57489,1476
809.693726,1513
809.8125,1454
809.931274,1538
810.050049,1518
810.168884,1467
810.287659,1487
810.406372,1508
810.525269,1518
810.643982,1459
810.762756,1524
810.881531,1473
811.000305,1473
811.11908,1477
811.237854,1487
811.356567,1475
811.475403,1472
811.594116,1489
811.71283,1497
811.831604,1484
811.950378,1511
812.069153,1480
812.187927,1505
812.30658,1519
812.425415,1471
812.544128,1477
812.662781,1503
812.781616,1485
812.900269,1466
813.019043,1511
813.137756,1404
813.256531,1502
813.375244,1458
813.493896,1490
813.612671,1485
813.731384,1544
813.850037,1479
813.96875,1496
814.087524,1429
814.206238,1451
814.324951,1463
814.443604,1479
814.562256,1507
814.68103,1456
814.799683,1457
814.918335,1460
815.037109,1466
815.155762,1506
815.274475,1498
815.393188,1426
815.511841,1468
815.630554,1473
815.749146,1470
815.867859,1462
815.986572,1485
816.105164,1426
816.223877,1436
816.342529,1451
816.461182,1481
816.579895,1432
816.698486,1449
816.817139,1490
816.935791,1447
817.054504,1447
817.173096,1438
817.291748,1443
817.4104,1422
817.529053,1448
817.647644,1478
817.766235,1452
817.884949,1467
818.00354,1473
818.122192,1407
818.240845,1427
818.359436,1411
818.478088,1435
818.59668,1415
818.715271,1406
818.833923,1404
818.952515,1400
819.071106,1433
819.189758,1390
819.30835,1395
819.426941,1362
819.545532,1372
819.664124,1385
819.782715,1390
819.901306,1384
820.019897,1353
820.138489,1349
820.25708,1360
820.375671,1347
820.494202,1346
820.612732,1357
820.731384,1389
820.849915,1361
820.968506,1361
821.087097,1403
821.205627,1363
821.324158,1389
821.442749,1368
821.561279,1378
821.679871,1336
821.798401,1324
821.916931,1373
822.035461,1372
822.154053,1360
822.272583,1336
822.391174,1346
822.509583,1399
822.628174,1352
822.746704,1392
822.865234,1336
822.983765,1379
823.102295,1358
823.220825,1366
823.339294,1325
823.457825,1352
823.576355,1324
823.694824,1317
823.813354,1355
823.931885,1340
824.050354,1318
824.168884,1344
824.287354,1357
824.405823,1350
824.524353,1344
824.642822,1322
824.761353,1372
824.879822,1352
824.998291,1318
825.116699,1314
825.235291,1339
825.353699,1364
825.472168,1364
825.590637,1327
825.709106,1363
825.827576,1351
825.946045,1321
826.064453,1324
826.182983,1315
826.301392,1341
826.4198,1306
826.53833,1356
826.656738,1365
826.775208,1301
826.893677,1343
827.012024,1342
827.130493,1301
827.248962,1292
827.36731,1341
827.485779,1319
827.604248,1306
827.722595,1380
827.841064,1300
827.959412,1288
828.077942,1294
828.196289,1338
828.314636,1326
828.433105,1291
828.551514,1340
828.669861,1332
828.78833,1283
828.906677,1265
829.025085,1340
829.143433,1314
829.261841,1299
829.38031,1304
829.498657,1330
829.617004,1315
829.735413,1324
829.85376,1287
829.972107,1247
830.090515,1324
830.208862,1286
830.327209,1292
830.445557,1301
830.563904,1306
830.682312,1285
830.800659,1289
830.919006,1302
831.037354,1327
831.155701,1313
831.274048,1325
831.392395,1282
831.51062,1303
831.629028,1292
831.747314,1353
831.865662,1296
831.984009,1292
832.102356,1307
832.220642,1296
832.338928,1283
832.457275,1285
832.575623,1328
832.693909,1301
832.812134,1323
832.930481,1326
833.048828,1286
833.167114,1297
833.2854,1303
833.403687,1319
833.521973,1334
833.640259,1277
833.758545,1334
833.876831,1317
833.995056,1280
834.113281,1302
834.231628,1299
834.349915,1267
834.468201,1300
834.586426,1290
834.704651,1279
834.822998,1346
834.941162,1308
835.059448,1324
835.177673,1294
835.295959,1326
835.414246,1326
835.53241,1264
835.650635,1292
835.768921,1316
835.887146,1292
836.005371,1263
836.123596,1297
836.241821,1303
836.360046,1282
836.478271,1287
836.596497,1316
836.714722,1277
836.832886,1323
836.95105,1331
837.069336,1310
837.1875,1338
837.305725,1275
837.423889,1278
837.542053,1313
837.660339,1281
837.778503,1319
837.896667,1277
838.014832,1283
838.132996,1308
838.25116,1302
838.369385,1291
838.487488,1313
838.605713,1271
838.723877,1313
838.84198,1275
838.960205,1298
839.078308,1330
839.196472,1331
839.314636,1331
839.4328,1282
839.550964,1268
839.669067,1276
839.787231,1261
839.905396,1320
840.023499,1281
840.141602,1297
840.259766,1312
840.377869,1306
840.495972,1319
840.614136,1303
840.732239,1289
840.850342,1259
840.968445,1287
841.086548,1262
841.204651,1260
841.322754,1287
841.440918,1277
841.55896,1268
841.677002,1299
841.795166,1267
841.913208,1282
842.031311,1269
842.149353,1291
842.267456,1283
842.385498,1315
842.503601,1297
842.621643,1296
842.739746,1280
842.857788,1275
842.97583,1303
843.093933,1301
843.211975,1251
843.330017,1299
843.44812,1282
843.566101,1299
843.684204,1262
843.802246,1247
843.920227,1289
844.038269,1274
844.156311,1338
844.274292,1300
844.392395,1260
844.510376,1313
844.628357,1317
844.74646,1252
844.864441,1293
844.982422,1302
845.100403,1296
845.218384,1291
845.336426,1271
845.454468,1287
845.572449,1296
845.69043,1287
845.808411,1268
845.926453,1261
846.044373,1275
846.162354,1290
846.280396,1290
846.398315,1260
846.516296,1262
846.634216,1291
846.752197,1250
846.870178,1278
846.988098,1294
847.106079,1303
847.22406,1247
847.34198,1262
847.4599,1278
847.577881,1298
847.695801,1252
847.813782,1263
847.931641,1271
848.049561,1275
848.167603,1270
848.285461,1303
848.403381,1266
848.521362,1274
848.639221,1260
848.75708,1286
848.875,1224
848.99292,1303
849.110901,1281
849.22876,1265
849.34668,1301
849.464539,1295
849.582458,1258
849.700317,1311
849.818176,1255
849.936096,1279
850.053955,1273
850.171875,1284
850.289673,1278
850.407593,1290
850.525452,1278
850.643311,1304
850.761169,1291
850.878967,1270
850.996887,1278
851.114746,1288
851.232544,1268
851.350403,1256
851.468262,1279
851.58606,1271
851.703979,1267
851.821777,1297
851.939636,1271
852.057434,1303
852.175232,1287
852.293091,1250
852.410889,1261
852.528687,1263
852.646545,1278
852.764343,1270
852.88208,1269
852.999939,1322
853.117676,1285
853.235535,1298
853.353271,1273
853.471069,1298
853.588928,1292
853.706604,1243
853.824402,1260
853.9422,1294
854.059998,1254
854.177734,1301
854.295532,1248
854.413269,1267
854.531006,1278
854.648804,1280
854.766541,1254
854.884277,1273
855.002014,1301
855.119751,1291
855.237549,1299
855.355225,1282
855.473022,1296
855.590698,1270
855.708435,1271
855.826172,1281
855.943848,1264
856.061646,1283
856.179321,1295
856.296997,1289
856.414795,1310
856.53241,1293
856.650085,1280
856.767822,1296
856.885559,1285
857.003174,1256
857.120911,1288
857.238586,1279
857.356201,1297
857.473938,1283
857.591614,1292
857.709351,1265
857.826965,1295
857.944641,1271
858.062317,1260
858.179993,1319
858.297668,1231
858.415283,1295
858.532959,1276
858.650574,1280
858.768188,1308
858.885803,1315
859.003479,1251
859.121094,1263
859.23877,1275
859.356384,1270
859.473999,1301
859.591675,1313
859.709229,1295
859.826843,1287
859.944458,1284
860.062012,1290
860.179626,1256
860.297302,1274
860.414856,1253
860.532471,1246
860.650024,1295
860.767639,1281
860.885193,1274
861.002808,1268
861.120361,1288
861.237976,1317
861.35553,1275
861.473022,1278
861.590698,1265
861.708191,1279
861.825745,1273
861.943298,1282
862.060852,1286
862.178406,1283
862.295959,1268
862.413513,1289
862.531006,1257
862.64856,1342
862.766113,1288
862.883667,1286
863.00116,1279
863.118713,1248
863.236206,1285
863.353699,1244
863.471252,1294
863.588745,1319
863.706177,1294
863.82373,1292
863.941162,1263
864.058716,1302
864.176208,1310
864.29364,1272
864.411194,1248
864.528687,1263
864.646118,1256
864.763611,1298
864.881042,1303
864.998535,1306
865.116028,1299
865.233459,1295
865.350891,1246
865.468384,1314
865.585754,1298
865.703308,1267
865.820679,1302
865.938171,1283
866.055542,1312
866.173035,1278
866.290466,1320
866.407837,1301
866.52533,1273
866.6427,1320
866.760071,1293
866.877563,1278
866.994934,1293
867.112305,1335
867.229736,1318
867.347107,1293
867.464539,1286
867.58197,1309
867.699341,1301
867.81665,1268
867.934082,1285
868.051453,1266
868.168823,1327
868.286194,1287
868.403564,1305
868.520935,1230
868.638306,1290
868.755676,1286
868.872986,1281
868.990295,1276
869.107727,1333
869.225037,1301
869.342346,1308
869.459717,1312
869.577026,1278
869.694336,1315
869.811707,1295
869.929016,1240
870.046326,1270
870.163635,1285
870.280945,1283
870.398254,1299
870.515564,1286
870.632812,1301
870.750183,1321
870.867432,1278
870.984741,1295
871.102051,1280
871.219299,1302
871.336609,1286
871.453918,1312
871.571106,1285
871.688416,1288
871.805664,1322
871.922852,1288
872.040222,1289
872.157471,1301
872.274719,1285
872.391968,1308
872.509155,1329
872.626465,1325
872.743652,1321
872.860962,1308
872.978149,1328
873.095337,1250
873.212646,1312
873.329834,1339
873.44696,1299
873.564209,1313
873.681396,1320
873.798645,1297
873.915894,1297
874.03302,1332
874.150208,1285
874.267456,1290
874.384583,1322
874.501831,1347
874.618958,1303
874.736145,1284
874.853333,1291
874.970459,1279
875.087646,1334
875.204834,1307
875.32196,1313
875.439148,1332
875.556274,1342
875.673401,1319
875.790527,1327
875.907715,1323
876.024841,1264
876.141968,1279
876.259094,1316
876.376282,1277
876.493347,1300
876.610474,1293
876.7276,1274
876.844727,1283
876.961853,1315
877.078918,1304
877.195984,1292
877.313171,1283
877.430237,1317
877.547302,1334
877.664368,1309
877.781433,1300
877.898499,1294
878.015625,1290
878.13269,1305
878.249695,1325
878.366821,1329
878.483887,1281
878.600952,1290
878.717957,1301
878.834961,1328
878.952087,1308
879.069092,1293
879.186157,1330
879.303162,1307
879.420227,1323
879.537231,1300
879.654236,1303
879.77124,1311
879.888306,1321
880.005249,1320
880.122314,1336
880.239319,1299
880.356323,1302
880.473328,1327
880.590271,1307
880.707275,1322
880.824341,1331
880.941284,1318
881.058228,1293
881.175232,1307
881.292236,1319
881.40918,1325
881.526123,1369
881.643066,1332
881.760071,1322
881.877014,1321
881.993958,1325
882.11084,1319
882.227783,1332
882.344727,1318
882.46167,1326
882.578613,1326
882.695618,1305
882.812439,1332
882.929382,1322
883.046326,1318
883.163208,1302
883.280151,1319
883.397034,1334
883.513916,1319
883.630798,1311
883.747742,1305
883.864563,1303
883.981506,1325
884.098389,1299
884.21521,1341
884.332153,1353
884.448975,1336
884.565796,1334
884.682678,1361
884.7995,1360
884.916443,1308
885.033264,1328
885.150085,1325
885.266968,1378
885.383789,1324
885.500671,1284
885.617493,1325
885.734314,1352
885.851196,1344
885.967896,1340
886.084717,1343
886.201599,1327
886.318359,1358
886.435181,1339
886.552002,1286
886.668762,1347
886.785645,1348
886.902344,1350
887.019165,1318
887.135925,1316
887.252747,1346
887.369446,1343
887.486267,1391
887.603027,1312
887.719788,1303
887.836548,1356
887.953247,1356
888.070068,1317
888.186829,1349
888.303528,1350
888.420288,1293
888.536987,1318
888.653687,1350
888.770447,1371
888.887146,1345
889.003967,1326
889.120667,1348
889.237305,1389
889.354065,1359
889.470703,1338
889.587463,1320
889.704163,1334
889.820862,1301
889.937561,1333
890.054199,1335
890.170837,1343
890.287598,1307
890.404236,1321
890.520874,1359
890.637634,1358
890.754211,1382
890.87085,1329
890.987549,1353
891.104187,1349
891.220886,1369
891.337463,1321
891.454102,1352
891.57074,1416
891.687378,1300
891.804077,1362
891.920654,1349
892.037231,1357
892.15387,1317
892.270447,1368
892.387085,1336
892.503723,1329
892.6203,1360
892.736877,1370
892.853516,1373
892.970032,1348
893.08667,1357
893.203186,1364
893.319763,1369
893.43634,1333
893.552917,1354
893.669556,1371
893.786011,1377
893.902588,1321
894.019165,1360
894.135681,1366
894.252197,1368
894.368835,1352
894.485291,1373
894.601868,1389
894.718384,1379
894.8349,1359
894.951355,1369
895.067932,1366
895.184448,1389
895.300964,1362
895.417419,1393
895.533936,1368
895.650452,1342
895.766907,1351
895.883423,1382
895.999878,1351
896.116333,1358
896.232849,1347
896.349304,1380
896.465759,1393
896.582214,1376
896.698669,1384
896.815125,1347
896.931641,1342
897.048035,1357
897.164551,1355
897.280884,1319
897.397339,1333
897.513794,1336
897.630249,1414
897.746582,1359
897.863098,1400
897.979431,1368
898.095886,1384
898.212341,1387
898.328674,1388
898.445129,1375
898.561462,1346
898.677795,1391
898.794312,1415
898.910645,1336
899.026978,1347
899.143433,1386
899.259766,1354
899.37616,1374
899.492493,1387
899.608765,1390
899.725159,1383
899.841553,1417
899.957947,1389
900.07428,1380
900.190552,1392
900.306946,1410
900.423157,1425
900.53949,1409
900.655884,1394
900.772156,1393
900.888489,1380
901.004822,1402
901.121033,1398
901.237366,1344
901.353699,1365
901.46991,1369
901.586304,1388
901.702515,1412
901.818787,1394
901.93512,1367
902.051331,1409
902.167603,1391
902.283875,1425
902.400085,1376
902.516418,1371
902.632629,1377
902.74884,1419
902.865112,1405
902.981384,1377
903.097595,1365
903.213867,1381
903.330017,1423
903.446289,1409
903.5625,1363
903.67865,1387
903.794922,1375
903.911072,1405
904.027344,1374
904.143494,1409
904.259705,1420
904.375916,1371
904.492065,1383
904.608215,1338
904.724426,1392
904.840576,1366
904.956726,1416
905.072876,1389
905.189087,1396
905.305176,1401
905.421387,1393
905.537537,1418
905.653687,1385
905.769775,1379
905.885925,1378
906.002014,1360
906.118164,1383
906.234314,1374
906.350403,1433
906.466492,1387
906.582642,1368
906.69873,1370
906.814758,1428
906.930908,1389
907.046936,1348
907.163086,1393
907.279175,1403
907.395264,1416
907.511353,1392
907.62738,1404
907.743408,1399
907.859497,1392
907.975525,1397
908.091553,1374
908.207703,1402
908.32373,1389
908.439758,1434
908.555786,1432
908.671814,1422
908.787842,1393
908.90387,1437
909.019775,1380
909.135864,1386
909.251892,1441
909.367859,1410
909.483826,1403
909.599854,1433
909.715881,1431
909.831848,1380
909.947815,1459
910.063782,1413
910.179749,1441
910.295776,1445
910.411743,1419
910.527649,1383
910.643616,1422
910.759583,1397
910.875488,1436
910.991455,1416
911.107361,1419
911.223267,1414
911.339294,1410
911.4552,1409
911.571106,1393
911.687073,1445
911.802979,1392
911.918823,1444
912.034729,1392
912.150635,1399
912.266602,1409
912.382446,1396
912.498352,1390
912.614197,1435
912.730103,1388
912.846008,1440
