792.44574,4583
792.56488,4418
792.68396,4309
792.80304,4191
792.92218,4045
793.041199,3904
793.160339,3765
793.279419,3744
793.398499,3571
793.517578,3551
793.636658,3501
793.755737,3390
793.874817,3430
793.993896,3250
794.112976,3200
794.232056,3236
794.351074,3158
794.470215,3058
794.589233,2998
794.708313,2995
794.827393,2852
794.946411,2904
795.065552,2878
795.18457,2774
795.303589,2782
795.422668,2825
795.541687,2755
795.660767,2714
795.779846,2687
795.898865,2634
796.017883,2628
796.136963,2518
796.255981,2580
796.375061,2522
796.49408,2510
796.613037,2486
796.732117,2503
796.851135,2460
796.970154,2321
797.089233,2397
797.208191,2344
797.327271,2310
797.446228,2324
797.565186,2319
797.684265,2265
797.803223,2232
797.922241,2294
798.04126,2217
798.160278,2229
798.279297,2279
798.398315,2230
798.517273,2175
798.636292,2172
798.75531,2224
798.874268,2168
798.993286,2126
799.112244,2146
799.231323,2145
799.350281,2117
799.469238,2135
799.588257,2100
799.707153,2138
799.826111,2129
799.945129,2088
800.064087,2066
800.183044,2141
800.302063,2080
800.421021,2063
800.539978,2046
800.658936,2042
800.777893,2029
800.896912,2007
801.015747,2030
801.134705,2045
801.253723,2014
801.37262,2007
801.491638,1993
801.610535,2019
801.729492,1978
801.84845,1981
801.967407,1996
802.086243,1930
802.205261,2021
802.324158,1982
802.443115,1974
802.562073,1935
802.680969,1980
802.799927,1963
802.918762,1921
803.037659,1891
803.156677,1937
803.275574,1859
803.39447,1878
803.513428,1860
803.632263,1972
803.751221,1926
803.870117,1892
803.989014,1894
804.107971,1914
804.226746,1859
804.345642,1877
804.4646,1877
804.583496,1886
804.702393,1842
804.821228,1869
804.940125,1830
805.059021,1857
805.177917,1814
805.296814,1849
805.415649,1869
805.534546,1854
805.653442,1852
805.772278,1841
805.891113,1852
806.01001,1824
806.128906,1808
806.247742,1801
806.366577,1789
806.485413,1808
806.604309,1825
806.723145,1810
806.84198,1815
806.960876,1799
807.079712,1788
807.198486,1816
807.317383,1793
807.436218,1760
807.554993,1824
807.673889,1795
807.792725,1815
807.91156,1729
808.030396,1734
808.14917,1720
808.268005,1755
808.386841,1746
808.505676,1778
808.624451,1732
808.743286,1768
808.862122,1726
808.980896,1758
809.099731,1733
809.218506,1697
809.337341,1731
809.456116,1721
809.57489,1771
809.693726,1733
809.8125,1748
809.931274,1757
810.050049,1726
810.168884,1729
810.287659,1685
810.406372,1736
810.525269,1725
810.643982,1753
810.762756,1783
810.881531,1689
811.000305,1721
811.11908,1719
811.237854,1710
811.356567,1743
811.475403,1721
811.594116,1761
811.71283,1747
811.831604,1746
811.950378,1751
812.069153,1733
812.187927,1774
812.30658,1776
812.425415,1784
812.544128,1744
812.662781,1760
812.781616,1743
812.900269,1738
813.019043,1740
813.137756,1732
813.256531,1687
813.375244,1734
813.493896,1709
813.612671,1746
813.731384,1666
813.850037,1680
813.96875,1735
814.087524,1654
814.206238,1717
814.324951,1686
814.443604,1703
814.562256,1695
814.68103,1699
814.799683,1727
814.918335,1691
815.037109,1673
815.155762,1681
815.274475,1719
815.393188,1674
815.511841,1687
815.630554,1677
815.749146,1664
815.867859,1675
815.986572,1717
816.105164,1671
816.223877,1695
816.342529,1685
816.461182,1714
816.579895,1709
816.698486,1727
816.817139,1709
816.935791,1666
817.054504,1736
817.173096,1752
817.291748,1683
817.4104,1740
817.529053,1700
817.647644,1721
817.766235,1682
817.884949,1651
818.00354,1727
818.122192,1660
818.240845,1666
818.359436,1653
818.478088,1644
818.59668,1661
818.715271,1605
818.833923,1584
818.952515,1604
819.071106,1573
819.189758,1619
819.30835,1605
819.426941,1586
819.545532,1562
819.664124,1543
819.782715,1565
819.901306,1582
820.019897,1559
820.138489,1555
820.25708,1583
820.375671,1578
820.494202,1583
820.612732,1566
820.731384,1595
820.849915,1582
820.968506,1540
821.087097,1579
821.205627,1586
821.324158,1532
821.442749,1545
821.561279,1537
821.679871,1563
821.798401,1541
821.916931,1505
822.035461,1547
822.154053,1532
822.272583,1534
822.391174,1559
822.509583,1550
822.628174,1525
822.746704,1539
822.865234,1522
822.983765,1546
823.102295,1492
823.220825,1510
823.339294,1557
823.457825,1498
823.576355,1529
823.694824,1537
823.813354,1533
823.931885,1498
824.050354,1521
824.168884,1507
824.287354,1579
824.405823,1530
824.524353,1526
824.642822,1481
824.761353,1488
824.879822,1485
824.998291,1568
825.116699,1518
825.235291,1547
825.353699,1528
825.472168,1486
825.590637,1559
825.709106,1512
825.827576,1516
825.946045,1532
826.064453,1509
826.182983,1515
826.301392,1494
826.4198,1514
826.53833,1491
826.656738,1475
826.775208,1501
826.893677,1457
827.012024,1475
827.130493,1497
827.248962,1514
827.36731,1489
827.485779,1503
827.604248,1506
827.722595,1479
827.841064,1457
827.959412,1493
828.077942,1465
828.196289,1496
828.314636,1489
828.433105,1447
828.551514,1487
828.669861,1485
828.78833,1441
828.906677,1467
829.025085,1488
829.143433,1466
829.261841,1453
829.38031,1503
829.498657,1490
829.617004,1483
829.735413,1473
829.85376,1446
829.972107,1472
830.090515,1493
830.208862,1461
830.327209,1462
830.445557,1494
830.563904,1454
830.682312,1512
830.800659,1463
830.919006,1533
831.037354,1491
831.155701,1526
831.274048,1554
831.392395,1507
831.51062,1527
831.629028,1495
831.747314,1503
831.865662,1464
831.984009,1511
832.102356,1490
832.220642,1521
832.338928,1548
832.457275,1529
832.575623,1556
832.693909,1499
832.812134,1522
832.930481,1507
833.048828,1488
833.167114,1501
833.2854,1469
833.403687,1512
833.521973,1544
833.640259,1481
833.758545,1498
833.876831,1493
833.995056,1461
834.113281,1500
834.231628,1481
834.349915,1477
834.468201,1537
834.586426,1487
834.704651,1507
834.822998,1422
834.941162,1506
835.059448,1507
835.177673,1475
835.295959,1463
835.414246,1568
835.53241,1475
835.650635,1534
835.768921,1490
835.887146,1483
836.005371,1528
836.123596,1491
836.241821,1521
836.360046,1483
836.478271,1469
836.596497,1510
836.714722,1454
836.832886,1500
836.95105,1487
837.069336,1453
837.1875,1466
837.305725,1476
837.423889,1480
837.542053,1490
837.660339,1509
837.778503,1488
837.896667,1453
838.014832,1511
838.132996,1493
838.25116,1503
838.369385,1473
838.487488,1472
838.605713,1531
838.723877,1521
838.84198,1491
838.960205,1541
839.078308,1496
839.196472,1537
839.314636,1546
839.4328,1589
839.550964,1547
839.669067,1547
839.787231,1543
839.905396,1569
840.023499,1572
840.141602,1583
840.259766,1590
840.377869,1554
840.495972,1581
840.614136,1622
840.732239,1628
840.850342,1627
840.968445,1625
841.086548,1638
841.204651,1645
841.322754,1704
841.440918,1661
841.55896,1643
841.677002,1712
841.795166,1693
841.913208,1618
842.031311,1709
842.149353,1627
842.267456,1642
842.385498,1672
842.503601,1633
842.621643,1609
842.739746,1655
842.857788,1633
842.97583,1666
843.093933,1659
843.211975,1637
843.330017,1629
843.44812,1623
843.566101,1675
843.684204,1657
843.802246,1625
843.920227,1655
844.038269,1677
844.156311,1618
844.274292,1658
844.392395,1605
844.510376,1614
844.628357,1600
844.74646,1623
844.864441,1583
844.982422,1582
845.100403,1608
845.218384,1616
845.336426,1577
845.454468,1582
845.572449,1572
845.69043,1602
845.808411,1591
845.926453,1569
846.044373,1593
846.162354,1571
846.280396,1611
846.398315,1597
846.516296,1610
846.634216,1583
846.752197,1619
846.870178,1633
846.988098,1630
847.106079,1590
847.22406,1575
847.34198,1647
847.4599,1634
847.577881,1621
847.695801,1628
847.813782,1630
847.931641,1593
848.049561,1584
848.167603,1583
848.285461,1539
848.403381,1583
848.521362,1604
848.639221,1614
848.75708,1613
848.875,1617
848.99292,1614
849.110901,1618
849.22876,1573
849.34668,1633
849.464539,1644
849.582458,1652
849.700317,1578
849.818176,1622
849.936096,1643
850.053955,1645
850.171875,1571
850.289673,1601
850.407593,1677
850.525452,1651
850.643311,1598
850.761169,1567
850.878967,1622
850.996887,1612
851.114746,1578
851.232544,1605
851.350403,1570
851.468262,1624
851.58606,1566
851.703979,1604
851.821777,1632
851.939636,1615
852.057434,1623
852.175232,1605
852.293091,1676
852.410889,1678
852.528687,1692
852.646545,1752
852.764343,1759
852.88208,1762
852.999939,1655
853.117676,1716
853.235535,1671
853.353271,1650
853.471069,1637
853.588928,1580
853.706604,1573
853.824402,1594
853.9422,1579
854.059998,1578
854.177734,1634
854.295532,1620
854.413269,1635
854.531006,1633
854.648804,1662
854.766541,1638
854.884277,1695
855.002014,1669
855.119751,1620
855.237549,1671
855.355225,1641
855.473022,1658
855.590698,1605
855.708435,1644
855.826172,1598
855.943848,1628
856.061646,1674
856.179321,1623
856.296997,1624
856.414795,1660
856.53241,1641
856.650085,1675
856.767822,1709
856.885559,1717
857.003174,1648
857.120911,1733
857.238586,1712
857.356201,1681
857.473938,1673
857.591614,1697
857.709351,1696
857.826965,1676
857.944641,1689
858.062317,1667
858.179993,1711
858.297668,1705
858.415283,1670
858.532959,1665
858.650574,1719
858.768188,1721
858.885803,1678
859.003479,1667
859.121094,1649
859.23877,1665
859.356384,1592
859.473999,1628
859.591675,1646
859.709229,1637
859.826843,1630
859.944458,1604
860.062012,1617
860.179626,1594
860.297302,1612
860.414856,1558
860.532471,1594
860.650024,1588
860.767639,1557
860.885193,1592
861.002808,1603
861.120361,1584
861.237976,1581
861.35553,1589
861.473022,1611
861.590698,1581
861.708191,1607
861.825745,1595
861.943298,1635
862.060852,1587
862.178406,1565
862.295959,1543
862.413513,1539
862.531006,1524
862.64856,1539
862.766113,1479
862.883667,1496
863.00116,1571
863.118713,1498
863.236206,1521
863.353699,1521
863.471252,1545
863.588745,1511
863.706177,1553
863.82373,1553
863.941162,1554
864.058716,1584
864.176208,1551
864.29364,1560
864.411194,1483
864.528687,1540
864.646118,1568
864.763611,1500
864.881042,1522
864.998535,1511
865.116028,1545
865.233459,1522
865.350891,1523
865.468384,1508
865.585754,1504
865.703308,1542
865.820679,1522
865.938171,1513
866.055542,1514
866.173035,1492
866.290466,1487
866.407837,1494
866.52533,1526
866.6427,1508
866.760071,1522
866.877563,1511
866.994934,1508
867.112305,1498
867.229736,1523
867.347107,1538
867.464539,1564
867.58197,1570
867.699341,1556
867.81665,1536
867.934082,1546
868.051453,1552
868.168823,1581
868.286194,1566
868.403564,1542
868.520935,1548
868.638306,1578
868.755676,1533
868.872986,1501
868.990295,1568
869.107727,1624
869.225037,1593
869.342346,1584
869.459717,1595
869.577026,1598
869.694336,1578
869.811707,1668
869.929016,1660
870.046326,1660
870.163635,1630
870.280945,1647
870.398254,1618
870.515564,1653
870.632812,1648
870.750183,1659
870.867432,1671
870.984741,1699
871.102051,1676
871.219299,1750
871.336609,1758
871.453918,1745
871.571106,1786
871.688416,1731
871.805664,1731
871.922852,1728
872.040222,1749
872.157471,1780
872.274719,1742
872.391968,1774
872.509155,1734
872.626465,1721
872.743652,1722
872.860962,1750
872.978149,1687
873.095337,1701
873.212646,1671
873.329834,1678
873.44696,1636
873.564209,1696
873.681396,1712
873.798645,1688
873.915894,1667
874.03302,1694
874.150208,1729
874.267456,1681
874.384583,1703
874.501831,1743
874.618958,1711
874.736145,1737
874.853333,1763
874.970459,1730
875.087646,1731
875.204834,1776
875.32196,1749
875.439148,1695
875.556274,1654
875.673401,1697
875.790527,1650
875.907715,1684
876.024841,1640
876.141968,1617
876.259094,1684
876.376282,1625
876.493347,1648
876.610474,1671
876.7276,1621
876.844727,1628
876.961853,1635
877.078918,1618
877.195984,1577
877.313171,1679
877.430237,1614
877.547302,1638
877.664368,1609
877.781433,1626
877.898499,1614
878.015625,1597
878.13269,1602
878.249695,1633
878.366821,1571
878.483887,1625
878.600952,1542
878.717957,1598
878.834961,1558
878.952087,1561
879.069092,1534
879.186157,1571
879.303162,1564
879.420227,1534
879.537231,1529
879.654236,1539
879.77124,1514
879.888306,1499
880.005249,1518
880.122314,1496
880.239319,1473
880.356323,1453
880.473328,1521
880.590271,1475
880.707275,1485
880.824341,1497
880.941284,1493
881.058228,1533
881.175232,1511
881.292236,1475
881.40918,1449
881.526123,1485
881.643066,1458
881.760071,1451
881.877014,1511
881.993958,1489
882.11084,1517
882.227783,1502
882.344727,1453
882.46167,1465
882.578613,1470
882.695618,1465
882.812439,1474
882.929382,1502
883.046326,1470
883.163208,1474
883.280151,1492
883.397034,1521
883.513916,1478
883.630798,1489
883.747742,1528
883.864563,1531
883.981506,1581
884.098389,1518
884.21521,1554
884.332153,1564
884.448975,1567
884.565796,1637
884.682678,1705
884.7995,1715
884.916443,1726
885.033264,1733
885.150085,1826
885.266968,1936
885.383789,1971
885.500671,2005
885.617493,2001
885.734314,1977
885.851196,1951
885.967896,1944
886.084717,1966
886.201599,1961
886.318359,1898
886.435181,1905
886.552002,1923
886.668762,1910
886.785645,1854
886.902344,1839
887.019165,1860
887.135925,1871
887.252747,1820
887.369446,1741
887.486267,1815
887.603027,1748
887.719788,1703
887.836548,1688
887.953247,1648
888.070068,1590
888.186829,1584
888.303528,1592
888.420288,1521
888.536987,1495
888.653687,1513
888.770447,1460
888.887146,1475
889.003967,1455
889.120667,1453
889.237305,1417
889.354065,1440
889.470703,1455
889.587463,1435
889.704163,1461
889.820862,1447
889.937561,1451
890.054199,1395
890.170837,1421
890.287598,1433
890.404236,1427
890.520874,1431
890.637634,1442
890.754211,1424
890.87085,1416
890.987549,1398
891.104187,1470
891.220886,1456
891.337463,1449
891.454102,1421
891.57074,1436
891.687378,1466
891.804077,1481
891.920654,1476
892.037231,1444
892.15387,1442
892.270447,1436
892.387085,1459
892.503723,1428
892.6203,1451
892.736877,1393
892.853516,1474
892.970032,1475
893.08667,1438
893.203186,1468
893.319763,1423
893.43634,1445
893.552917,1434
893.669556,1423
893.786011,1432
893.902588,1452
894.019165,1471
894.135681,1455
894.252197,1471
894.368835,1426
894.485291,1460
894.601868,1451
894.718384,1410
894.8349,1434
894.951355,1384
895.067932,1433
895.184448,1407
895.300964,1446
895.417419,1426
895.533936,1386
895.650452,1413
895.766907,1428
895.883423,1458
895.999878,1420
896.116333,1459
896.232849,1414
896.349304,1435
896.465759,1446
896.582214,1432
896.698669,1441
896.815125,1437
896.931641,1421
897.048035,1440
897.164551,1415
897.280884,1451
897.397339,1424
897.513794,1403
897.630249,1439
897.746582,1401
897.863098,1470
897.979431,1471
898.095886,1456
898.212341,1470
898.328674,1430
898.445129,1482
898.561462,1438
898.677795,1459
898.794312,1443
898.910645,1441
899.026978,1440
899.143433,1434
899.259766,1435
899.37616,1469
899.492493,1480
899.608765,1449
899.725159,1469
899.841553,1438
899.957947,1454
900.07428,1471
900.190552,1438
900.306946,1478
900.423157,1453
900.53949,1459
900.655884,1442
900.772156,1518
900.888489,1485
901.004822,1461
901.121033,1478
901.237366,1486
901.353699,1447
901.46991,1448
901.586304,1533
901.702515,1538
901.818787,1597
901.93512,1542
902.051331,1556
902.167603,1587
902.283875,1610
902.400085,1657
902.516418,1668
902.632629,1694
902.74884,1719
902.865112,1763
902.981384,1730
903.097595,1730
903.213867,1692
903.330017,1691
903.446289,1711
903.5625,1659
903.67865,1658
903.794922,1698
903.911072,1630
904.027344,1610
904.143494,1627
904.259705,1541
904.375916,1593
904.492065,1551
904.608215,1538
904.724426,1538
904.840576,1517
904.956726,1518
905.072876,1510
905.189087,1464
905.305176,1476
905.421387,1488
905.537537,1503
905.653687,1480
905.769775,1457
905.885925,1426
906.002014,1460
906.118164,1387
906.234314,1445
906.350403,1458
906.466492,1488
906.582642,1449
906.69873,1435
906.814758,1510
906.930908,1390
907.046936,1458
907.163086,1393
907.279175,1477
907.395264,1409
907.511353,1415
907.62738,1431
907.743408,1409
907.859497,1425
907.975525,1420
908.091553,1397
908.207703,1433
908.32373,1405
908.439758,1396
908.555786,1423
908.671814,1457
908.787842,1437
908.90387,1448
909.019775,1446
909.135864,1420
909.251892,1439
909.367859,1392
909.483826,1470
909.599854,1409
909.715881,1452
909.831848,1408
909.947815,1444
910.063782,1436
910.179749,1401
910.295776,1452
910.411743,1413
910.527649,1452
910.643616,1430
910.759583,1428
910.875488,1421
910.991455,1395
911.107361,1433
911.223267,1438
911.339294,1405
911.4552,1390
911.571106,1406
911.687073,1413
911.802979,1448
911.918823,1419
912.034729,1418
912.150635,1390
912.266602,1391
912.382446,1380
912.498352,1392
912.614197,1389
912.730103,1410
912.846008,1390
792.44574,4571
792.56488,4488
792.68396,4226
792.80304,4169
792.92218,4083
793.041199,3922
793.160339,3895
793.279419,3848
793.398499,3668
793.517578,3594
793.636658,3535
793.755737,3464
793.874817,3393
793.993896,3359
794.112976,3228
794.232056,3135
794.351074,3124
794.470215,3110
794.589233,3101
794.708313,3028
794.827393,2931
794.946411,2956
795.065552,2919
795.18457,2823
795.303589,2779
795.422668,2810
795.541687,2719
795.660767,2739
795.779846,2666
795.898865,2651
796.017883,2618
796.136963,2555
796.255981,2583
796.375061,2534
796.49408,2549
796.613037,2507
796.732117,2475
796.851135,2461
796.970154,2395
797.089233,2384
797.208191,2339
797.327271,2404
797.446228,2339
797.565186,2391
797.684265,2292
797.803223,2339
797.922241,2302
798.04126,2318
798.160278,2275
798.279297,2279
798.398315,2266
798.517273,2172
798.636292,2172
798.75531,2205
798.874268,2241
798.993286,2221
799.112244,2133
799.231323,2207
799.350281,2199
799.469238,2213
799.588257,2140
799.707153,2143
799.826111,2123
799.945129,2117
800.064087,2149
800.183044,2103
800.302063,2102
800.421021,2052
800.539978,2111
800.658936,2053
800.777893,2108
800.896912,2132
801.015747,2042
801.134705,2016
801.253723,2071
801.37262,2017
801.491638,2029
801.610535,2019
801.729492,1971
801.84845,1988
801.967407,2016
802.086243,1992
802.205261,1995
802.324158,2007
802.443115,2001
802.562073,1933
802.680969,1933
802.799927,1952
802.918762,1957
803.037659,1934
803.156677,1921
803.275574,1902
803.39447,1929
803.513428,1906
803.632263,1927
803.751221,1927
803.870117,1888
803.989014,1911
804.107971,1900
804.226746,1859
804.345642,1865
804.4646,1892
804.583496,1906
804.702393,1885
804.821228,1850
804.940125,1887
805.059021,1893
805.177917,1809
805.296814,1877
805.415649,1847
805.534546,1898
805.653442,1834
805.772278,1853
805.891113,1847
806.01001,1825
806.128906,1836
806.247742,1831
806.366577,1845
806.485413,1820
806.604309,1811
806.723145,1859
806.84198,1798
806.960876,1816
807.079712,1824
807.198486,1803
807.317383,1809
807.436218,1813
807.554993,1824
807.673889,1789
807.792725,1838
807.91156,1828
808.030396,1825
808.14917,1746
808.268005,1782
808.386841,1769
808.505676,1726
808.624451,1789
808.743286,1771
808.862122,1765
808.980896,1770
809.099731,1755
809.218506,1782
809.337341,1763
809.456116,1764
809.57489,1749
809.693726,1808
809.8125,1718
809.931274,1776
810.050049,1735
810.168884,1748
810.287659,1744
810.406372,1760
810.525269,1752
810.643982,1755
810.762756,1765
810.881531,1711
811.000305,1741
811.11908,1707
811.237854,1683
811.356567,1742
811.475403,1811
811.594116,1729
811.71283,1724
811.831604,1807
811.950378,1750
812.069153,1809
812.187927,1796
812.30658,1829
812.425415,1802
812.544128,1778
812.662781,1815
812.781616,1786
812.900269,1762
813.019043,1770
813.137756,1797
813.256531,1756
813.375244,1750
813.493896,1760
813.612671,1722
813.731384,1703
813.850037,1745
813.96875,1735
814.087524,1715
814.206238,1668
814.324951,1683
814.443604,1676
814.562256,1684
814.68103,1720
814.799683,1732
814.918335,1728
815.037109,1743
815.155762,1689
815.274475,1735
815.393188,1702
815.511841,1718
815.630554,1685
815.749146,1647
815.867859,1737
815.986572,1693
816.105164,1682
816.223877,1698
816.342529,1717
816.461182,1732
816.579895,1675
816.698486,1709
816.817139,1680
816.935791,1706
817.054504,1751
817.173096,1710
817.291748,1695
817.4104,1693
817.529053,1723
817.647644,1689
817.766235,1676
817.884949,1693
818.00354,1695
818.122192,1649
818.240845,1702
818.359436,1634
818.478088,1617
818.59668,1620
818.715271,1638
818.833923,1632
818.952515,1627
819.071106,1584
819.189758,1592
819.30835,1579
819.426941,1589
819.545532,1592
819.664124,1582
819.782715,1608
819.901306,1601
820.019897,1591
820.138489,1572
820.25708,1592
820.375671,1574
820.494202,1566
820.612732,1612
820.731384,1597
820.849915,1570
820.968506,1588
821.087097,1578
821.205627,1578
821.324158,1594
821.442749,1588
821.561279,1558
821.679871,1534
821.798401,1564
821.916931,1571
822.035461,1521
822.154053,1532
822.272583,1546
822.391174,1564
822.509583,1500
822.628174,1522
822.746704,1516
822.865234,1531
822.983765,1523
823.102295,1510
823.220825,1517
823.339294,1495
823.457825,1525
823.576355,1525
823.694824,1494
823.813354,1529
823.931885,1567
824.050354,1582
824.168884,1530
824.287354,1535
824.405823,1535
824.524353,1545
824.642822,1551
824.761353,1523
824.879822,1574
824.998291,1520
825.116699,1507
825.235291,1563
825.353699,1536
825.472168,1550
825.590637,1504
825.709106,1524
825.827576,1532
825.946045,1474
826.064453,1497
826.182983,1517
826.301392,1506
826.4198,1503
826.53833,1500
826.656738,1523
826.775208,1472
826.893677,1485
827.012024,1515
827.130493,1507
827.248962,1549
827.36731,1507
827.485779,1512
827.604248,1579
827.722595,1513
827.841064,1503
827.959412,1471
828.077942,1470
828.196289,1465
828.314636,1482
828.433105,1485
828.551514,1475
828.669861,1522
828.78833,1445
828.906677,1483
829.025085,1481
829.143433,1448
829.261841,1455
829.38031,1467
829.498657,1513
829.617004,1498
829.735413,1498
829.85376,1501
829.972107,1501
830.090515,1438
830.208862,1417
830.327209,1488
830.445557,1497
830.563904,1498
830.682312,1479
830.800659,1464
830.919006,1528
831.037354,1545
831.155701,1520
831.274048,1513
831.392395,1550
831.51062,1524
831.629028,1520
831.747314,1539
831.865662,1505
831.984009,1485
832.102356,1525
832.220642,1514
832.338928,1544
832.457275,1533
832.575623,1552
832.693909,1545
832.812134,1547
832.930481,1522
833.048828,1520
833.167114,1519
833.2854,1491
833.403687,1507
833.521973,1502
833.640259,1537
833.758545,1435
833.876831,1488
833.995056,1490
834.113281,1508
834.231628,1558
834.349915,1502
834.468201,1510
834.586426,1520
834.704651,1531
834.822998,1521
834.941162,1525
835.059448,1531
835.177673,1567
835.295959,1515
835.414246,1535
835.53241,1516
835.650635,1509
835.768921,1480
835.887146,1538
836.005371,1495
836.123596,1484
836.241821,1494
836.360046,1500
836.478271,1506
836.596497,1511
836.714722,1471
836.832886,1497
836.95105,1457
837.069336,1465
837.1875,1479
837.305725,1489
837.423889,1505
837.542053,1539
837.660339,1502
837.778503,1496
837.896667,1450
838.014832,1519
838.132996,1484
838.25116,1495
838.369385,1499
838.487488,1536
838.605713,1502
838.723877,1524
838.84198,1521
838.960205,1537
839.078308,1502
839.196472,1523
839.314636,1519
839.4328,1538
839.550964,1538
839.669067,1539
839.787231,1509
839.905396,1629
840.023499,1613
840.141602,1549
840.259766,1603
840.377869,1587
840.495972,1614
840.614136,1617
840.732239,1622
840.850342,1640
840.968445,1624
841.086548,1637
841.204651,1635
841.322754,1647
841.440918,1672
841.55896,1632
841.677002,1661
841.795166,1740
841.913208,1678
842.031311,1731
842.149353,1664
842.267456,1690
842.385498,1704
842.503601,1653
842.621643,1647
842.739746,1635
842.857788,1705
842.97583,1640
843.093933,1622
843.211975,1703
843.330017,1690
843.44812,1694
843.566101,1634
843.684204,1667
843.802246,1672
843.920227,1627
844.038269,1643
844.156311,1643
844.274292,1654
844.392395,1659
844.510376,1618
844.628357,1575
844.74646,1610
844.864441,1609
844.982422,1605
845.100403,1616
845.218384,1619
845.336426,1598
845.454468,1619
845.572449,1630
845.69043,1626
845.808411,1617
845.926453,1541
846.044373,1581
846.162354,1619
846.280396,1633
846.398315,1628
846.516296,1603
846.634216,1620
846.752197,1631
846.870178,1625
846.988098,1627
847.106079,1604
847.22406,1609
847.34198,1608
847.4599,1611
847.577881,1606
847.695801,1631
847.813782,1631
847.931641,1605
848.049561,1600
848.167603,1593
848.285461,1575
848.403381,1595
848.521362,1627
848.639221,1606
848.75708,1629
848.875,1582
848.99292,1654
849.110901,1623
849.22876,1660
849.34668,1677
849.464539,1604
849.582458,1657
849.700317,1582
849.818176,1640
849.936096,1647
850.053955,1630
850.171875,1622
850.289673,1606
850.407593,1633
850.525452,1650
850.643311,1612
850.761169,1604
850.878967,1613
850.996887,1631
851.114746,1608
851.232544,1558
851.350403,1608
851.468262,1600
851.58606,1579
851.703979,1610
851.821777,1600
851.939636,1580
852.057434,1552
852.175232,1639
852.293091,1682
852.410889,1690
852.528687,1749
852.646545,1752
852.764343,1819
852.88208,1758
852.999939,1696
853.117676,1690
853.235535,1714
853.353271,1667
853.471069,1655
853.588928,1638
853.706604,1644
853.824402,1614
853.9422,1614
854.059998,1608
854.177734,1627
854.295532,1636
854.413269,1641
854.531006,1596
854.648804,1622
854.766541,1680
854.884277,1656
855.002014,1632
855.119751,1656
855.237549,1630
855.355225,1640
855.473022,1638
855.590698,1641
855.708435,1650
855.826172,1678
855.943848,1652
856.061646,1664
856.179321,1619
856.296997,1652
856.414795,1605
856.53241,1648
856.650085,1702
856.767822,1673
856.885559,1676
857.003174,1713
857.120911,1703
857.238586,1689
857.356201,1725
857.473938,1746
857.591614,1721
857.709351,1700
857.826965,1672
857.944641,1684
858.062317,1711
858.179993,1667
858.297668,1691
858.415283,1692
858.532959,1665
858.650574,1719
858.768188,1719
858.885803,1666
859.003479,1681
859.121094,1668
859.23877,1651
859.356384,1652
859.473999,1604
859.591675,1620
859.709229,1665
859.826843,1641
859.944458,1594
860.062012,1609
860.179626,1607
860.297302,1595
860.414856,1601
860.532471,1593
860.650024,1562
860.767639,1617
860.885193,1572
861.002808,1624
861.120361,1613
861.237976,1540
861.35553,1683
861.473022,1619
861.590698,1600
861.708191,1610
861.825745,1678
861.943298,1619
862.060852,1587
862.178406,1542
862.295959,1547
862.413513,1577
862.531006,1504
862.64856,1533
862.766113,1543
862.883667,1508
863.00116,1516
863.118713,1493
863.236206,1557
863.353699,1506
863.471252,1532
863.588745,1515
863.706177,1519
863.82373,1599
863.941162,1588
864.058716,1535
864.176208,1565
864.29364,1550
864.411194,1563
864.528687,1560
864.646118,1517
864.763611,1510
864.881042,1500
864.998535,1517
865.116028,1553
865.233459,1487
865.350891,1510
865.468384,1567
865.585754,1517
865.703308,1544
865.820679,1521
865.938171,1528
866.055542,1533
866.173035,1526
866.290466,1536
866.407837,1512
866.52533,1553
866.6427,1550
866.760071,1531
866.877563,1522
866.994934,1545
867.112305,1541
867.229736,1551
867.347107,1546
867.464539,1595
867.58197,1537
867.699341,1615
867.81665,1593
867.934082,1569
868.051453,1573
868.168823,1567
868.286194,1564
868.403564,1562
868.520935,1581
868.638306,1539
868.755676,1575
868.872986,1588
868.990295,1602
869.107727,1555
869.225037,1629
869.342346,1642
869.459717,1601
869.577026,1612
869.694336,1649
869.811707,1646
869.929016,1684
870.046326,1646
870.163635,1684
870.280945,1684
870.398254,1657
870.515564,1674
870.632812,1715
870.750183,1706
870.867432,1699
870.984741,1716
871.102051,1694
871.219299,1754
871.336609,1732
871.453918,1736
871.571106,1698
871.688416,1758
871.805664,1776
871.922852,1758
872.040222,1773
872.157471,1740
872.274719,1787
872.391968,1738
872.509155,1770
872.626465,1714
872.743652,1750
872.860962,1735
872.978149,1744
873.095337,1700
873.212646,1729
873.329834,1650
873.44696,1708
873.564209,1736
873.681396,1724
873.798645,1711
873.915894,1711
874.03302,1692
874.150208,1708
874.267456,1729
874.384583,1711
874.501831,1778
874.618958,1734
874.736145,1787
874.853333,1796
874.970459,1782
875.087646,1769
875.204834,1799
875.32196,1716
875.439148,1730
875.556274,1692
875.673401,1770
875.790527,1678
875.907715,1711
876.024841,1688
876.141968,1675
876.259094,1668
876.376282,1718
876.493347,1647
876.610474,1664
876.7276,1640
876.844727,1587
876.961853,1615
877.078918,1633
877.195984,1635
877.313171,1639
877.430237,1652
877.547302,1643
877.664368,1619
877.781433,1624
877.898499,1594
878.015625,1665
878.13269,1618
878.249695,1582
878.366821,1548
878.483887,1605
878.600952,1562
878.717957,1534
878.834961,1586
878.952087,1579
879.069092,1563
879.186157,1578
879.303162,1617
879.420227,1552
879.537231,1539
879.654236,1533
879.77124,1533
879.888306,1507
880.005249,1532
880.122314,1496
880.239319,1510
880.356323,1508
880.473328,1515
880.590271,1513
880.707275,1504
880.824341,1462
880.941284,1487
881.058228,1472
881.175232,1537
881.292236,1492
881.40918,1529
881.526123,1500
881.643066,1483
881.760071,1528
881.877014,1483
881.993958,1507
882.11084,1515
882.227783,1474
882.344727,1529
882.46167,1475
882.578613,1495
882.695618,1528
882.812439,1526
882.929382,1478
883.046326,1530
883.163208,1510
883.280151,1455
883.397034,1513
883.513916,1532
883.630798,1512
883.747742,1553
883.864563,1536
883.981506,1587
884.098389,1549
884.21521,1548
884.332153,1595
884.448975,1607
884.565796,1618
884.682678,1665
884.7995,1731
884.916443,1793
885.033264,1828
885.150085,1834
885.266968,1989
885.383789,1958
885.500671,2005
885.617493,2059
885.734314,2044
885.851196,1983
885.967896,1939
886.084717,1993
886.201599,1957
886.318359,1928
886.435181,1954
886.552002,1896
886.668762,1889
886.785645,1872
886.902344,1903
887.019165,1842
887.135925,1857
887.252747,1809
887.369446,1766
887.486267,1831
887.603027,1760
887.719788,1705
887.836548,1700
887.953247,1693
888.070068,1639
888.186829,1609
888.303528,1553
888.420288,1581
888.536987,1545
888.653687,1515
888.770447,1563
888.887146,1480
889.003967,1491
889.120667,1490
889.237305,1495
889.354065,1457
889.470703,1454
889.587463,1459
889.704163,1430
889.820862,1421
889.937561,1441
890.054199,1443
890.170837,1479
890.287598,1455
890.404236,1444
890.520874,1424
890.637634,1477
890.754211,1512
890.87085,1409
890.987549,1475
891.104187,1472
891.220886,1489
891.337463,1433
891.454102,1475
891.57074,1469
891.687378,1526
891.804077,1500
891.920654,1457
892.037231,1493
892.15387,1482
892.270447,1484
892.387085,1488
892.503723,1516
892.6203,1464
892.736877,1478
892.853516,1438
892.970032,1483
893.08667,1480
893.203186,1473
893.319763,1465
893.43634,1421
893.552917,1445
893.669556,1424
893.786011,1426
893.902588,1442
894.019165,1486
894.135681,1442
894.252197,1473
894.368835,1438
894.485291,1425
894.601868,1473
894.718384,1503
894.8349,1426
894.951355,1451
895.067932,1454
895.184448,1446
895.300964,1456
895.417419,1455
895.533936,1459
895.650452,1440
895.766907,1415
895.883423,1469
895.999878,1455
896.116333,1441
896.232849,1471
896.349304,1454
896.465759,1460
896.582214,1428
896.698669,1414
896.815125,1444
896.931641,1419
897.048035,1425
897.164551,1456
897.280884,1474
897.397339,1463
897.513794,1439
897.630249,1462
897.746582,1466
897.863098,1453
897.979431,1495
898.095886,1429
898.212341,1452
898.328674,1502
898.445129,1458
898.561462,1492
898.677795,1452
898.794312,1494
898.910645,1463
899.026978,1470
899.143433,1476
899.259766,1494
899.37616,1457
899.492493,1503
899.608765,1489
899.725159,1504
899.841553,1468
899.957947,1500
900.07428,1487
900.190552,1505
900.306946,1471
900.423157,1507
900.53949,1500
900.655884,1477
900.772156,1478
900.888489,1488
901.004822,1456
901.121033,1510
901.237366,1523
901.353699,1490
901.46991,1519
901.586304,1531
901.702515,1584
901.818787,1536
901.93512,1590
902.051331,1601
902.167603,1588
902.283875,1687
902.400085,1675
902.516418,1695
902.632629,1748
902.74884,1770
902.865112,1755
902.981384,1713
903.097595,1733
903.213867,1756
903.330017,1754
903.446289,1733
903.5625,1747
903.67865,1691
903.794922,1732
903.911072,1663
904.027344,1691
904.143494,1648
904.259705,1626
904.375916,1619
904.492065,1551
904.608215,1561
904.724426,1583
904.840576,1536
904.956726,1572
905.072876,1493
905.189087,1543
905.305176,1510
905.421387,1481
905.537537,1503
905.653687,1498
905.769775,1444
905.885925,1505
906.002014,1448
906.118164,1490
906.234314,1491
906.350403,1424
906.466492,1456
906.582642,1447
906.69873,1448
906.814758,1454
906.930908,1490
907.046936,1457
907.163086,1458
907.279175,1456
907.395264,1457
907.511353,1466
907.62738,1467
907.743408,1458
907.859497,1431
907.975525,1474
908.091553,1427
908.207703,1423
908.32373,1442
908.439758,1463
908.555786,1418
908.671814,1450
908.787842,1437
908.90387,1471
909.019775,1485
909.135864,1484
909.251892,1462
909.367859,1425
909.483826,1473
909.599854,1473
909.715881,1439
909.831848,1428
909.947815,1460
910.063782,1484
910.179749,1450
910.295776,1448
910.411743,1424
910.527649,1459
910.643616,1477
910.759583,1407
910.875488,1439
910.991455,1421
911.107361,1472
911.223267,1479
911.339294,1494
911.4552,1425
911.571106,1433
911.687073,1472
911.802979,1457
911.918823,1439
912.034729,1484
912.150635,1415
912.266602,1434
912.382446,1473
912.498352,1424
912.614197,1401
912.730103,1442
912.846008,1434
792.44574,4525
792.56488,4450
792.68396,4307
792.80304,4179
792.92218,4020
793.041199,3920
793.160339,3911
793.279419,3753
793.398499,3767
793.517578,3664
793.636658,3490
793.755737,3393
793.874817,3414
793.993896,3334
794.112976,3253
794.232056,3176
794.351074,3185
794.470215,3138
794.589233,3065
794.708313,2988
794.827393,2996
794.946411,2903
795.065552,2920
795.18457,2894
795.303589,2889
795.422668,2805
795.541687,2776
795.660767,2752
795.779846,2720
795.898865,2647
796.017883,2665
796.136963,2538
796.255981,2600
796.375061,2569
796.49408,2589
796.613037,2529
796.732117,2499
796.851135,2431
796.970154,2438
797.089233,2377
797.208191,2377
797.327271,2362
797.446228,2310
797.565186,2295
797.684265,2344
797.803223,2348
797.922241,2301
798.04126,2322
798.160278,2262
798.279297,2281
798.398315,2225
798.517273,2303
798.636292,2207
798.75531,2252
798.874268,2174
798.993286,2211
799.112244,2182
799.231323,2198
799.350281,2162
799.469238,2188
799.588257,2163
799.707153,2155
799.826111,2166
799.945129,2130
800.064087,2116
800.183044,2125
800.302063,2164
800.421021,2062
800.539978,2089
800.658936,2038
800.777893,2079
800.896912,2095
801.015747,2063
801.134705,1994
801.253723,2047
801.37262,2056
801.491638,2075
801.610535,2002
801.729492,2000
801.84845,2019
801.967407,1999
802.086243,2004
802.205261,2005
802.324158,1956
802.443115,1957
802.562073,1988
802.680969,1975
802.799927,2001
802.918762,1969
803.037659,1937
803.156677,1970
803.275574,1918
803.39447,1904
803.513428,1949
803.632263,1915
803.751221,1916
803.870117,1898
803.989014,1926
804.107971,1915
804.226746,1868
804.345642,1912
804.4646,1861
804.583496,1863
804.702393,1899
804.821228,1835
804.940125,1932
805.059021,1851
805.177917,1857
805.296814,1844
805.415649,1834
805.534546,1870
805.653442,1848
805.772278,1884
805.891113,1804
806.01001,1838
806.128906,1873
806.247742,1834
806.366577,1878
806.485413,1834
806.604309,1813
806.723145,1809
806.84198,1852
806.960876,1799
807.079712,1813
807.198486,1823
807.317383,1809
807.436218,1826
807.554993,1785
807.673889,1826
807.792725,1816
807.91156,1826
808.030396,1796
808.14917,1733
808.268005,1815
808.386841,1750
808.505676,1764
808.624451,1760
808.743286,1750
808.862122,1765
808.980896,1787
809.099731,1816
809.218506,1763
809.337341,1765
809.456116,1777
809.57489,1747
809.693726,1745
809.8125,1783
809.931274,1788
810.050049,1749
810.168884,1760
810.287659,1727
810.406372,1733
810.525269,1737
810.643982,1737
810.762756,1724
810.881531,1774
811.000305,1722
811.11908,1741
811.237854,1776
811.356567,1762
811.475403,1745
811.594116,1733
811.71283,1740
811.831604,1803
811.950378,1816
812.069153,1761
812.187927,1817
812.30658,1794
812.425415,1762
812.544128,1797
812.662781,1800
812.781616,1784
812.900269,1834
813.019043,1782
813.137756,1752
813.256531,1742
813.375244,1722
813.493896,1761
813.612671,1740
813.731384,1688
813.850037,1686
813.96875,1688
814.087524,1714
814.206238,1716
814.324951,1747
814.443604,1735
814.562256,1733
814.68103,1695
814.799683,1701
814.918335,1696
815.037109,1728
815.155762,1723
815.274475,1693
815.393188,1683
815.511841,1719
815.630554,1700
815.749146,1763
815.867859,1702
815.986572,1714
816.105164,1673
816.223877,1708
816.342529,1641
816.461182,1685
816.579895,1721
816.698486,1716
816.817139,1764
816.935791,1714
817.054504,1714
817.173096,1718
817.291748,1707
817.4104,1704
817.529053,1723
817.647644,1745
817.766235,1731
817.884949,1733
818.00354,1656
818.122192,1670
818.240845,1656
818.359436,1699
818.478088,1696
818.59668,1612
818.715271,1637
818.833923,1645
818.952515,1590
819.071106,1639
819.189758,1662
819.30835,1578
819.426941,1606
819.545532,1606
819.664124,1567
819.782715,1597
819.901306,1616
820.019897,1613
820.138489,1605
820.25708,1579
820.375671,1527
820.494202,1631
820.612732,1613
820.731384,1611
820.849915,1596
820.968506,1570
821.087097,1551
821.205627,1564
821.324158,1588
821.442749,1592
821.561279,1550
821.679871,1545
821.798401,1561
821.916931,1566
822.035461,1578
822.154053,1544
822.272583,1592
822.391174,1564
822.509583,1542
822.628174,1579
822.746704,1553
822.865234,1550
822.983765,1522
823.102295,1557
823.220825,1550
823.339294,1555
823.457825,1509
823.576355,1539
823.694824,1533
823.813354,1576
823.931885,1515
824.050354,1519
824.168884,1549
824.287354,1541
824.405823,1534
824.524353,1533
824.642822,1538
824.761353,1507
824.879822,1619
824.998291,1533
825.116699,1566
825.235291,1561
825.353699,1498
825.472168,1501
825.590637,1546
825.709106,1539
825.827576,1542
825.946045,1543
826.064453,1534
826.182983,1505
826.301392,1535
826.4198,1501
826.53833,1470
826.656738,1511
826.775208,1500
826.893677,1494
827.012024,1564
827.130493,1505
827.248962,1503
827.36731,1518
827.485779,1540
827.604248,1519
827.722595,1520
827.841064,1499
827.959412,1465
828.077942,1471
828.196289,1511
828.314636,1505
828.433105,1514
828.551514,1488
828.669861,1488
828.78833,1504
828.906677,1498
829.025085,1491
829.143433,1502
829.261841,1497
829.38031,1480
829.498657,1532
829.617004,1469
829.735413,1463
829.85376,1491
829.972107,1542
830.090515,1505
830.208862,1510
830.327209,1532
830.445557,1448
830.563904,1477
830.682312,1496
830.800659,1499
830.919006,1512
831.037354,1521
831.155701,1522
831.274048,1524
831.392395,1574
831.51062,1536
831.629028,1499
831.747314,1528
831.865662,1492
831.984009,1513
832.102356,1491
832.220642,1553
832.338928,1550
832.457275,1573
832.575623,1550
832.693909,1531
832.812134,1549
832.930481,1535
833.048828,1531
833.167114,1518
833.2854,1522
833.403687,1555
833.521973,1502
833.640259,1501
833.758545,1498
833.876831,1538
833.995056,1545
834.113281,1499
834.231628,1515
834.349915,1535
834.468201,1512
834.586426,1525
834.704651,1512
834.822998,1535
834.941162,1529
835.059448,1534
835.177673,1557
835.295959,1521
835.414246,1542
835.53241,1498
835.650635,1530
835.768921,1472
835.887146,1526
836.005371,1489
836.123596,1510
836.241821,1460
836.360046,1485
836.478271,1534
836.596497,1480
836.714722,1467
836.832886,1480
836.95105,1453
837.069336,1530
837.1875,1485
837.305725,1474
837.423889,1462
837.542053,1484
837.660339,1518
837.778503,1497
837.896667,1453
838.014832,1483
838.132996,1491
838.25116,1541
838.369385,1497
838.487488,1513
838.605713,1513
838.723877,1535
838.84198,1487
838.960205,1557
839.078308,1539
839.196472,1531
839.314636,1501
839.4328,1577
839.550964,1577
839.669067,1557
839.787231,1591
839.905396,1627
840.023499,1593
840.141602,1620
840.259766,1640
840.377869,1628
840.495972,1633
840.614136,1642
840.732239,1648
840.850342,1628
840.968445,1632
841.086548,1680
841.204651,1670
841.322754,1650
841.440918,1686
841.55896,1670
841.677002,1676
841.795166,1701
841.913208,1707
842.031311,1680
842.149353,1650
842.267456,1665
842.385498,1681
842.503601,1636
842.621643,1669
842.739746,1666
842.857788,1634
842.97583,1682
843.093933,1677
843.211975,1664
843.330017,1678
843.44812,1707
843.566101,1640
843.684204,1687
843.802246,1644
843.920227,1674
844.038269,1660
844.156311,1640
844.274292,1654
844.392395,1632
844.510376,1655
844.628357,1642
844.74646,1658
844.864441,1671
844.982422,1617
845.100403,1614
845.218384,1631
845.336426,1563
845.454468,1600
845.572449,1609
845.69043,1613
845.808411,1611
845.926453,1611
846.044373,1617
846.162354,1582
846.280396,1667
846.398315,1655
846.516296,1640
846.634216,1618
846.752197,1617
846.870178,1576
846.988098,1608
847.106079,1639
847.22406,1685
847.34198,1643
847.4599,1635
847.577881,1640
847.695801,1627
847.813782,1580
847.931641,1601
848.049561,1643
848.167603,1627
848.285461,1578
848.403381,1629
848.521362,1611
848.639221,1606
848.75708,1583
848.875,1637
848.99292,1649
849.110901,1662
849.22876,1638
849.34668,1659
849.464539,1631
849.582458,1586
849.700317,1602
849.818176,1619
849.936096,1637
850.053955,1627
850.171875,1605
850.289673,1614
850.407593,1623
850.525452,1619
850.643311,1641
850.761169,1603
850.878967,1579
850.996887,1609
851.114746,1630
851.232544,1602
851.350403,1583
851.468262,1638
851.58606,1566
851.703979,1632
851.821777,1610
851.939636,1585
852.057434,1619
852.175232,1624
852.293091,1660
852.410889,1647
852.528687,1752
852.646545,1755
852.764343,1771
852.88208,1741
852.999939,1730
853.117676,1730
853.235535,1661
853.353271,1616
853.471069,1645
853.588928,1632
853.706604,1618
853.824402,1640
853.9422,1600
854.059998,1580
854.177734,1594
854.295532,1653
854.413269,1670
854.531006,1607
854.648804,1606
854.766541,1655
854.884277,1679
855.002014,1680
855.119751,1635
855.237549,1637
855.355225,1650
855.473022,1601
855.590698,1662
855.708435,1617
855.826172,1675
855.943848,1629
856.061646,1640
856.179321,1641
856.296997,1661
856.414795,1695
856.53241,1631
856.650085,1647
856.767822,1647
856.885559,1704
857.003174,1686
857.120911,1758
857.238586,1697
857.356201,1746
857.473938,1688
857.591614,1705
857.709351,1638
857.826965,1757
857.944641,1681
858.062317,1701
858.179993,1673
858.297668,1738
858.415283,1677
858.532959,1706
858.650574,1683
858.768188,1693
858.885803,1676
859.003479,1698
859.121094,1676
859.23877,1672
859.356384,1708
859.473999,1635
859.591675,1648
859.709229,1651
859.826843,1644
859.944458,1686
860.062012,1584
860.179626,1608
860.297302,1618
860.414856,1635
860.532471,1592
860.650024,1614
860.767639,1568
860.885193,1609
861.002808,1595
861.120361,1577
861.237976,1652
861.35553,1605
861.473022,1650
861.590698,1620
861.708191,1579
861.825745,1632
861.943298,1622
862.060852,1631
862.178406,1553
862.295959,1550
862.413513,1531
862.531006,1552
862.64856,1551
862.766113,1551
862.883667,1499
863.00116,1546
863.118713,1469
863.236206,1518
863.353699,1582
863.471252,1570
863.588745,1532
863.706177,1593
863.82373,1554
863.941162,1562
864.058716,1575
864.176208,1555
864.29364,1540
864.411194,1506
864.528687,1539
864.646118,1543
864.763611,1543
864.881042,1521
864.998535,1545
865.116028,1577
865.233459,1514
865.350891,1512
865.468384,1531
865.585754,1553
865.703308,1532
865.820679,1561
865.938171,1523
866.055542,1559
866.173035,1558
866.290466,1567
866.407837,1540
866.52533,1554
866.6427,1577
866.760071,1561
866.877563,1552
866.994934,1521
867.112305,1546
867.229736,1543
867.347107,1569
867.464539,1603
867.58197,1606
867.699341,1603
867.81665,1588
867.934082,1590
868.051453,1623
868.168823,1602
868.286194,1558
868.403564,1570
868.520935,1569
868.638306,1536
868.755676,1596
868.872986,1592
868.990295,1596
869.107727,1614
869.225037,1603
869.342346,1643
869.459717,1605
869.577026,1632
869.694336,1668
869.811707,1648
869.929016,1655
870.046326,1628
870.163635,1681
870.280945,1640
870.398254,1681
870.515564,1659
870.632812,1643
870.750183,1687
870.867432,1698
870.984741,1715
871.102051,1722
871.219299,1755
871.336609,1782
871.453918,1762
871.571106,1731
871.688416,1777
871.805664,1754
871.922852,1776
872.040222,1772
872.157471,1823
872.274719,1744
872.391968,1754
872.509155,1788
872.626465,1768
872.743652,1716
872.860962,1752
872.978149,1679
873.095337,1745
873.212646,1737
873.329834,1718
873.44696,1725
873.564209,1741
873.681396,1700
873.798645,1722
873.915894,1730
874.03302,1713
874.150208,1729
874.267456,1720
874.384583,1811
874.501831,1739
874.618958,1803
874.736145,1793
874.853333,1790
874.970459,1790
875.087646,1829
875.204834,1733
875.32196,1701
875.439148,1742
875.556274,1669
875.673401,1755
875.790527,1671
875.907715,1699
876.024841,1662
876.141968,1693
876.259094,1649
876.376282,1707
876.493347,1648
876.610474,1666
876.7276,1634
876.844727,1702
876.961853,1617
877.078918,1669
877.195984,1660
877.313171,1646
877.430237,1618
877.547302,1614
877.664368,1603
877.781433,1657
877.898499,1622
878.015625,1619
878.13269,1613
878.249695,1608
878.366821,1628
878.483887,1599
878.600952,1593
878.717957,1617
878.834961,1596
878.952087,1594
879.069092,1555
879.186157,1581
879.303162,1560
879.420227,1538
879.537231,1597
879.654236,1542
879.77124,1533
879.888306,1567
880.005249,1550
880.122314,1571
880.239319,1541
880.356323,1555
880.473328,1490
880.590271,1513
880.707275,1499
880.824341,1523
880.941284,1502
881.058228,1526
881.175232,1490
881.292236,1513
881.40918,1503
881.526123,1530
881.643066,1480
881.760071,1501
881.877014,1502
881.993958,1498
882.11084,1499
882.227783,1507
882.344727,1491
882.46167,1554
882.578613,1494
882.695618,1517
882.812439,1510
882.929382,1539
883.046326,1538
883.163208,1522
883.280151,1516
883.397034,1496
883.513916,1488
883.630798,1540
883.747742,1546
883.864563,1562
883.981506,1565
884.098389,1570
884.21521,1554
884.332153,1614
884.448975,1642
884.565796,1640
884.682678,1675
884.7995,1731
884.916443,1807
885.033264,1811
885.150085,1884
885.266968,1983
885.383789,1953
885.500671,1957
885.617493,2016
885.734314,2029
885.851196,2024
885.967896,2025
886.084717,1943
886.201599,2006
886.318359,1912
886.435181,2010
886.552002,1904
886.668762,1926
886.785645,1934
886.902344,1819
887.019165,1860
887.135925,1866
887.252747,1832
887.369446,1784
887.486267,1759
887.603027,1719
887.719788,1721
887.836548,1689
887.953247,1629
888.070068,1628
888.186829,1630
888.303528,1569
888.420288,1569
888.536987,1541
888.653687,1536
888.770447,1525
888.887146,1502
889.003967,1506
889.120667,1494
889.237305,1485
889.354065,1482
889.470703,1428
889.587463,1476
889.704163,1454
889.820862,1432
889.937561,1427
890.054199,1473
890.170837,1445
890.287598,1466
890.404236,1454
890.520874,1454
890.637634,1466
890.754211,1471
890.87085,1460
890.987549,1465
891.104187,1507
891.220886,1436
891.337463,1467
891.454102,1508
891.57074,1481
891.687378,1504
891.804077,1472
891.920654,1494
892.037231,1447
892.15387,1508
892.270447,1474
892.387085,1478
892.503723,1461
892.6203,1479
892.736877,1496
892.853516,1479
892.970032,1484
893.08667,1442
893.203186,1472
893.319763,1478
893.43634,1458
893.552917,1444
893.669556,1504
893.786011,1456
893.902588,1507
894.019165,1481
894.135681,1470
894.252197,1448
894.368835,1477
894.485291,1495
894.601868,1471
894.718384,1419
894.8349,1483
894.951355,1442
895.067932,1441
895.184448,1478
895.300964,1469
895.417419,1437
895.533936,1450
895.650452,1458
895.766907,1422
895.883423,1494
895.999878,1418
896.116333,1441
896.232849,1444
896.349304,1454
896.465759,1415
896.582214,1446
896.698669,1450
896.815125,1485
896.931641,1482
897.048035,1438
897.164551,1509
897.280884,1479
897.397339,1463
897.513794,1452
897.630249,1435
897.746582,1463
897.863098,1480
897.979431,1456
898.095886,1421
898.212341,1498
898.328674,1461
898.445129,1476
898.561462,1475
898.677795,1473
898.794312,1484
898.910645,1490
899.026978,1515
899.143433,1449
899.259766,1511
899.37616,1474
899.492493,1477
899.608765,1467
899.725159,1455
899.841553,1491
899.957947,1496
900.07428,1522
900.190552,1503
900.306946,1432
900.423157,1488
900.53949,1493
900.655884,1492
900.772156,1499
900.888489,1506
901.004822,1506
901.121033,1525
901.237366,1521
901.353699,1500
901.46991,1516
901.586304,1514
901.702515,1556
901.818787,1555
901.93512,1615
902.051331,1599
902.167603,1644
902.283875,1668
902.400085,1739
902.516418,1718
902.632629,1742
902.74884,1730
902.865112,1817
902.981384,1761
903.097595,1740
903.213867,1735
903.330017,1747
903.446289,1741
903.5625,1740
903.67865,1686
903.794922,1694
903.911072,1688
904.027344,1647
904.143494,1657
904.259705,1566
904.375916,1604
904.492065,7674
904.608215,2384
904.724426,1563
904.840576,1556
904.956726,1501
905.072876,1534
905.189087,1501
905.305176,1572
905.421387,1505
905.537537,1502
905.653687,1507
905.769775,1477
905.885925,1509
906.002014,1483
906.118164,1455
906.234314,1487
906.350403,1471
906.466492,1459
906.582642,1430
906.69873,1472
906.814758,1434
906.930908,1459
907.046936,1440
907.163086,1434
907.279175,1493
907.395264,1441
907.511353,1457
907.62738,1474
907.743408,1457
907.859497,1436
907.975525,1408
908.091553,1490
908.207703,1442
908.32373,1466
908.439758,1477
908.555786,1480
908.671814,1472
908.787842,1445
908.90387,1471
909.019775,1500
909.135864,1447
909.251892,1470
909.367859,1495
909.483826,1455
909.599854,1503
909.715881,1494
909.831848,1449
909.947815,1487
910.063782,1445
910.179749,1531
910.295776,1464
910.411743,1512
910.527649,1479
910.643616,1485
910.759583,1436
910.875488,1479
910.991455,1461
911.107361,1470
911.223267,1437
911.339294,1475
911.4552,1454
911.571106,1485
911.687073,1479
911.802979,1469
911.918823,1475
912.034729,1464
912.150635,1446
912.266602,1397
912.382446,1474
912.498352,1448
912.614197,1462
912.730103,1480
912.846008,1477
