792.44574,4052
792.56488,3920
792.68396,3818
792.80304,3713
792.92218,3648
793.041199,3491
793.160339,3402
793.279419,3417
793.398499,3311
793.517578,3219
793.636658,3149
793.755737,3142
793.874817,3031
793.993896,3027
794.112976,2984
794.232056,2939
794.351074,2872
794.470215,2813
794.589233,2778
794.708313,2792
794.827393,2710
794.946411,2735
795.065552,2663
795.18457,2668
795.303589,2576
795.422668,2594
795.541687,2537
795.660767,2530
795.779846,2512
795.898865,2491
796.017883,2432
796.136963,2394
796.255981,2427
796.375061,2403
796.49408,2402
796.613037,2357
796.732117,2343
796.851135,2268
796.970154,2266
797.089233,2327
797.208191,2254
797.327271,2225
797.446228,2237
797.565186,2150
797.684265,2252
797.803223,2194
797.922241,2141
798.04126,2200
798.160278,2214
798.279297,2162
798.398315,2156
798.517273,2131
798.636292,2125
798.75531,2088
798.874268,2131
798.993286,2096
799.112244,2122
799.231323,2056
799.350281,2028
799.469238,2052
799.588257,2081
799.707153,2021
799.826111,2006
799.945129,2032
800.064087,1987
800.183044,1960
800.302063,2009
800.421021,1974
800.539978,1992
800.658936,1993
800.777893,1966
800.896912,1995
801.015747,1994
801.134705,1937
801.253723,1934
801.37262,1939
801.491638,1908
801.610535,1967
801.729492,1969
801.84845,1925
801.967407,1879
802.086243,1958
802.205261,1907
802.324158,1892
802.443115,1920
802.562073,1918
802.680969,1868
802.799927,1815
802.918762,1921
803.037659,1828
803.156677,1836
803.275574,1868
803.39447,1843
803.513428,1841
803.632263,1892
803.751221,1843
803.870117,1867
803.989014,1866
804.107971,1848
804.226746,1797
804.345642,1810
804.4646,1876
804.583496,1853
804.702393,1798
804.821228,1817
804.940125,1864
805.059021,1787
805.177917,1794
805.296814,1785
805.415649,1823
805.534546,1792
805.653442,1777
805.772278,1791
805.891113,1754
806.01001,1822
806.128906,1766
806.247742,1773
806.366577,1780
806.485413,1757
806.604309,1787
806.723145,1792
806.84198,1787
806.960876,1753
807.079712,1780
807.198486,1768
807.317383,1799
807.436218,1796
807.554993,1738
807.673889,1771
807.792725,1740
807.91156,1727
808.030396,1779
808.14917,1772
808.268005,1760
808.386841,1741
808.505676,1773
808.624451,1707
808.743286,1748
808.862122,1727
808.980896,1733
809.099731,1736
809.218506,1746
809.337341,1727
809.456116,1725
809.57489,1774
809.693726,1767
809.8125,1737
809.931274,1698
810.050049,1730
810.168884,1667
810.287659,1732
810.406372,1715
810.525269,1691
810.643982,1733
810.762756,1710
810.881531,1706
811.000305,1729
811.11908,1740
811.237854,1719
811.356567,1715
811.475403,1744
811.594116,1714
811.71283,1708
811.831604,1718
811.950378,1749
812.069153,1728
812.187927,1791
812.30658,1803
812.425415,1698
812.544128,1734
812.662781,1717
812.781616,1756
812.900269,1715
813.019043,1707
813.137756,1695
813.256531,1698
813.375244,1729
813.493896,1718
813.612671,1741
813.731384,1722
813.850037,1670
813.96875,1698
814.087524,1664
814.206238,1653
814.324951,1695
814.443604,1678
814.562256,1674
814.68103,1721
814.799683,1687
814.918335,1693
815.037109,1691
815.155762,1649
815.274475,1622
815.393188,1652
815.511841,1712
815.630554,1717
815.749146,1669
815.867859,1637
815.986572,1695
816.105164,1673
816.223877,1654
816.342529,1674
816.461182,1674
816.579895,1718
816.698486,1675
816.817139,1731
816.935791,1691
817.054504,1667
817.173096,1709
817.291748,1656
817.4104,1722
817.529053,1663
817.647644,1649
817.766235,1632
817.884949,1663
818.00354,1593
818.122192,1658
818.240845,1638
818.359436,1652
818.478088,1641
818.59668,1620
818.715271,1619
818.833923,1640
818.952515,1573
819.071106,1607
819.189758,1650
819.30835,1552
819.426941,1566
819.545532,1590
819.664124,1611
819.782715,1548
819.901306,1586
820.019897,1545
820.138489,1579
820.25708,1556
820.375671,1557
820.494202,1602
820.612732,1586
820.731384,1526
820.849915,1597
820.968506,1551
821.087097,1617
821.205627,1595
821.324158,1581
821.442749,1598
821.561279,1581
821.679871,1533
821.798401,1571
821.916931,1543
822.035461,1546
822.154053,1558
822.272583,1526
822.391174,1525
822.509583,1540
822.628174,1592
822.746704,1538
822.865234,1524
822.983765,1504
823.102295,1488
823.220825,1527
823.339294,1527
823.457825,1560
823.576355,1511
823.694824,1538
823.813354,1540
823.931885,1503
824.050354,1488
824.168884,1530
824.287354,1515
824.405823,1540
824.524353,1560
824.642822,1520
824.761353,1521
824.879822,1538
824.998291,1542
825.116699,1534
825.235291,1556
825.353699,1515
825.472168,1496
825.590637,1532
825.709106,1538
825.827576,1498
825.946045,1521
826.064453,1555
826.182983,1499
826.301392,1485
826.4198,1517
826.53833,1454
826.656738,1488
826.775208,1497
826.893677,1513
827.012024,1489
827.130493,1460
827.248962,1525
827.36731,1508
827.485779,1557
827.604248,1496
827.722595,1539
827.841064,1467
827.959412,1488
828.077942,1480
828.196289,1500
828.314636,1501
828.433105,1464
828.551514,1472
828.669861,1473
828.78833,1480
828.906677,1477
829.025085,1455
829.143433,1467
829.261841,1524
829.38031,1494
829.498657,1483
829.617004,1470
829.735413,1439
829.85376,1496
829.972107,1492
830.090515,1470
830.208862,1468
830.327209,1490
830.445557,1514
830.563904,1495
830.682312,1500
830.800659,1494
830.919006,1447
831.037354,1508
831.155701,1531
831.274048,1510
831.392395,1540
831.51062,1487
831.629028,1511
831.747314,1470
831.865662,1508
831.984009,1525
832.102356,1522
832.220642,1494
832.338928,1498
832.457275,1513
832.575623,1523
832.693909,1501
832.812134,1525
832.930481,1502
833.048828,1484
833.167114,1497
833.2854,1515
833.403687,1513
833.521973,1497
833.640259,1495
833.758545,1462
833.876831,1506
833.995056,1478
834.113281,1453
834.231628,1519
834.349915,1530
834.468201,1510
834.586426,1488
834.704651,1482
834.822998,1542
834.941162,1508
835.059448,1531
835.177673,1541
835.295959,1532
835.414246,1478
835.53241,1499
835.650635,1508
835.768921,1498
835.887146,1506
836.005371,1507
836.123596,1445
836.241821,1502
836.360046,1452
836.478271,1489
836.596497,1459
836.714722,1469
836.832886,1492
836.95105,1475
837.069336,1481
837.1875,1473
837.305725,1462
837.423889,1467
837.542053,1441
837.660339,1485
837.778503,1479
837.896667,1405
838.014832,1471
838.132996,1523
838.25116,1506
838.369385,1475
838.487488,1510
838.605713,1500
838.723877,1493
838.84198,1538
838.960205,1542
839.078308,1526
839.196472,1503
839.314636,1490
839.4328,1520
839.550964,1496
839.669067,1556
839.787231,1586
839.905396,1601
840.023499,1573
840.141602,1594
840.259766,1593
840.377869,1589
840.495972,1574
840.614136,1559
840.732239,1624
840.850342,1563
840.968445,1614
841.086548,1620
841.204651,1616
841.322754,1634
841.440918,1667
841.55896,1662
841.677002,1597
841.795166,1666
841.913208,1675
842.031311,1660
842.149353,1626
842.267456,1703
842.385498,1657
842.503601,1625
842.621643,1636
842.739746,1657
842.857788,1651
842.97583,1585
843.093933,1606
843.211975,1606
843.330017,1651
843.44812,1655
843.566101,1621
843.684204,1665
843.802246,1680
843.920227,1621
844.038269,1630
844.156311,1596
844.274292,1621
844.392395,1593
844.510376,1638
844.628357,1636
844.74646,1609
844.864441,1640
844.982422,1585
845.100403,1581
845.218384,1586
845.336426,1574
845.454468,1580
845.572449,1586
845.69043,1590
845.808411,1548
845.926453,1567
846.044373,1594
846.162354,1582
846.280396,1584
846.398315,1616
846.516296,1530
846.634216,1595
846.752197,1595
846.870178,1651
846.988098,1622
847.106079,1632
847.22406,1553
847.34198,1592
847.4599,1602
847.577881,1591
847.695801,1622
847.813782,1594
847.931641,1666
848.049561,1596
848.167603,1605
848.285461,1565
848.403381,1603
848.521362,1605
848.639221,1591
848.75708,1598
848.875,1638
848.99292,1609
849.110901,1641
849.22876,1606
849.34668,1613
849.464539,1628
849.582458,1610
849.700317,1630
849.818176,1622
849.936096,1602
850.053955,1583
850.171875,1621
850.289673,1576
850.407593,1557
850.525452,1562
850.643311,1602
850.761169,1610
850.878967,1598
850.996887,1598
851.114746,1545
851.232544,1608
851.350403,1590
851.468262,1576
851.58606,1584
851.703979,1633
851.821777,1603
851.939636,1583
852.057434,1591
852.175232,1611
852.293091,1608
852.410889,1645
852.528687,1670
852.646545,1682
852.764343,1680
852.88208,1687
852.999939,1662
853.117676,1658
853.235535,1597
853.353271,1561
853.471069,1586
853.588928,1557
853.706604,1583
853.824402,1555
853.9422,1591
854.059998,1586
854.177734,1596
854.295532,1605
854.413269,1643
854.531006,1618
854.648804,1637
854.766541,1639
854.884277,1637
855.002014,1648
855.119751,1612
855.237549,1642
855.355225,1635
855.473022,1589
855.590698,1607
855.708435,1620
855.826172,1579
855.943848,1608
856.061646,1627
856.179321,1622
856.296997,1640
856.414795,1650
856.53241,1633
856.650085,1640
856.767822,1658
856.885559,1700
857.003174,1648
857.120911,1658
857.238586,1658
857.356201,1690
857.473938,1653
857.591614,1682
857.709351,1640
857.826965,1661
857.944641,1668
858.062317,1634
858.179993,1639
858.297668,1668
858.415283,1687
858.532959,1648
858.650574,1641
858.768188,1692
858.885803,1678
859.003479,1655
859.121094,1592
859.23877,1571
859.356384,1626
859.473999,1646
859.591675,1562
859.709229,1626
859.826843,1616
859.944458,1612
860.062012,1573
860.179626,1612
860.297302,1580
860.414856,1559
860.532471,1560
860.650024,1585
860.767639,1549
860.885193,1510
861.002808,1639
861.120361,1551
861.237976,1607
861.35553,1607
861.473022,1602
861.590698,1599
861.708191,1587
861.825745,1564
861.943298,1559
862.060852,1560
862.178406,1568
862.295959,1522
862.413513,1570
862.531006,1511
862.64856,1500
862.766113,1529
862.883667,1487
863.00116,1505
863.118713,1497
863.236206,1486
863.353699,1504
863.471252,1536
863.588745,1554
863.706177,1571
863.82373,1544
863.941162,1525
864.058716,1564
864.176208,1522
864.29364,1541
864.411194,1495
864.528687,1527
864.646118,1522
864.763611,1524
864.881042,1536
864.998535,1482
865.116028,1542
865.233459,1484
865.350891,1497
865.468384,1540
865.585754,1513
865.703308,1437
865.820679,1523
865.938171,1513
866.055542,1503
866.173035,1495
866.290466,1514
866.407837,1473
866.52533,1507
866.6427,1497
866.760071,1501
866.877563,1529
866.994934,1546
867.112305,1527
867.229736,1518
867.347107,1526
867.464539,1516
867.58197,1575
867.699341,1530
867.81665,1525
867.934082,1531
868.051453,1540
868.168823,1554
868.286194,1532
868.403564,1492
868.520935,1521
868.638306,1533
868.755676,1598
868.872986,1508
868.990295,1578
869.107727,1571
869.225037,1522
869.342346,1584
869.459717,1553
869.577026,1540
869.694336,1583
869.811707,1578
869.929016,1607
870.046326,1589
870.163635,1601
870.280945,1632
870.398254,1619
870.515564,1656
870.632812,1598
870.750183,1639
870.867432,1664
870.984741,1673
871.102051,1696
871.219299,1674
871.336609,1639
871.453918,1648
871.571106,1701
871.688416,1690
871.805664,1680
871.922852,1666
872.040222,1695
872.157471,1744
872.274719,1701
872.391968,1721
872.509155,1697
872.626465,1696
872.743652,1695
872.860962,1658
872.978149,1616
873.095337,1657
873.212646,1635
873.329834,1669
873.44696,1673
873.564209,1609
873.681396,1637
873.798645,1669
873.915894,1671
874.03302,1643
874.150208,1646
874.267456,1679
874.384583,1669
874.501831,1707
874.618958,1721
874.736145,1682
874.853333,1755
874.970459,1724
875.087646,1736
875.204834,1715
875.32196,1667
875.439148,1652
875.556274,1637
875.673401,1643
875.790527,1663
875.907715,1610
876.024841,1604
876.141968,1635
876.259094,1558
876.376282,1610
876.493347,1610
876.610474,1559
876.7276,1635
876.844727,1620
876.961853,1612
877.078918,1585
877.195984,1579
877.313171,1581
877.430237,1618
877.547302,1608
877.664368,1620
877.781433,1627
877.898499,1575
878.015625,1603
878.13269,1576
878.249695,1570
878.366821,1596
878.483887,1589
878.600952,1559
878.717957,1525
878.834961,1556
878.952087,1502
879.069092,1589
879.186157,1536
879.303162,1522
879.420227,1503
879.537231,1525
879.654236,1477
879.77124,1542
879.888306,1505
880.005249,1484
880.122314,1460
880.239319,1469
880.356323,1490
880.473328,1459
880.590271,1508
880.707275,1526
880.824341,1468
880.941284,1489
881.058228,1489
881.175232,1491
881.292236,1441
881.40918,1484
881.526123,1479
881.643066,1501
881.760071,1469
881.877014,1460
881.993958,1479
882.11084,1470
882.227783,1481
882.344727,1514
882.46167,1483
882.578613,1465
882.695618,1446
882.812439,1495
882.929382,1483
883.046326,1506
883.163208,1499
883.280151,1482
883.397034,1493
883.513916,1477
883.630798,1501
883.747742,1559
883.864563,1503
883.981506,1511
884.098389,1514
884.21521,1515
884.332153,1548
884.448975,1560
884.565796,1594
884.682678,1601
884.7995,1668
884.916443,1707
885.033264,1749
885.150085,1837
885.266968,1823
885.383789,1864
885.500671,1923
885.617493,1873
885.734314,1846
885.851196,1890
885.967896,1871
886.084717,1896
886.201599,1862
886.318359,1839
886.435181,1840
886.552002,1874
886.668762,1806
886.785645,1834
886.902344,1789
887.019165,1759
887.135925,1762
887.252747,1744
887.369446,1756
887.486267,1694
887.603027,1706
887.719788,1639
887.836548,1649
887.953247,1579
888.070068,1599
888.186829,1613
888.303528,1582
888.420288,1549
888.536987,1531
888.653687,1501
888.770447,1495
888.887146,1426
889.003967,1500
889.120667,1454
889.237305,1473
889.354065,1439
889.470703,1428
889.587463,1433
889.704163,1450
889.820862,1477
889.937561,1463
890.054199,1441
890.170837,1469
890.287598,1403
890.404236,1449
890.520874,1446
890.637634,1392
890.754211,1433
890.87085,1440
890.987549,1455
891.104187,1464
891.220886,1444
891.337463,1487
891.454102,1478
891.57074,1427
891.687378,1497
891.804077,1484
891.920654,1448
892.037231,1468
892.15387,1470
892.270447,1456
892.387085,1461
892.503723,1445
892.6203,1490
892.736877,1448
892.853516,1462
892.970032,1443
893.08667,1417
893.203186,1433
893.319763,1462
893.43634,1417
893.552917,1469
893.669556,1439
893.786011,1456
893.902588,1448
894.019165,1413
894.135681,1470
894.252197,1438
894.368835,1456
894.485291,1444
894.601868,1411
894.718384,1453
894.8349,1426
894.951355,1391
895.067932,1441
895.184448,1429
895.300964,1501
895.417419,1416
895.533936,1455
895.650452,1413
895.766907,1403
895.883423,1425
895.999878,1430
896.116333,1366
896.232849,1448
896.349304,1401
896.465759,1454
896.582214,1474
896.698669,1446
896.815125,1462
896.931641,1421
897.048035,1450
897.164551,1447
897.280884,1437
897.397339,1423
897.513794,1419
897.630249,1398
897.746582,1405
897.863098,1405
897.979431,1474
898.095886,1466
898.212341,1454
898.328674,1450
898.445129,1448
898.561462,1447
898.677795,1450
898.794312,1482
898.910645,1433
899.026978,1422
899.143433,1451
899.259766,1492
899.37616,1495
899.492493,1454
899.608765,1446
899.725159,1486
899.841553,1461
899.957947,1465
900.07428,1438
900.190552,1407
900.306946,1451
900.423157,1490
900.53949,1435
900.655884,1422
900.772156,1481
900.888489,1483
901.004822,1450
901.121033,1457
901.237366,1476
901.353699,1480
901.46991,1511
901.586304,1506
901.702515,1556
901.818787,1600
901.93512,1555
902.051331,1551
902.167603,1591
902.283875,1621
902.400085,1649
902.516418,1657
902.632629,1630
902.74884,1718
902.865112,1699
902.981384,1719
903.097595,1669
903.213867,1665
903.330017,1704
903.446289,1628
903.5625,1638
903.67865,1600
903.794922,1643
903.911072,1592
904.027344,1564
904.143494,1586
904.259705,1591
904.375916,1550
904.492065,1523
904.608215,1499
904.724426,1517
904.840576,1530
904.956726,1462
905.072876,1456
905.189087,1449
905.305176,1462
905.421387,1472
905.537537,1501
905.653687,1472
905.769775,1449
905.885925,1500
906.002014,1458
906.118164,1429
906.234314,1397
906.350403,1411
906.466492,1433
906.582642,1413
906.69873,1408
906.814758,1436
906.930908,1445
907.046936,1420
907.163086,1421
907.279175,1401
907.395264,1440
907.511353,1428
907.62738,1404
907.743408,1415
907.859497,1406
907.975525,1430
908.091553,1432
908.207703,1426
908.32373,1460
908.439758,1431
908.555786,1448
908.671814,1408
908.787842,1403
908.90387,1449
909.019775,1437
909.135864,1441
909.251892,1455
909.367859,1424
909.483826,1455
909.599854,1460
909.715881,1414
909.831848,1459
909.947815,1433
910.063782,1412
910.179749,1448
910.295776,1437
910.411743,1426
910.527649,1452
910.643616,1435
910.759583,1419
910.875488,1454
910.991455,1421
911.107361,1413
911.223267,1423
911.339294,1474
911.4552,1446
911.571106,1437
911.687073,1448
911.802979,1385
911.918823,1444
912.034729,1432
912.150635,1416
912.266602,1390
912.382446,1395
912.498352,1401
912.614197,1423
912.730103,1384
912.846008,1417
792.44574,4056
792.56488,3931
792.68396,3799
792.80304,3711
792.92218,3614
793.041199,3521
793.160339,3407
793.279419,3445
793.398499,3367
793.517578,3218
793.636658,3177
793.755737,3182
793.874817,3091
793.993896,2965
794.112976,2944
794.232056,2946
794.351074,2865
794.470215,2872
794.589233,2818
794.708313,2832
794.827393,2755
794.946411,2713
795.065552,2744
795.18457,2672
795.303589,2638
795.422668,2619
795.541687,2587
795.660767,2537
795.779846,2522
795.898865,2465
796.017883,2455
796.136963,2418
796.255981,2403
796.375061,2429
796.49408,2386
796.613037,2336
796.732117,2310
796.851135,2322
796.970154,2325
797.089233,2245
797.208191,2294
797.327271,2268
797.446228,2188
797.565186,2242
797.684265,2191
797.803223,2212
797.922241,2202
798.04126,2193
798.160278,2167
798.279297,2144
798.398315,2155
798.517273,2120
798.636292,2137
798.75531,2110
798.874268,2102
798.993286,2116
799.112244,2105
799.231323,2126
799.350281,2060
799.469238,2099
799.588257,2093
799.707153,2047
799.826111,2056
799.945129,2032
800.064087,2033
800.183044,2060
800.302063,2002
800.421021,2010
800.539978,2048
800.658936,2027
800.777893,2050
800.896912,2036
801.015747,1982
801.134705,1995
801.253723,2014
801.37262,1965
801.491638,1969
801.610535,1903
801.729492,1960
801.84845,1897
801.967407,1952
802.086243,1929
802.205261,1948
802.324158,1919
802.443115,1905
802.562073,1878
802.680969,1958
802.799927,1918
802.918762,1915
803.037659,1831
803.156677,1889
803.275574,1877
803.39447,1893
803.513428,1857
803.632263,1857
803.751221,1857
803.870117,1859
803.989014,1818
804.107971,1795
804.226746,1837
804.345642,1822
804.4646,1892
804.583496,1828
804.702393,1832
804.821228,1812
804.940125,1808
805.059021,1812
805.177917,1800
805.296814,1805
805.415649,1840
805.534546,1854
805.653442,1819
805.772278,1834
805.891113,1790
806.01001,1840
806.128906,1823
806.247742,1790
806.366577,1809
806.485413,1787
806.604309,1799
806.723145,1779
806.84198,1840
806.960876,1764
807.079712,1839
807.198486,1761
807.317383,1788
807.436218,1781
807.554993,1823
807.673889,1788
807.792725,1808
807.91156,1809
808.030396,1806
808.14917,1702
808.268005,1728
808.386841,1750
808.505676,1770
808.624451,1756
808.743286,1730
808.862122,1715
808.980896,1775
809.099731,1749
809.218506,1789
809.337341,1756
809.456116,1735
809.57489,1726
809.693726,1713
809.8125,1751
809.931274,1759
810.050049,1736
810.168884,1734
810.287659,1687
810.406372,1784
810.525269,1751
810.643982,1765
810.762756,1726
810.881531,1760
811.000305,1736
811.11908,1756
811.237854,1745
811.356567,1764
811.475403,1786
811.594116,1755
811.71283,1771
811.831604,1755
811.950378,1706
812.069153,1768
812.187927,1803
812.30658,1772
812.425415,1761
812.544128,1750
812.662781,1754
812.781616,1753
812.900269,1757
813.019043,1771
813.137756,1693
813.256531,1750
813.375244,1734
813.493896,1733
813.612671,1755
813.731384,1746
813.850037,1688
813.96875,1704
814.087524,1717
814.206238,1721
814.324951,1652
814.443604,1709
814.562256,1678
814.68103,1720
814.799683,1712
814.918335,1698
815.037109,1700
815.155762,1689
815.274475,1763
815.393188,1698
815.511841,1691
815.630554,1666
815.749146,1686
815.867859,1709
815.986572,1641
816.105164,1732
816.223877,1696
816.342529,1753
816.461182,1729
816.579895,1699
816.698486,1706
816.817139,1743
816.935791,1698
817.054504,1675
817.173096,1735
817.291748,1731
817.4104,1672
817.529053,1722
817.647644,1674
817.766235,1679
817.884949,1687
818.00354,1675
818.122192,1686
818.240845,1647
818.359436,1686
818.478088,1654
818.59668,1636
818.715271,1635
818.833923,1645
818.952515,1650
819.071106,1612
819.189758,1679
819.30835,1635
819.426941,1579
819.545532,1586
819.664124,1629
819.782715,1612
819.901306,1601
820.019897,1626
820.138489,1638
820.25708,1607
820.375671,1614
820.494202,1568
820.612732,1588
820.731384,1644
820.849915,1609
820.968506,1565
821.087097,1635
821.205627,1596
821.324158,1576
821.442749,1552
821.561279,1558
821.679871,1555
821.798401,1529
821.916931,1576
822.035461,1573
822.154053,1526
822.272583,1587
822.391174,1565
822.509583,1545
822.628174,1534
822.746704,1510
822.865234,1553
822.983765,1551
823.102295,1495
823.220825,1496
823.339294,1524
823.457825,1521
823.576355,1507
823.694824,1523
823.813354,1534
823.931885,1527
824.050354,1530
824.168884,1538
824.287354,1524
824.405823,1495
824.524353,1533
824.642822,1559
824.761353,1544
824.879822,1518
824.998291,1562
825.116699,1517
825.235291,1588
825.353699,1524
825.472168,1567
825.590637,1527
825.709106,1547
825.827576,1515
825.946045,1511
826.064453,1550
826.182983,1538
826.301392,1505
826.4198,1520
826.53833,1516
826.656738,1493
826.775208,1533
826.893677,1484
827.012024,1501
827.130493,1547
827.248962,1517
827.36731,1509
827.485779,1542
827.604248,1508
827.722595,1532
827.841064,1483
827.959412,1517
828.077942,1491
828.196289,1500
828.314636,1499
828.433105,1504
828.551514,1510
828.669861,1493
828.78833,1502
828.906677,1445
829.025085,1570
829.143433,1481
829.261841,1479
829.38031,1467
829.498657,1495
829.617004,1495
829.735413,1488
829.85376,1503
829.972107,1496
830.090515,1480
830.208862,1478
830.327209,1470
830.445557,1399
830.563904,1474
830.682312,1472
830.800659,1534
830.919006,1546
831.037354,1557
831.155701,1509
831.274048,1530
831.392395,1576
831.51062,1526
831.629028,1531
831.747314,1479
831.865662,1513
831.984009,1520
832.102356,1512
832.220642,1514
832.338928,1530
832.457275,1546
832.575623,1602
832.693909,1465
832.812134,1579
832.930481,1476
833.048828,1520
833.167114,1506
833.2854,1498
833.403687,1521
833.521973,1513
833.640259,1478
833.758545,1485
833.876831,1500
833.995056,1518
834.113281,1515
834.231628,1509
834.349915,1515
834.468201,1534
834.586426,1517
834.704651,1508
834.822998,1499
834.941162,1530
835.059448,1487
835.177673,1532
835.295959,1511
835.414246,1492
835.53241,1520
835.650635,1544
835.768921,1470
835.887146,1513
836.005371,1502
836.123596,1486
836.241821,1470
836.360046,1515
836.478271,1473
836.596497,1467
836.714722,1446
836.832886,1501
836.95105,1466
837.069336,1485
837.1875,1449
837.305725,1454
837.423889,1499
837.542053,1512
837.660339,1534
837.778503,1512
837.896667,1459
838.014832,1477
838.132996,1516
838.25116,1465
838.369385,1509
838.487488,1542
838.605713,1544
838.723877,1502
838.84198,1516
838.960205,1541
839.078308,1539
839.196472,1527
839.314636,1527
839.4328,1575
839.550964,1545
839.669067,1541
839.787231,1580
839.905396,1511
840.023499,1626
840.141602,1626
840.259766,1594
840.377869,1571
840.495972,1632
840.614136,1590
840.732239,1626
840.850342,1632
840.968445,1579
841.086548,1624
841.204651,1649
841.322754,1672
841.440918,1642
841.55896,1645
841.677002,1656
841.795166,1681
841.913208,1685
842.031311,1659
842.149353,1701
842.267456,1663
842.385498,1651
842.503601,1645
842.621643,1640
842.739746,1636
842.857788,1614
842.97583,1657
843.093933,1651
843.211975,1610
843.330017,1636
843.44812,1669
843.566101,1659
843.684204,1653
843.802246,1630
843.920227,1605
844.038269,1696
844.156311,1613
844.274292,1615
844.392395,1620
844.510376,1577
844.628357,1600
844.74646,1609
844.864441,1557
844.982422,1618
845.100403,1588
845.218384,1563
845.336426,1576
845.454468,1613
845.572449,1529
845.69043,1614
845.808411,1592
845.926453,1601
846.044373,1598
846.162354,1602
846.280396,1573
846.398315,1581
846.516296,1599
846.634216,1644
846.752197,1614
846.870178,1641
846.988098,1636
847.106079,1639
847.22406,1607
847.34198,1632
847.4599,1627
847.577881,1631
847.695801,1616
847.813782,1610
847.931641,1612
848.049561,1630
848.167603,1591
848.285461,1603
848.403381,1577
848.521362,1592
848.639221,1577
848.75708,1626
848.875,1620
848.99292,1599
849.110901,1645
849.22876,1612
849.34668,1560
849.464539,1618
849.582458,1618
849.700317,1645
849.818176,1599
849.936096,1626
850.053955,1630
850.171875,1592
850.289673,1606
850.407593,1618
850.525452,1648
850.643311,1605
850.761169,1557
850.878967,1596
850.996887,1602
851.114746,1635
851.232544,1561
851.350403,1578
851.468262,1566
851.58606,1601
851.703979,1609
851.821777,1587
851.939636,1586
852.057434,1602
852.175232,1608
852.293091,1632
852.410889,1680
852.528687,1656
852.646545,1749
852.764343,1727
852.88208,1697
852.999939,1608
853.117676,1675
853.235535,1589
853.353271,1583
853.471069,1599
853.588928,1571
853.706604,1625
853.824402,1548
853.9422,1589
854.059998,1592
854.177734,1622
854.295532,1628
854.413269,1624
854.531006,1612
854.648804,1581
854.766541,1670
854.884277,1657
855.002014,1664
855.119751,1583
855.237549,1629
855.355225,1637
855.473022,1602
855.590698,1591
855.708435,1628
855.826172,1676
855.943848,1609
856.061646,1600
856.179321,1641
856.296997,1604
856.414795,1618
856.53241,1664
856.650085,1673
856.767822,1638
856.885559,1713
857.003174,1627
857.120911,1725
857.238586,1683
857.356201,1711
857.473938,1649
857.591614,1695
857.709351,1642
857.826965,1651
857.944641,1680
858.062317,1631
858.179993,1682
858.297668,1643
858.415283,1669
858.532959,1642
858.650574,1638
858.768188,1633
858.885803,1704
859.003479,1679
859.121094,1680
859.23877,1620
859.356384,1577
859.473999,1615
859.591675,1612
859.709229,1612
859.826843,1562
859.944458,1597
860.062012,1598
860.179626,1602
860.297302,1589
860.414856,1607
860.532471,1586
860.650024,1577
860.767639,1586
860.885193,1541
861.002808,1601
861.120361,1579
861.237976,1569
861.35553,1671
861.473022,1635
861.590698,1563
861.708191,1591
861.825745,1612
861.943298,1559
862.060852,1584
862.178406,1527
862.295959,1561
862.413513,1452
862.531006,1569
862.64856,1510
862.766113,1509
862.883667,1486
863.00116,1501
863.118713,1505
863.236206,1522
863.353699,1498
863.471252,1502
863.588745,1522
863.706177,1561
863.82373,1523
863.941162,1561
864.058716,1508
864.176208,1569
864.29364,1564
864.411194,1510
864.528687,1570
864.646118,1544
864.763611,1525
864.881042,1494
864.998535,1555
865.116028,1534
865.233459,1539
865.350891,1556
865.468384,1534
865.585754,1512
865.703308,1511
865.820679,1533
865.938171,1530
866.055542,1552
866.173035,1497
866.290466,1492
866.407837,1546
866.52533,1509
866.6427,1479
866.760071,1499
866.877563,1517
866.994934,1556
867.112305,1508
867.229736,1536
867.347107,1536
867.464539,1553
867.58197,1562
867.699341,1570
867.81665,1562
867.934082,1542
868.051453,1544
868.168823,1553
868.286194,1554
868.403564,1526
868.520935,1549
868.638306,1554
868.755676,1562
868.872986,1546
868.990295,1581
869.107727,1621
869.225037,1592
869.342346,1561
869.459717,1615
869.577026,1556
869.694336,1597
869.811707,1612
869.929016,1604
870.046326,1616
870.163635,1616
870.280945,1601
870.398254,1652
870.515564,1610
870.632812,1592
870.750183,1649
870.867432,1719
870.984741,1671
871.102051,1664
871.219299,1677
871.336609,1668
871.453918,1738
871.571106,1736
871.688416,1698
871.805664,1675
871.922852,1690
872.040222,1693
872.157471,1754
872.274719,1700
872.391968,1699
872.509155,1709
872.626465,1695
872.743652,1656
872.860962,1672
872.978149,1690
873.095337,1698
873.212646,1682
873.329834,1611
873.44696,1687
873.564209,1692
873.681396,1685
873.798645,1641
873.915894,1649
874.03302,1697
874.150208,1678
874.267456,1705
874.384583,1670
874.501831,1743
874.618958,1708
874.736145,1713
874.853333,1739
874.970459,1691
875.087646,1745
875.204834,1676
875.32196,1673
875.439148,1716
875.556274,1656
875.673401,1665
875.790527,1688
875.907715,1653
876.024841,1667
876.141968,1630
876.259094,1657
876.376282,1641
876.493347,1611
876.610474,1602
876.7276,1630
876.844727,1558
876.961853,1629
877.078918,1609
877.195984,1642
877.313171,1627
877.430237,1602
877.547302,1620
877.664368,1685
877.781433,1591
877.898499,1575
878.015625,1619
878.13269,1578
878.249695,1567
878.366821,1524
878.483887,1579
878.600952,1581
878.717957,1545
878.834961,1555
878.952087,1516
879.069092,1583
879.186157,1558
879.303162,1556
879.420227,1508
879.537231,1548
879.654236,1528
879.77124,1542
879.888306,1521
880.005249,1529
880.122314,1496
880.239319,1504
880.356323,1478
880.473328,1462
880.590271,1499
880.707275,1531
880.824341,1475
880.941284,1495
881.058228,1511
881.175232,1495
881.292236,1493
881.40918,1474
881.526123,1511
881.643066,1499
881.760071,1500
881.877014,1481
881.993958,1500
882.11084,1497
882.227783,1468
882.344727,1496
882.46167,1498
882.578613,1507
882.695618,1468
882.812439,1525
882.929382,1541
883.046326,1529
883.163208,1508
883.280151,1497
883.397034,1549
883.513916,1514
883.630798,1514
883.747742,1519
883.864563,1543
883.981506,1530
884.098389,1512
884.21521,1566
884.332153,1610
884.448975,1558
884.565796,1616
884.682678,1687
884.7995,1635
884.916443,1707
885.033264,1771
885.150085,1766
885.266968,1853
885.383789,1879
885.500671,1915
885.617493,1921
885.734314,1923
885.851196,1915
885.967896,1842
886.084717,1843
886.201599,1904
886.318359,1832
886.435181,1834
886.552002,1845
886.668762,1851
886.785645,1811
886.902344,1801
887.019165,1796
887.135925,1793
887.252747,1779
887.369446,1736
887.486267,1722
887.603027,1685
887.719788,1695
887.836548,1679
887.953247,1606
888.070068,1643
888.186829,1557
888.303528,1594
888.420288,1583
888.536987,1504
888.653687,1523
888.770447,1537
888.887146,1492
889.003967,1484
889.120667,1507
889.237305,1449
889.354065,1459
889.470703,1475
889.587463,1470
889.704163,1472
889.820862,1434
889.937561,1461
890.054199,1471
890.170837,1433
890.287598,1404
890.404236,1402
890.520874,1476
890.637634,1456
890.754211,1465
890.87085,1446
890.987549,1452
891.104187,1467
891.220886,1467
891.337463,1491
891.454102,1461
891.57074,1505
891.687378,1484
891.804077,1479
891.920654,1459
892.037231,1491
892.15387,1470
892.270447,1456
892.387085,1447
892.503723,1489
892.6203,1433
892.736877,1504
892.853516,1468
892.970032,1445
893.08667,1466
893.203186,1497
893.319763,1454
893.43634,1406
893.552917,1518
893.669556,1419
893.786011,1488
893.902588,1447
894.019165,1453
894.135681,1496
894.252197,1437
894.368835,1484
894.485291,1459
894.601868,1447
894.718384,1481
894.8349,1485
894.951355,1453
895.067932,1524
895.184448,1483
895.300964,1436
895.417419,1459
895.533936,1439
895.650452,1494
895.766907,1426
895.883423,1435
895.999878,1418
896.116333,1433
896.232849,1420
896.349304,1456
896.465759,1477
896.582214,1433
896.698669,1466
896.815125,1465
896.931641,1415
897.048035,1428
897.164551,1459
897.280884,1445
897.397339,1460
897.513794,1459
897.630249,1454
897.746582,1424
897.863098,1456
897.979431,1449
898.095886,1496
898.212341,1462
898.328674,1461
898.445129,1474
898.561462,1487
898.677795,1512
898.794312,1461
898.910645,1462
899.026978,1500
899.143433,1465
899.259766,1482
899.37616,1502
899.492493,1468
899.608765,1496
899.725159,1466
899.841553,1457
899.957947,1476
900.07428,1487
900.190552,1481
900.306946,1485
900.423157,1488
900.53949,1479
900.655884,1454
900.772156,1486
900.888489,1527
901.004822,1504
901.121033,1493
901.237366,1490
901.353699,1485
901.46991,1495
901.586304,1506
901.702515,1537
901.818787,1573
901.93512,1598
902.051331,1599
902.167603,1591
902.283875,1656
902.400085,1642
902.516418,1698
902.632629,1646
902.74884,1668
902.865112,1798
902.981384,1709
903.097595,1740
903.213867,1726
903.330017,1733
903.446289,1715
903.5625,1632
903.67865,1612
903.794922,1665
903.911072,1637
904.027344,1605
904.143494,1616
904.259705,1627
904.375916,1554
904.492065,1586
904.608215,1573
904.724426,1516
904.840576,1523
904.956726,1522
905.072876,1499
905.189087,1532
905.305176,1458
905.421387,1529
905.537537,1515
905.653687,1477
905.769775,1474
905.885925,1462
906.002014,1492
906.118164,1485
906.234314,1426
906.350403,1464
906.466492,1433
906.582642,1439
906.69873,1482
906.814758,1467
906.930908,1458
907.046936,1450
907.163086,1457
907.279175,1470
907.395264,1478
907.511353,1433
907.62738,1450
907.743408,1472
907.859497,1449
907.975525,1491
908.091553,1458
908.207703,1460
908.32373,1435
908.439758,1450
908.555786,1475
908.671814,1449
908.787842,1446
908.90387,1469
909.019775,1422
909.135864,1479
909.251892,1424
909.367859,1491
909.483826,1441
909.599854,1473
909.715881,1472
909.831848,1500
909.947815,1452
910.063782,1492
910.179749,1494
910.295776,1479
910.411743,1484
910.527649,1498
910.643616,1483
910.759583,1446
910.875488,1461
910.991455,1464
911.107361,1471
911.223267,1445
911.339294,1449
911.4552,1412
911.571106,1471
911.687073,1470
911.802979,1429
911.918823,1448
912.034729,1457
912.150635,1423
912.266602,1469
912.382446,1439
912.498352,1430
912.614197,1449
912.730103,1436
912.846008,1400
792.44574,4048
792.56488,3992
792.68396,3923
792.80304,3737
792.92218,3622
793.041199,3509
793.160339,3440
793.279419,3369
793.398499,3353
793.517578,3254
793.636658,3152
793.755737,3160
793.874817,3129
793.993896,3047
794.112976,2978
794.232056,2838
794.351074,2894
794.470215,2903
794.589233,2827
794.708313,2788
794.827393,2802
794.946411,2719
795.065552,2699
795.18457,2635
795.303589,2621
795.422668,2582
795.541687,2536
795.660767,2573
795.779846,2521
795.898865,2461
796.017883,2470
796.136963,2469
796.255981,2419
796.375061,2403
796.49408,2382
796.613037,2448
796.732117,2367
796.851135,2321
796.970154,2354
797.089233,2310
797.208191,2269
797.327271,2289
797.446228,2274
797.565186,2227
797.684265,2163
797.803223,2220
797.922241,2164
798.04126,2188
798.160278,2156
798.279297,2131
798.398315,2169
798.517273,2140
798.636292,2111
798.75531,2126
798.874268,2152
798.993286,2148
799.112244,2077
799.231323,2093
799.350281,2103
799.469238,2119
799.588257,2083
799.707153,2102
799.826111,2053
799.945129,2072
800.064087,2025
800.183044,2032
800.302063,2063
800.421021,2054
800.539978,2002
800.658936,2036
800.777893,2025
800.896912,2008
801.015747,1981
801.134705,1982
801.253723,1977
801.37262,2009
801.491638,1947
801.610535,1976
801.729492,1960
801.84845,1921
801.967407,1929
802.086243,1930
802.205261,1970
802.324158,1921
802.443115,1920
802.562073,1908
802.680969,1902
802.799927,1894
802.918762,1943
803.037659,1897
803.156677,1896
803.275574,1906
803.39447,1862
803.513428,1864
803.632263,1898
803.751221,1860
803.870117,1897
803.989014,1837
804.107971,1833
804.226746,1841
804.345642,1834
804.4646,1857
804.583496,1773
804.702393,1818
804.821228,1846
804.940125,1829
805.059021,1816
805.177917,1831
805.296814,1802
805.415649,1771
805.534546,1816
805.653442,1808
805.772278,1818
805.891113,1833
806.01001,1895
806.128906,1813
806.247742,1789
806.366577,1829
806.485413,1816
806.604309,1792
806.723145,1771
806.84198,1813
806.960876,1806
807.079712,1811
807.198486,1847
807.317383,1785
807.436218,1790
807.554993,1747
807.673889,1785
807.792725,1837
807.91156,1791
808.030396,1787
808.14917,1752
808.268005,1742
808.386841,1769
808.505676,1732
808.624451,1757
808.743286,1831
808.862122,1751
808.980896,1744
809.099731,1777
809.218506,1791
809.337341,1709
809.456116,1733
809.57489,1761
809.693726,1758
809.8125,1747
809.931274,1742
810.050049,1758
810.168884,1756
810.287659,1790
810.406372,1722
810.525269,1722
810.643982,1690
810.762756,1753
810.881531,1754
811.000305,1722
811.11908,1719
811.237854,1778
811.356567,1783
811.475403,1782
811.594116,1740
811.71283,1745
811.831604,1741
811.950378,1746
812.069153,1746
812.187927,1747
812.30658,1801
812.425415,1791
812.544128,1766
812.662781,1781
812.781616,1782
812.900269,1790
813.019043,1765
813.137756,1730
813.256531,1758
813.375244,1723
813.493896,1731
813.612671,1740
813.731384,1760
813.850037,1752
813.96875,1736
814.087524,1686
814.206238,1740
814.324951,1652
814.443604,1701
814.562256,1699
814.68103,1724
814.799683,1694
814.918335,1701
815.037109,1643
815.155762,1681
815.274475,1717
815.393188,1734
815.511841,1678
815.630554,1729
815.749146,1747
815.867859,1641
815.986572,1669
816.105164,1690
816.223877,1688
816.342529,1678
816.461182,1713
816.579895,1727
816.698486,1744
816.817139,1706
816.935791,1727
817.054504,1724
817.173096,1743
817.291748,1715
817.4104,1690
817.529053,1761
817.647644,1700
817.766235,1704
817.884949,1657
818.00354,1681
818.122192,1701
818.240845,1657
818.359436,1650
818.478088,1709
818.59668,1652
818.715271,1621
818.833923,1663
818.952515,1576
819.071106,1632
819.189758,1643
819.30835,1598
819.426941,1580
819.545532,1589
819.664124,1582
819.782715,1607
819.901306,1597
820.019897,1612
820.138489,1565
820.25708,1588
820.375671,1599
820.494202,1584
820.612732,1606
820.731384,1594
820.849915,1583
820.968506,1572
821.087097,1581
821.205627,1576
821.324158,1555
821.442749,1591
821.561279,1537
821.679871,1588
821.798401,1563
821.916931,1566
822.035461,1595
822.154053,1623
822.272583,1560
822.391174,1543
822.509583,1574
822.628174,1511
822.746704,1541
822.865234,1508
822.983765,1520
823.102295,1528
823.220825,1522
823.339294,1573
823.457825,1547
823.576355,1515
823.694824,1530
823.813354,1554
823.931885,1560
824.050354,1538
824.168884,1580
824.287354,1571
824.405823,1542
824.524353,1534
824.642822,1562
824.761353,1528
824.879822,1593
824.998291,1553
825.116699,1557
825.235291,1580
825.353699,1554
825.472168,1544
825.590637,1531
825.709106,1518
825.827576,1545
825.946045,1529
826.064453,1568
826.182983,1533
826.301392,1505
826.4198,1550
826.53833,1573
826.656738,1515
826.775208,1511
826.893677,1529
827.012024,1528
827.130493,1541
827.248962,1502
827.36731,1564
827.485779,1533
827.604248,1510
827.722595,1534
827.841064,1524
827.959412,1486
828.077942,1514
828.196289,1480
828.314636,1502
828.433105,1498
828.551514,1537
828.669861,1493
828.78833,1468
828.906677,1465
829.025085,1475
829.143433,1507
829.261841,1529
829.38031,1495
829.498657,1471
829.617004,1507
829.735413,1478
829.85376,1476
829.972107,1513
830.090515,1498
830.208862,1465
830.327209,1504
830.445557,1452
830.563904,1507
830.682312,1504
830.800659,1488
830.919006,1529
831.037354,1534
831.155701,1540
831.274048,1521
831.392395,1541
831.51062,1561
831.629028,1503
831.747314,1544
831.865662,1485
831.984009,1542
832.102356,1544
832.220642,1547
832.338928,1539
832.457275,1553
832.575623,1519
832.693909,1578
832.812134,1545
832.930481,1548
833.048828,1525
833.167114,1506
833.2854,1517
833.403687,1513
833.521973,1508
833.640259,1474
833.758545,1510
833.876831,1494
833.995056,1511
834.113281,1489
834.231628,1474
834.349915,1530
834.468201,1498
834.586426,1532
834.704651,1527
834.822998,1487
834.941162,1477
835.059448,1547
835.177673,1602
835.295959,1525
835.414246,1519
835.53241,1504
835.650635,1504
835.768921,1500
835.887146,1468
836.005371,1520
836.123596,1531
836.241821,1452
836.360046,1468
836.478271,1522
836.596497,1502
836.714722,1462
836.832886,1530
836.95105,1459
837.069336,1502
837.1875,1454
837.305725,1443
837.423889,1469
837.542053,1480
837.660339,1443
837.778503,1495
837.896667,1519
838.014832,1488
838.132996,1489
838.25116,1510
838.369385,1482
838.487488,1529
838.605713,1548
838.723877,1524
838.84198,1485
838.960205,1515
839.078308,1514
839.196472,1555
839.314636,1547
839.4328,1568
839.550964,1575
839.669067,1566
839.787231,1582
839.905396,1547
840.023499,1624
840.141602,1593
840.259766,1623
840.377869,1604
840.495972,1621
840.614136,1626
840.732239,1605
840.850342,1597
840.968445,1612
841.086548,1629
841.204651,1656
841.322754,1652
841.440918,1614
841.55896,1694
841.677002,1698
841.795166,1682
841.913208,1720
842.031311,1624
842.149353,1686
842.267456,1716
842.385498,1615
842.503601,1602
842.621643,1655
842.739746,1637
842.857788,1634
842.97583,1628
843.093933,1647
843.211975,1669
843.330017,1651
843.44812,1640
843.566101,1626
843.684204,1648
843.802246,1642
843.920227,1617
844.038269,1681
844.156311,1605
844.274292,1643
844.392395,1616
844.510376,1598
844.628357,1597
844.74646,1620
844.864441,1610
844.982422,1593
845.100403,1621
845.218384,1613
845.336426,1534
845.454468,1589
845.572449,1538
845.69043,1604
845.808411,1566
845.926453,1596
846.044373,1553
846.162354,1605
846.280396,1581
846.398315,1603
846.516296,1624
846.634216,1563
846.752197,1613
846.870178,1597
846.988098,1605
847.106079,1615
847.22406,1611
847.34198,1650
847.4599,1594
847.577881,1603
847.695801,1605
847.813782,1618
847.931641,1603
848.049561,1674
848.167603,1569
848.285461,1625
848.403381,1593
848.521362,1620
848.639221,1555
848.75708,1618
848.875,1579
848.99292,1643
849.110901,1607
849.22876,1609
849.34668,1635
849.464539,1605
849.582458,1622
849.700317,1591
849.818176,1627
849.936096,1591
850.053955,1610
850.171875,1600
850.289673,1622
850.407593,1616
850.525452,1603
850.643311,1649
850.761169,1581
850.878967,1603
850.996887,1598
851.114746,1561
851.232544,1626
851.350403,1612
851.468262,1602
851.58606,1621
851.703979,1614
851.821777,1607
851.939636,1605
852.057434,1594
852.175232,1597
852.293091,1620
852.410889,1684
852.528687,1708
852.646545,1683
852.764343,1719
852.88208,1695
852.999939,1747
853.117676,1664
853.235535,1631
853.353271,1571
853.471069,1610
853.588928,1591
853.706604,1577
853.824402,1576
853.9422,1536
854.059998,1588
854.177734,1629
854.295532,1582
854.413269,1663
854.531006,1611
854.648804,1636
854.766541,1645
854.884277,1617
855.002014,1629
855.119751,1627
855.237549,1636
855.355225,1706
855.473022,1590
855.590698,1650
855.708435,1649
855.826172,1624
855.943848,1582
856.061646,1611
856.179321,1667
856.296997,1620
856.414795,1678
856.53241,1645
856.650085,1634
856.767822,1672
856.885559,1697
857.003174,1672
857.120911,1710
857.238586,1690
857.356201,1633
857.473938,1654
857.591614,1691
857.709351,1696
857.826965,1688
857.944641,1632
858.062317,1699
858.179993,1675
858.297668,1693
858.415283,1661
858.532959,1703
858.650574,1622
858.768188,1664
858.885803,1695
859.003479,1631
859.121094,1650
859.23877,1632
859.356384,1644
859.473999,1627
859.591675,1592
859.709229,1640
859.826843,1593
859.944458,1571
860.062012,1611
860.179626,1585
860.297302,1567
860.414856,1609
860.532471,1616
860.650024,1544
860.767639,1551
860.885193,1595
861.002808,1555
861.120361,1617
861.237976,1574
861.35553,1568
861.473022,1602
861.590698,1614
861.708191,1611
861.825745,1557
861.943298,1607
862.060852,1613
862.178406,1530
862.295959,1538
862.413513,1516
862.531006,1535
862.64856,1535
862.766113,1503
862.883667,1522
863.00116,1480
863.118713,1525
863.236206,1491
863.353699,1527
863.471252,1505
863.588745,1562
863.706177,1572
863.82373,1543
863.941162,1619
864.058716,1562
864.176208,1558
864.29364,1534
864.411194,1558
864.528687,1480
864.646118,1537
864.763611,1502
864.881042,1525
864.998535,1532
865.116028,1509
865.233459,1525
865.350891,1535
865.468384,1545
865.585754,1555
865.703308,1517
865.820679,1529
865.938171,1505
866.055542,1557
866.173035,1517
866.290466,1515
866.407837,1510
866.52533,1545
866.6427,1530
866.760071,1496
866.877563,1532
866.994934,1553
867.112305,1566
867.229736,1497
867.347107,1528
867.464539,1540
867.58197,1580
867.699341,1562
867.81665,1525
867.934082,1558
868.051453,1568
868.168823,1558
868.286194,1539
868.403564,1550
868.520935,1605
868.638306,1580
868.755676,1541
868.872986,1580
868.990295,1593
869.107727,1596
869.225037,1605
869.342346,1547
869.459717,1625
869.577026,1582
869.694336,1602
869.811707,1614
869.929016,1615
870.046326,1645
870.163635,1630
870.280945,1634
870.398254,1625
870.515564,1698
870.632812,1628
870.750183,1697
870.867432,1645
870.984741,1669
871.102051,1686
871.219299,1683
871.336609,1709
871.453918,1688
871.571106,1716
871.688416,1702
871.805664,1703
871.922852,1689
872.040222,1708
872.157471,1705
872.274719,1690
872.391968,1731
872.509155,1731
872.626465,1680
872.743652,1739
872.860962,1666
872.978149,1634
873.095337,1706
873.212646,1710
873.329834,1681
873.44696,1658
873.564209,1645
873.681396,1665
873.798645,1651
873.915894,1658
874.03302,1644
874.150208,1680
874.267456,1711
874.384583,1671
874.501831,1712
874.618958,1677
874.736145,1752
874.853333,1743
874.970459,1739
875.087646,1742
875.204834,1655
875.32196,1724
875.439148,1692
875.556274,1661
875.673401,1714
875.790527,1650
875.907715,1621
876.024841,1652
876.141968,1647
876.259094,1679
876.376282,1625
876.493347,1649
876.610474,1625
876.7276,1645
876.844727,1640
876.961853,1605
877.078918,1633
877.195984,1610
877.313171,1667
877.430237,1607
877.547302,1598
877.664368,1630
877.781433,1543
877.898499,1620
878.015625,1602
878.13269,1564
878.249695,1576
878.366821,1554
878.483887,1615
878.600952,1576
878.717957,1565
878.834961,1589
878.952087,1578
879.069092,1541
879.186157,1596
879.303162,1558
879.420227,1545
879.537231,1549
879.654236,1529
879.77124,1558
879.888306,1527
880.005249,1515
880.122314,1531
880.239319,1559
880.356323,1484
880.473328,1522
880.590271,1507
880.707275,1478
880.824341,1461
880.941284,1489
881.058228,1506
881.175232,1490
881.292236,1504
881.40918,1506
881.526123,1486
881.643066,1494
881.760071,1532
881.877014,1510
881.993958,1512
882.11084,1513
882.227783,1508
882.344727,1503
882.46167,1465
882.578613,1505
882.695618,1508
882.812439,1489
882.929382,1517
883.046326,1496
883.163208,1502
883.280151,1494
883.397034,1513
883.513916,1506
883.630798,1518
883.747742,1553
883.864563,1566
883.981506,1559
884.098389,1573
884.21521,1596
884.332153,1578
884.448975,1581
884.565796,1638
884.682678,1647
884.7995,1712
884.916443,1708
885.033264,1710
885.150085,1823
885.266968,1884
885.383789,1889
885.500671,1927
885.617493,1909
885.734314,1920
885.851196,1892
885.967896,1880
886.084717,1900
886.201599,1884
886.318359,1889
886.435181,1895
886.552002,1854
886.668762,1868
886.785645,1801
886.902344,1791
887.019165,1783
887.135925,1788
887.252747,1817
887.369446,1798
887.486267,1739
887.603027,1723
887.719788,1700
887.836548,1711
887.953247,1598
888.070068,1615
888.186829,1620
888.303528,1567
888.420288,1580
888.536987,1527
888.653687,1550
888.770447,1530
888.887146,1453
889.003967,1494
889.120667,1470
889.237305,1476
889.354065,1486
889.470703,1458
889.587463,1458
889.704163,1471
889.820862,1464
889.937561,1491
890.054199,1460
890.170837,1450
890.287598,1434
890.404236,1443
890.520874,1434
890.637634,1441
890.754211,1489
890.87085,1486
890.987549,1457
891.104187,1489
891.220886,1444
891.337463,1440
891.454102,1480
891.57074,1490
891.687378,1508
891.804077,1462
891.920654,1501
892.037231,1461
892.15387,1465
892.270447,1422
892.387085,1495
892.503723,1516
892.6203,1456
892.736877,1472
892.853516,1467
892.970032,1481
893.08667,1467
893.203186,1418
893.319763,1477
893.43634,1509
893.552917,1425
893.669556,1509
893.786011,1431
893.902588,1486
894.019165,1434
894.135681,1451
894.252197,1476
894.368835,1532
894.485291,1470
894.601868,1483
894.718384,1468
894.8349,1468
894.951355,1471
895.067932,1458
895.184448,1459
895.300964,1459
895.417419,1463
895.533936,1473
895.650452,1451
895.766907,1440
895.883423,1446
895.999878,1471
896.116333,1445
896.232849,1445
896.349304,1454
896.465759,1452
896.582214,1459
896.698669,1480
896.815125,1436
896.931641,1477
897.048035,1453
897.164551,1460
897.280884,1443
897.397339,1463
897.513794,1475
897.630249,1466
897.746582,1466
897.863098,1443
897.979431,1477
898.095886,1471
898.212341,1460
898.328674,1463
898.445129,1503
898.561462,1515
898.677795,1477
898.794312,1513
898.910645,1498
899.026978,1470
899.143433,1510
899.259766,1510
899.37616,1483
899.492493,1488
899.608765,1520
899.725159,1485
899.841553,1470
899.957947,1495
900.07428,1452
900.190552,1509
900.306946,1462
900.423157,1538
900.53949,1526
900.655884,1488
900.772156,1506
900.888489,1499
901.004822,1537
901.121033,1493
901.237366,1523
901.353699,1510
901.46991,1454
901.586304,1516
901.702515,1564
901.818787,1657
901.93512,1600
902.051331,1600
902.167603,1625
902.283875,1640
902.400085,1670
902.516418,1713
902.632629,1689
902.74884,1710
902.865112,1749
902.981384,1728
903.097595,1732
903.213867,1699
903.330017,1725
903.446289,1670
903.5625,1671
903.67865,1625
903.794922,1644
903.911072,1660
904.027344,1615
904.143494,1597
904.259705,1618
904.375916,1624
904.492065,1601
904.608215,1587
904.724426,1554
904.840576,1574
904.956726,1571
905.072876,1525
905.189087,1516
905.305176,1505
905.421387,1483
905.537537,1497
905.653687,1512
905.769775,1459
905.885925,1519
906.002014,1526
906.118164,1491
906.234314,1468
906.350403,1462
906.466492,1549
906.582642,1486
906.69873,1456
906.814758,1463
906.930908,1475
907.046936,1482
907.163086,1481
907.279175,1494
907.395264,1417
907.511353,1504
907.62738,1445
907.743408,1486
907.859497,1453
907.975525,1456
908.091553,1415
908.207703,1465
908.32373,1446
908.439758,1447
908.555786,1474
908.671814,1493
908.787842,1472
908.90387,1504
909.019775,1457
909.135864,1464
909.251892,1460
909.367859,1483
909.483826,1480
909.599854,1489
909.715881,1451
909.831848,1491
909.947815,1496
910.063782,1443
910.179749,1465
910.295776,1475
910.411743,1510
910.527649,1495
910.643616,1480
910.759583,1470
910.875488,1481
910.991455,1455
911.107361,1520
911.223267,1502
911.339294,1455
911.4552,1465
911.571106,1509
911.687073,1484
911.802979,1473
911.918823,1466
912.034729,1450
912.150635,1485
912.266602,1472
912.382446,1467
912.498352,1448
912.614197,1437
912.730103,1467
912.846008,1473
