792.44574,2387
792.56488,2351
792.68396,2358
792.80304,2262
792.92218,2161
793.041199,2236
793.160339,2191
793.279419,2128
793.398499,2150
793.517578,2107
793.636658,2079
793.755737,2117
793.874817,2001
793.993896,2068
794.112976,2026
794.232056,1995
794.351074,1946
794.470215,2019
794.589233,1970
794.708313,1943
794.827393,1912
794.946411,1910
795.065552,1896
795.18457,1857
795.303589,1893
795.422668,1824
795.541687,1850
795.660767,1867
795.779846,1827
795.898865,1830
796.017883,1807
796.136963,1821
796.255981,1760
796.375061,1809
796.49408,1823
796.613037,1779
796.732117,1762
796.851135,1771
796.970154,1747
797.089233,1797
797.208191,1741
797.327271,1738
797.446228,1711
797.565186,1745
797.684265,1691
797.803223,1724
797.922241,1681
798.04126,1685
798.160278,1729
798.279297,1701
798.398315,1686
798.517273,1669
798.636292,1686
798.75531,1703
798.874268,1683
798.993286,1686
799.112244,1704
799.231323,1688
799.350281,1655
799.469238,1676
799.588257,1631
799.707153,1692
799.826111,1695
799.945129,1645
800.064087,1639
800.183044,1671
800.302063,1647
800.421021,1644
800.539978,1580
800.658936,1646
800.777893,1594
800.896912,1641
801.015747,1617
801.134705,1667
801.253723,1621
801.37262,1634
801.491638,1631
801.610535,1609
801.729492,1632
801.84845,1581
801.967407,1602
802.086243,1584
802.205261,1616
802.324158,1593
802.443115,1637
802.562073,1596
802.680969,1630
802.799927,1584
802.918762,1616
803.037659,1641
803.156677,1618
803.275574,1617
803.39447,1562
803.513428,1606
803.632263,1570
803.751221,1599
803.870117,1583
803.989014,1576
804.107971,1609
804.226746,1608
804.345642,1595
804.4646,1596
804.583496,1614
804.702393,1590
804.821228,1561
804.940125,1545
805.059021,1579
805.177917,1507
805.296814,1563
805.415649,1549
805.534546,1586
805.653442,1572
805.772278,1572
805.891113,1630
806.01001,1604
806.128906,1585
806.247742,1553
806.366577,1551
806.485413,1568
806.604309,1608
806.723145,1558
806.84198,1543
806.960876,1561
807.079712,1574
807.198486,1542
807.317383,1569
807.436218,1539
807.554993,1514
807.673889,1523
807.792725,1558
807.91156,1546
808.030396,1570
808.14917,1550
808.268005,1578
808.386841,1541
808.505676,1571
808.624451,1535
808.743286,1522
808.862122,1530
808.980896,1517
809.099731,1541
809.218506,1564
809.337341,1518
809.456116,1528
809.57489,1561
809.693726,1491
809.8125,1514
809.931274,1539
810.050049,1488
810.168884,1571
810.287659,1504
810.406372,1527
810.525269,1492
810.643982,1546
810.762756,1534
810.881531,1553
811.000305,1534
811.11908,1538
811.237854,1530
811.356567,1537
811.475403,1508
811.594116,1537
811.71283,1533
811.831604,1522
811.950378,1537
812.069153,1561
812.187927,1512
812.30658,1537
812.425415,1492
812.544128,1544
812.662781,1566
812.781616,1552
812.900269,1530
813.019043,1494
813.137756,1523
813.256531,1507
813.375244,1519
813.493896,1546
813.612671,1526
813.731384,1527
813.850037,1512
813.96875,1522
814.087524,1490
814.206238,1525
814.324951,1506
814.443604,1501
814.562256,1529
814.68103,1525
814.799683,1512
814.918335,1502
815.037109,1480
815.155762,1487
815.274475,1507
815.393188,1462
815.511841,1539
815.630554,1482
815.749146,1527
815.867859,1500
815.986572,1478
816.105164,1508
816.223877,1474
816.342529,1509
816.461182,1489
816.579895,1503
816.698486,1495
816.817139,1515
816.935791,1505
817.054504,1525
817.173096,1489
817.291748,1480
817.4104,1547
817.529053,1486
817.647644,1529
817.766235,1470
817.884949,1499
818.00354,1461
818.122192,1452
818.240845,1482
818.359436,1433
818.478088,1433
818.59668,1434
818.715271,1431
818.833923,1460
818.952515,1451
819.071106,1427
819.189758,1416
819.30835,1428
819.426941,1408
819.545532,1430
819.664124,1441
819.782715,1389
819.901306,1442
820.019897,1483
820.138489,1415
820.25708,1431
820.375671,1454
820.494202,1444
820.612732,1443
820.731384,1420
820.849915,1418
820.968506,1398
821.087097,1438
821.205627,1421
821.324158,1406
821.442749,1388
821.561279,1431
821.679871,1398
821.798401,1409
821.916931,1412
822.035461,1407
822.154053,1435
822.272583,1367
822.391174,1413
822.509583,1429
822.628174,1393
822.746704,1405
822.865234,1404
822.983765,1387
823.102295,1437
823.220825,1379
823.339294,1378
823.457825,1395
823.576355,1377
823.694824,1429
823.813354,1407
823.931885,1421
824.050354,1384
824.168884,1410
824.287354,1396
824.405823,1380
824.524353,1423
824.642822,1420
824.761353,1407
824.879822,1395
824.998291,1384
825.116699,1376
825.235291,1410
825.353699,1392
825.472168,1393
825.590637,1407
825.709106,1344
825.827576,1390
825.946045,1371
826.064453,1369
826.182983,1401
826.301392,1374
826.4198,1377
826.53833,1384
826.656738,1365
826.775208,1394
826.893677,1345
827.012024,1380
827.130493,1381
827.248962,1392
827.36731,1368
827.485779,1347
827.604248,1387
827.722595,1383
827.841064,1377
827.959412,1360
828.077942,1328
828.196289,1345
828.314636,1353
828.433105,1379
828.551514,1371
828.669861,1342
828.78833,1354
828.906677,1332
829.025085,1339
829.143433,1389
829.261841,1375
829.38031,1374
829.498657,1342
829.617004,1394
829.735413,1413
829.85376,1370
829.972107,1387
830.090515,1356
830.208862,1356
830.327209,1352
830.445557,1373
830.563904,1324
830.682312,1380
830.800659,1335
830.919006,1353
831.037354,1354
831.155701,1357
831.274048,1364
831.392395,1344
831.51062,1383
831.629028,1341
831.747314,1306
831.865662,1372
831.984009,1375
832.102356,1375
832.220642,1364
832.338928,1385
832.457275,1340
832.575623,1391
832.693909,1356
832.812134,1352
832.930481,1361
833.048828,1362
833.167114,1354
833.2854,1346
833.403687,1387
833.521973,1352
833.640259,1363
833.758545,1413
833.876831,1374
833.995056,1396
834.113281,1384
834.231628,1413
834.349915,1340
834.468201,1377
834.586426,1336
834.704651,1347
834.822998,1357
834.941162,1348
835.059448,1327
835.177673,1365
835.295959,1335
835.414246,1381
835.53241,1342
835.650635,1347
835.768921,1344
835.887146,1351
836.005371,1369
836.123596,1357
836.241821,1377
836.360046,1322
836.478271,1359
836.596497,1372
836.714722,1310
836.832886,1371
836.95105,1382
837.069336,1337
837.1875,1373
837.305725,1349
837.423889,1318
837.542053,1304
837.660339,1312
837.778503,1388
837.896667,1385
838.014832,1352
838.132996,1318
838.25116,1376
838.369385,1369
838.487488,1381
838.605713,1341
838.723877,1377
838.84198,1386
838.960205,1376
839.078308,1364
839.196472,1365
839.314636,1406
839.4328,1349
839.550964,1370
839.669067,1336
839.787231,1383
839.905396,1343
840.023499,1384
840.141602,1369
840.259766,1366
840.377869,1388
840.495972,1338
840.614136,1410
840.732239,1409
840.850342,1402
840.968445,1404
841.086548,1406
841.204651,1421
841.322754,1393
841.440918,1387
841.55896,1413
841.677002,1403
841.795166,1418
841.913208,1416
842.031311,1375
842.149353,1381
842.267456,1431
842.385498,1379
842.503601,1335
842.621643,1391
842.739746,1374
842.857788,1392
842.97583,1384
843.093933,1358
843.211975,1401
843.330017,1402
843.44812,1390
843.566101,1370
843.684204,1370
843.802246,1381
843.920227,1356
844.038269,1374
844.156311,1370
844.274292,1391
844.392395,1409
844.510376,1409
844.628357,1347
844.74646,1365
844.864441,1388
844.982422,1349
845.100403,1410
845.218384,1378
845.336426,1369
845.454468,1396
845.572449,1413
845.69043,1390
845.808411,1406
845.926453,1327
846.044373,1336
846.162354,1400
846.280396,1336
846.398315,1362
846.516296,1331
846.634216,1375
846.752197,1387
846.870178,1393
846.988098,1362
847.106079,1386
847.22406,1388
847.34198,1415
847.4599,1406
847.577881,1392
847.695801,1351
847.813782,1382
847.931641,1345
848.049561,1343
848.167603,1364
848.285461,1335
848.403381,1390
848.521362,1406
848.639221,1322
848.75708,1376
848.875,1413
848.99292,1393
849.110901,1372
849.22876,1358
849.34668,1387
849.464539,1349
849.582458,1398
849.700317,1403
849.818176,1362
849.936096,1367
850.053955,1360
850.171875,1370
850.289673,1375
850.407593,1367
850.525452,1358
850.643311,1383
850.761169,1406
850.878967,1346
850.996887,1345
851.114746,1328
851.232544,1394
851.350403,1345
851.468262,1355
851.58606,1403
851.703979,1367
851.821777,1362
851.939636,1333
852.057434,1408
852.175232,1343
852.293091,1393
852.410889,1341
852.528687,1374
852.646545,1415
852.764343,1397
852.88208,1388
852.999939,1402
853.117676,1409
853.235535,1348
853.353271,1370
853.471069,1343
853.588928,1350
853.706604,1397
853.824402,1367
853.9422,1357
854.059998,1364
854.177734,1372
854.295532,1355
854.413269,1381
854.531006,1382
854.648804,1387
854.766541,1399
854.884277,1365
855.002014,1416
855.119751,1379
855.237549,1335
855.355225,1368
855.473022,1377
855.590698,1351
855.708435,1414
855.826172,1343
855.943848,1385
856.061646,1375
856.179321,1385
856.296997,1431
856.414795,1414
856.53241,1361
856.650085,1401
856.767822,1376
856.885559,1416
857.003174,1410
857.120911,1443
857.238586,1408
857.356201,1459
857.473938,1380
857.591614,1400
857.709351,1361
857.826965,1447
857.944641,1391
858.062317,1383
858.179993,1416
858.297668,1372
858.415283,1359
858.532959,1405
858.650574,1414
858.768188,1436
858.885803,1387
859.003479,1392
859.121094,1387
859.23877,1382
859.356384,1408
859.473999,1354
859.591675,1395
859.709229,1408
859.826843,1393
859.944458,1366
860.062012,1355
860.179626,1411
860.297302,1398
860.414856,1357
860.532471,1379
860.650024,1360
860.767639,1352
860.885193,1386
861.002808,1363
861.120361,1353
861.237976,1382
861.35553,1371
861.473022,1364
861.590698,1327
861.708191,1358
861.825745,1368
861.943298,1354
862.060852,1362
862.178406,1333
862.295959,1385
862.413513,1369
862.531006,1345
862.64856,1366
862.766113,1338
862.883667,1360
863.00116,1356
863.118713,1367
863.236206,1323
863.353699,1370
863.471252,1325
863.588745,1380
863.706177,1382
863.82373,1338
863.941162,1363
864.058716,1362
864.176208,1330
864.29364,1331
864.411194,1381
864.528687,1343
864.646118,1364
864.763611,1328
864.881042,1320
864.998535,1357
865.116028,1348
865.233459,1366
865.350891,1345
865.468384,1325
865.585754,1375
865.703308,1345
865.820679,1345
865.938171,1332
866.055542,1332
866.173035,1357
866.290466,1294
866.407837,1383
866.52533,1332
866.6427,1325
866.760071,1337
866.877563,1315
866.994934,1340
867.112305,1371
867.229736,1381
867.347107,1333
867.464539,1407
867.58197,1367
867.699341,1343
867.81665,1353
867.934082,1336
868.051453,1372
868.168823,1409
868.286194,1368
868.403564,1353
868.520935,1387
868.638306,1325
868.755676,1372
868.872986,1319
868.990295,1392
869.107727,1382
869.225037,1380
869.342346,1386
869.459717,1327
869.577026,1370
869.694336,1366
869.811707,1395
869.929016,1346
870.046326,1381
870.163635,1408
870.280945,1366
870.398254,1391
870.515564,1375
870.632812,1420
870.750183,1427
870.867432,1363
870.984741,1385
871.102051,1413
871.219299,1399
871.336609,1413
871.453918,1453
871.571106,1371
871.688416,1446
871.805664,1433
871.922852,1409
872.040222,1400
872.157471,1448
872.274719,1445
872.391968,1411
872.509155,1427
872.626465,1405
872.743652,1398
872.860962,1443
872.978149,1418
873.095337,1396
873.212646,1401
873.329834,1385
873.44696,1417
873.564209,1429
873.681396,1386
873.798645,1403
873.915894,1439
874.03302,1384
874.150208,1430
874.267456,1382
874.384583,1424
874.501831,1378
874.618958,1446
874.736145,1343
874.853333,1393
874.970459,1393
875.087646,1450
875.204834,1401
875.32196,1428
875.439148,1406
875.556274,1414
875.673401,1472
875.790527,1385
875.907715,1376
876.024841,1434
876.141968,1426
876.259094,1381
876.376282,1422
876.493347,1431
876.610474,1400
876.7276,1395
876.844727,1412
876.961853,1375
877.078918,1415
877.195984,1379
877.313171,1449
877.430237,1372
877.547302,1393
877.664368,1365
877.781433,1413
877.898499,1389
878.015625,1443
878.13269,1379
878.249695,1370
878.366821,1373
878.483887,1361
878.600952,1369
878.717957,1343
878.834961,1354
878.952087,1403
879.069092,1365
879.186157,1337
879.303162,1358
879.420227,1355
879.537231,1351
879.654236,1345
879.77124,1338
879.888306,1307
880.005249,1364
880.122314,1346
880.239319,1360
880.356323,1354
880.473328,1349
880.590271,1363
880.707275,1342
880.824341,1361
880.941284,1336
881.058228,1336
881.175232,1382
881.292236,1373
881.40918,1354
881.526123,1336
881.643066,1395
881.760071,1346
881.877014,1342
881.993958,1342
882.11084,1378
882.227783,1358
882.344727,1372
882.46167,1325
882.578613,1336
882.695618,1371
882.812439,1330
882.929382,1321
883.046326,1371
883.163208,1353
883.280151,1336
883.397034,1347
883.513916,1353
883.630798,1363
883.747742,1365
883.864563,1380
883.981506,1371
884.098389,1383
884.21521,1347
884.332153,1374
884.448975,1390
884.565796,1378
884.682678,1407
884.7995,1436
884.916443,1411
885.033264,1502
885.150085,1487
885.266968,1478
885.383789,1474
885.500671,1516
885.617493,1548
885.734314,1506
885.851196,1458
885.967896,1514
886.084717,1498
886.201599,1486
886.318359,1484
886.435181,1459
886.552002,1452
886.668762,1464
886.785645,1471
886.902344,1512
887.019165,1483
887.135925,1477
887.252747,1438
887.369446,1433
887.486267,1496
887.603027,1410
887.719788,1442
887.836548,1425
887.953247,1417
888.070068,1397
888.186829,1393
888.303528,1370
888.420288,1405
888.536987,1398
888.653687,1392
888.770447,1382
888.887146,1381
889.003967,1336
889.120667,1372
889.237305,1376
889.354065,1353
889.470703,1336
889.587463,1328
889.704163,1359
889.820862,1361
889.937561,1380
890.054199,1359
890.170837,1369
890.287598,1357
890.404236,1321
890.520874,1372
890.637634,1364
890.754211,1356
890.87085,1371
890.987549,1336
891.104187,1323
891.220886,1379
891.337463,1371
891.454102,1380
891.57074,1345
891.687378,1362
891.804077,1403
891.920654,1339
892.037231,1372
892.15387,1309
892.270447,1381
892.387085,1348
892.503723,1393
892.6203,1371
892.736877,1364
892.853516,1350
892.970032,1374
893.08667,1390
893.203186,1366
893.319763,1391
893.43634,1340
893.552917,1373
893.669556,1376
893.786011,1344
893.902588,1349
894.019165,1356
894.135681,1324
894.252197,1376
894.368835,1402
894.485291,1376
894.601868,1339
894.718384,1385
894.8349,1344
894.951355,1378
895.067932,1348
895.184448,1371
895.300964,1362
895.417419,1353
895.533936,1337
895.650452,1378
895.766907,1388
895.883423,1396
895.999878,1300
896.116333,1364
896.232849,1367
896.349304,1336
896.465759,1337
896.582214,1357
896.698669,1324
896.815125,1386
896.931641,1358
897.048035,1337
897.164551,1383
897.280884,1401
897.397339,1320
897.513794,1381
897.630249,1335
897.746582,1371
897.863098,1360
897.979431,1360
898.095886,1405
898.212341,1367
898.328674,1366
898.445129,1348
898.561462,1387
898.677795,1373
898.794312,1366
898.910645,1399
899.026978,1363
899.143433,1383
899.259766,1365
899.37616,1359
899.492493,1382
899.608765,1371
899.725159,1409
899.841553,1369
899.957947,1331
900.07428,1342
900.190552,1374
900.306946,1363
900.423157,1365
900.53949,1379
900.655884,1388
900.772156,1360
900.888489,1401
901.004822,1364
901.121033,1359
901.237366,1381
901.353699,1401
901.46991,1374
901.586304,1386
901.702515,1395
901.818787,1385
901.93512,1426
902.051331,1393
902.167603,1434
902.283875,1441
902.400085,1447
902.516418,1441
902.632629,1469
902.74884,1416
902.865112,1439
902.981384,1487
903.097595,1468
903.213867,1434
903.330017,1450
903.446289,1431
903.5625,1436
903.67865,1439
903.794922,1442
903.911072,1395
904.027344,1455
904.143494,1408
904.259705,1406
904.375916,1392
904.492065,1423
904.608215,1385
904.724426,1390
904.840576,1410
904.956726,1380
905.072876,1443
905.189087,1390
905.305176,1385
905.421387,1377
905.537537,1410
905.653687,1369
905.769775,1401
905.885925,1367
906.002014,1373
906.118164,1370
906.234314,1379
906.350403,1396
906.466492,1408
906.582642,1365
906.69873,1395
906.814758,1360
906.930908,1403
907.046936,1365
907.163086,1343
907.279175,1407
907.395264,1351
907.511353,1417
907.62738,1352
907.743408,1368
907.859497,1421
907.975525,1383
908.091553,1365
908.207703,1354
908.32373,1425
908.439758,1388
908.555786,1340
908.671814,1372
908.787842,1372
908.90387,1399
909.019775,1343
909.135864,1396
909.251892,1411
909.367859,1380
909.483826,1395
909.599854,1400
909.715881,1393
909.831848,1412
909.947815,1368
910.063782,1401
910.179749,1385
910.295776,1407
910.411743,1393
910.527649,1389
910.643616,1407
910.759583,1413
910.875488,1380
910.991455,1377
911.107361,1426
911.223267,1396
911.339294,1389
911.4552,1392
911.571106,1361
911.687073,1358
911.802979,1397
911.918823,1410
912.034729,1398
912.150635,1383
912.266602,1429
912.382446,1348
912.498352,1397
912.614197,1389
912.730103,1400
912.846008,1363
792.44574,2430
792.56488,2440
792.68396,2347
792.80304,2386
792.92218,2261
793.041199,2180
793.160339,2190
793.279419,2186
793.398499,2207
793.517578,2118
793.636658,2134
793.755737,2097
793.874817,2039
793.993896,2127
794.112976,2019
794.232056,1985
794.351074,1979
794.470215,2017
794.589233,2010
794.708313,1982
794.827393,1985
794.946411,1950
795.065552,1954
795.18457,1879
795.303589,1896
795.422668,1889
795.541687,1918
795.660767,1879
795.779846,1867
795.898865,1826
796.017883,1862
796.136963,1892
796.255981,1792
796.375061,1820
796.49408,1891
796.613037,1820
796.732117,1818
796.851135,1799
796.970154,1754
797.089233,1746
797.208191,1786
797.327271,1759
797.446228,1719
797.565186,1733
797.684265,1780
797.803223,1771
797.922241,1754
798.04126,1736
798.160278,1706
798.279297,1733
798.398315,1708
798.517273,1752
798.636292,1745
798.75531,1720
798.874268,1730
798.993286,1781
799.112244,1706
799.231323,1692
799.350281,1683
799.469238,1720
799.588257,1697
799.707153,1743
799.826111,1705
799.945129,1729
800.064087,1688
800.183044,1644
800.302063,1689
800.421021,1679
800.539978,1644
800.658936,1632
800.777893,1654
800.896912,1656
801.015747,1607
801.134705,1699
801.253723,1657
801.37262,1673
801.491638,1643
801.610535,1650
801.729492,1631
801.84845,1618
801.967407,1627
802.086243,1624
802.205261,1664
802.324158,1660
802.443115,1645
802.562073,1614
802.680969,1586
802.799927,1644
802.918762,1636
803.037659,1606
803.156677,1628
803.275574,1699
803.39447,1632
803.513428,1593
803.632263,1671
803.751221,1613
803.870117,1598
803.989014,1616
804.107971,1618
804.226746,1624
804.345642,1627
804.4646,1612
804.583496,1614
804.702393,1602
804.821228,1579
804.940125,1573
805.059021,1599
805.177917,1656
805.296814,1552
805.415649,1578
805.534546,1613
805.653442,1561
805.772278,1633
805.891113,1592
806.01001,1603
806.128906,1585
806.247742,1629
806.366577,1618
806.485413,1587
806.604309,1607
806.723145,1577
806.84198,1572
806.960876,1597
807.079712,1572
807.198486,1561
807.317383,1568
807.436218,1547
807.554993,1552
807.673889,1624
807.792725,1594
807.91156,1582
808.030396,1570
808.14917,1608
808.268005,1539
808.386841,1567
808.505676,1559
808.624451,1625
808.743286,1553
808.862122,1602
808.980896,1540
809.099731,1574
809.218506,1517
809.337341,1547
809.456116,1527
809.57489,1556
809.693726,1608
809.8125,1560
809.931274,1544
810.050049,1598
810.168884,1593
810.287659,1541
810.406372,1545
810.525269,1562
810.643982,1619
810.762756,1578
810.881531,1582
811.000305,1588
811.11908,1571
811.237854,1600
811.356567,1583
811.475403,1607
811.594116,1548
811.71283,1551
811.831604,1579
811.950378,1578
812.069153,1573
812.187927,1597
812.30658,1606
812.425415,1532
812.544128,1605
812.662781,1540
812.781616,1591
812.900269,1564
813.019043,1532
813.137756,1535
813.256531,1580
813.375244,1526
813.493896,1535
813.612671,1545
813.731384,1515
813.850037,1530
813.96875,1513
814.087524,1530
814.206238,1517
814.324951,1517
814.443604,1527
814.562256,1542
814.68103,1502
814.799683,1518
814.918335,1519
815.037109,1530
815.155762,1508
815.274475,1521
815.393188,1480
815.511841,1531
815.630554,1489
815.749146,1545
815.867859,1541
815.986572,1498
816.105164,1517
816.223877,1495
816.342529,1546
816.461182,1522
816.579895,1500
816.698486,1517
816.817139,1541
816.935791,1557
817.054504,1556
817.173096,1578
817.291748,1595
817.4104,1535
817.529053,1503
817.647644,1541
817.766235,1503
817.884949,1558
818.00354,1443
818.122192,1495
818.240845,1517
818.359436,1492
818.478088,1525
818.59668,1498
818.715271,1456
818.833923,1480
818.952515,1462
819.071106,1440
819.189758,1499
819.30835,1431
819.426941,1497
819.545532,1432
819.664124,1470
819.782715,1439
819.901306,1417
820.019897,1465
820.138489,1459
820.25708,1454
820.375671,1448
820.494202,1494
820.612732,1449
820.731384,1465
820.849915,1436
820.968506,1452
821.087097,1448
821.205627,1503
821.324158,1451
821.442749,1434
821.561279,1433
821.679871,1442
821.798401,1417
821.916931,1429
822.035461,1422
822.154053,1459
822.272583,1435
822.391174,1436
822.509583,1436
822.628174,1408
822.746704,1452
822.865234,1414
822.983765,1393
823.102295,1409
823.220825,1457
823.339294,1370
823.457825,1393
823.576355,1408
823.694824,1437
823.813354,1447
823.931885,1395
824.050354,1435
824.168884,1381
824.287354,1445
824.405823,1413
824.524353,1497
824.642822,1416
824.761353,1379
824.879822,1400
824.998291,1424
825.116699,1420
825.235291,1442
825.353699,1420
825.472168,1433
825.590637,1413
825.709106,1433
825.827576,1426
825.946045,1419
826.064453,1432
826.182983,1377
826.301392,1391
826.4198,1391
826.53833,1438
826.656738,1388
826.775208,1394
826.893677,1409
827.012024,1374
827.130493,1362
827.248962,1412
827.36731,1414
827.485779,1396
827.604248,1407
827.722595,1425
827.841064,1343
827.959412,1387
828.077942,1416
828.196289,1365
828.314636,1370
828.433105,1340
828.551514,1336
828.669861,1363
828.78833,1367
828.906677,1342
829.025085,1427
829.143433,1385
829.261841,1395
829.38031,1352
829.498657,1391
829.617004,1369
829.735413,1371
829.85376,1342
829.972107,1384
830.090515,1379
830.208862,1378
830.327209,1347
830.445557,1389
830.563904,1358
830.682312,1418
830.800659,1340
830.919006,1421
831.037354,1372
831.155701,1331
831.274048,1399
831.392395,1428
831.51062,1367
831.629028,1362
831.747314,1382
831.865662,1363
831.984009,1370
832.102356,1371
832.220642,1366
832.338928,1383
832.457275,1382
832.575623,1399
832.693909,1403
832.812134,1393
832.930481,1416
833.048828,1405
833.167114,1399
833.2854,1376
833.403687,1347
833.521973,1344
833.640259,1361
833.758545,1386
833.876831,1383
833.995056,1347
834.113281,1397
834.231628,1392
834.349915,1375
834.468201,1381
834.586426,1396
834.704651,1373
834.822998,1375
834.941162,1383
835.059448,1405
835.177673,1410
835.295959,1372
835.414246,1364
835.53241,1363
835.650635,1411
835.768921,1318
835.887146,1355
836.005371,1368
836.123596,1358
836.241821,1350
836.360046,1364
836.478271,1344
836.596497,1358
836.714722,1375
836.832886,1360
836.95105,1357
837.069336,1353
837.1875,1427
837.305725,1360
837.423889,1397
837.542053,1408
837.660339,1387
837.778503,1395
837.896667,1377
838.014832,1355
838.132996,1357
838.25116,1395
838.369385,1379
838.487488,1388
838.605713,1366
838.723877,1353
838.84198,1366
838.960205,1359
839.078308,1372
839.196472,1377
839.314636,1396
839.4328,1382
839.550964,1390
839.669067,1347
839.787231,1376
839.905396,1386
840.023499,1438
840.141602,1413
840.259766,1439
840.377869,1393
840.495972,1383
840.614136,1422
840.732239,1427
840.850342,1371
840.968445,1391
841.086548,1383
841.204651,1438
841.322754,1417
841.440918,1415
841.55896,1453
841.677002,1412
841.795166,1424
841.913208,1447
842.031311,1400
842.149353,1411
842.267456,1402
842.385498,1410
842.503601,1454
842.621643,1400
842.739746,1423
842.857788,1397
842.97583,1408
843.093933,1475
843.211975,1416
843.330017,1396
843.44812,1383
843.566101,1419
843.684204,1383
843.802246,1413
843.920227,1388
844.038269,1390
844.156311,1420
844.274292,1421
844.392395,1438
844.510376,1434
844.628357,1363
844.74646,1338
844.864441,1394
844.982422,1381
845.100403,1408
845.218384,1404
845.336426,1379
845.454468,1386
845.572449,1388
845.69043,1421
845.808411,1365
845.926453,1398
846.044373,1337
846.162354,1389
846.280396,1384
846.398315,1385
846.516296,1387
846.634216,1357
846.752197,1366
846.870178,1395
846.988098,1371
847.106079,1371
847.22406,1348
847.34198,1406
847.4599,1345
847.577881,1432
847.695801,1366
847.813782,1394
847.931641,1403
848.049561,1411
848.167603,1411
848.285461,1394
848.403381,1387
848.521362,1383
848.639221,1400
848.75708,1365
848.875,1394
848.99292,1411
849.110901,1413
849.22876,1379
849.34668,1404
849.464539,1368
849.582458,1374
849.700317,1396
849.818176,1408
849.936096,1425
850.053955,1367
850.171875,1372
850.289673,1421
850.407593,1423
850.525452,1402
850.643311,1415
850.761169,1369
850.878967,1399
850.996887,1396
851.114746,1412
851.232544,1405
851.350403,1429
851.468262,1389
851.58606,1404
851.703979,1435
851.821777,1358
851.939636,1402
852.057434,1374
852.175232,1387
852.293091,1419
852.410889,1364
852.528687,1451
852.646545,1425
852.764343,1458
852.88208,1469
852.999939,1437
853.117676,1390
853.235535,1442
853.353271,1403
853.471069,1392
853.588928,1397
853.706604,1400
853.824402,1393
853.9422,1409
854.059998,1396
854.177734,1387
854.295532,1426
854.413269,1398
854.531006,1370
854.648804,1409
854.766541,1374
854.884277,1407
855.002014,1404
855.119751,1385
855.237549,1369
855.355225,1430
855.473022,1394
855.590698,1389
855.708435,1410
855.826172,1397
855.943848,1404
856.061646,1389
856.179321,1422
856.296997,1379
856.414795,1399
856.53241,1409
856.650085,1399
856.767822,1428
856.885559,1453
857.003174,1466
857.120911,1459
857.238586,1415
857.356201,1421
857.473938,1431
857.591614,1415
857.709351,1424
857.826965,1446
857.944641,1418
858.062317,1413
858.179993,1391
858.297668,1470
858.415283,1408
858.532959,1395
858.650574,1418
858.768188,1419
858.885803,1435
859.003479,1413
859.121094,1380
859.23877,1417
859.356384,1380
859.473999,1425
859.591675,1381
859.709229,1416
859.826843,1397
859.944458,1377
860.062012,1430
860.179626,1388
860.297302,1395
860.414856,1382
860.532471,1378
860.650024,1417
860.767639,1398
860.885193,1375
861.002808,1432
861.120361,1413
861.237976,1421
861.35553,1413
861.473022,1398
861.590698,1411
861.708191,1415
861.825745,1397
861.943298,1403
862.060852,1377
862.178406,1370
862.295959,1390
862.413513,1402
862.531006,1343
862.64856,1348
862.766113,1370
862.883667,1348
863.00116,1367
863.118713,1373
863.236206,1359
863.353699,1317
863.471252,1384
863.588745,1398
863.706177,1360
863.82373,1361
863.941162,1355
864.058716,1412
864.176208,1415
864.29364,1364
864.411194,1450
864.528687,1330
864.646118,1337
864.763611,1385
864.881042,1392
864.998535,1352
865.116028,1365
865.233459,1376
865.350891,1378
865.468384,1386
865.585754,1371
865.703308,1401
865.820679,1343
865.938171,1373
866.055542,1361
866.173035,1377
866.290466,1403
866.407837,1369
866.52533,1409
866.6427,1368
866.760071,1360
866.877563,1354
866.994934,1376
867.112305,1410
867.229736,1324
867.347107,1379
867.464539,1382
867.58197,1413
867.699341,1372
867.81665,1397
867.934082,1349
868.051453,1354
868.168823,1419
868.286194,1355
868.403564,1363
868.520935,1390
868.638306,1374
868.755676,1436
868.872986,1387
868.990295,1385
869.107727,1375
869.225037,1399
869.342346,1374
869.459717,1430
869.577026,1373
869.694336,1392
869.811707,1400
869.929016,1382
870.046326,1427
870.163635,1390
870.280945,1417
870.398254,1389
870.515564,1352
870.632812,1401
870.750183,1411
870.867432,1436
870.984741,1443
871.102051,1428
871.219299,1422
871.336609,1467
871.453918,1423
871.571106,1448
871.688416,1465
871.805664,1407
871.922852,1432
872.040222,1410
872.157471,1430
872.274719,1433
872.391968,1399
872.509155,1444
872.626465,1456
872.743652,1451
872.860962,1416
872.978149,1431
873.095337,1435
873.212646,1462
873.329834,1407
873.44696,1393
873.564209,1445
873.681396,1430
873.798645,1408
873.915894,1416
874.03302,1438
874.150208,1458
874.267456,1442
874.384583,1426
874.501831,1418
874.618958,1408
874.736145,1448
874.853333,1441
874.970459,1425
875.087646,1423
875.204834,1424
875.32196,1440
875.439148,1437
875.556274,1458
875.673401,1448
875.790527,1397
875.907715,1390
876.024841,1386
876.141968,1414
876.259094,1422
876.376282,1419
876.493347,1400
876.610474,1386
876.7276,1405
876.844727,1433
876.961853,1418
877.078918,1383
877.195984,1414
877.313171,1406
877.430237,1438
877.547302,1418
877.664368,1403
877.781433,1378
877.898499,1419
878.015625,1381
878.13269,1400
878.249695,1424
878.366821,1383
878.483887,1355
878.600952,1388
878.717957,1330
878.834961,1384
878.952087,1388
879.069092,1372
879.186157,1376
879.303162,1380
879.420227,1405
879.537231,1419
879.654236,1374
879.77124,1346
879.888306,1377
880.005249,1377
880.122314,1372
880.239319,1393
880.356323,1369
880.473328,1388
880.590271,1371
880.707275,1402
880.824341,1339
880.941284,1407
881.058228,1364
881.175232,1391
881.292236,1345
881.40918,1352
881.526123,1412
881.643066,1330
881.760071,1368
881.877014,1391
881.993958,1361
882.11084,1367
882.227783,1394
882.344727,1356
882.46167,1394
882.578613,1419
882.695618,1395
882.812439,1372
882.929382,1374
883.046326,1386
883.163208,1405
883.280151,1371
883.397034,1376
883.513916,1384
883.630798,1430
883.747742,1337
883.864563,1390
883.981506,1376
884.098389,1398
884.21521,1371
884.332153,1385
884.448975,1417
884.565796,1413
884.682678,1465
884.7995,1418
884.916443,1503
885.033264,1466
885.150085,1467
885.266968,1518
885.383789,1516
885.500671,1492
885.617493,1549
885.734314,1521
885.851196,1505
885.967896,1541
886.084717,1534
886.201599,1493
886.318359,1490
886.435181,1552
886.552002,1521
886.668762,1515
886.785645,1511
886.902344,1475
887.019165,1500
887.135925,1462
887.252747,1494
887.369446,1432
887.486267,1441
887.603027,1472
887.719788,1472
887.836548,1448
887.953247,1445
888.070068,1441
888.186829,1414
888.303528,1431
888.420288,1404
888.536987,1427
888.653687,1383
888.770447,1428
888.887146,1409
889.003967,1389
889.120667,1405
889.237305,1425
889.354065,1386
889.470703,1392
889.587463,1340
889.704163,1396
889.820862,1390
889.937561,1370
890.054199,1373
890.170837,1377
890.287598,1384
890.404236,1389
890.520874,1387
890.637634,1405
890.754211,1435
890.87085,1415
890.987549,1403
891.104187,1426
891.220886,1376
891.337463,1419
891.454102,1385
891.57074,1384
891.687378,1398
891.804077,1397
891.920654,1357
892.037231,1375
892.15387,1404
892.270447,1424
892.387085,1377
892.503723,1404
892.6203,1376
892.736877,1327
892.853516,1380
892.970032,1400
893.08667,1394
893.203186,1397
893.319763,1369
893.43634,1381
893.552917,1399
893.669556,1422
893.786011,1410
893.902588,1392
894.019165,1383
894.135681,1397
894.252197,1375
894.368835,1433
894.485291,1391
894.601868,1380
894.718384,1408
894.8349,1356
894.951355,1375
895.067932,1414
895.184448,1415
895.300964,1390
895.417419,1411
895.533936,1369
895.650452,1412
895.766907,1376
895.883423,1419
895.999878,1383
896.116333,1417
896.232849,1388
896.349304,1361
896.465759,1392
896.582214,1426
896.698669,1398
896.815125,1388
896.931641,1418
897.048035,1369
897.164551,1413
897.280884,1435
897.397339,1399
897.513794,1422
897.630249,1393
897.746582,1414
897.863098,1437
897.979431,1380
898.095886,1417
898.212341,1416
898.328674,1422
898.445129,1406
898.561462,1431
898.677795,1410
898.794312,1376
898.910645,1372
899.026978,1337
899.143433,1377
899.259766,1409
899.37616,1402
899.492493,1416
899.608765,1403
899.725159,1435
899.841553,1410
899.957947,1402
900.07428,1396
900.190552,1379
900.306946,1371
900.423157,1404
900.53949,1368
900.655884,1467
900.772156,1415
900.888489,1418
901.004822,1430
901.121033,1421
901.237366,1394
901.353699,1445
901.46991,1419
901.586304,1430
901.702515,1390
901.818787,1420
901.93512,1443
902.051331,1437
902.167603,1403
902.283875,1467
902.400085,1466
902.516418,1483
902.632629,1484
902.74884,1484
902.865112,1520
902.981384,1455
903.097595,1477
903.213867,1515
903.330017,1516
903.446289,1481
903.5625,1496
903.67865,1495
903.794922,1499
903.911072,1450
904.027344,1439
904.143494,1452
904.259705,1440
904.375916,1464
904.492065,1441
904.608215,1457
904.724426,1439
904.840576,1427
904.956726,1413
905.072876,1423
905.189087,1430
905.305176,1435
905.421387,1414
905.537537,1432
905.653687,1374
905.769775,1421
905.885925,1431
906.002014,1412
906.118164,1401
906.234314,1423
906.350403,1401
906.466492,1431
906.582642,1401
906.69873,1429
906.814758,1383
906.930908,1449
907.046936,1396
907.163086,1370
907.279175,1444
907.395264,1407
907.511353,1407
907.62738,1437
907.743408,1367
907.859497,1420
907.975525,1379
908.091553,1371
908.207703,1401
908.32373,1425
908.439758,1437
908.555786,1435
908.671814,1406
908.787842,1424
908.90387,1434
909.019775,1421
909.135864,1373
909.251892,1446
909.367859,1434
909.483826,1422
909.599854,1394
909.715881,1391
909.831848,1409
909.947815,1439
910.063782,1444
910.179749,1382
910.295776,1444
910.411743,1392
910.527649,1446
910.643616,1413
910.759583,1405
910.875488,1431
910.991455,1404
911.107361,1403
911.223267,1453
911.339294,1397
911.4552,1391
911.571106,1449
911.687073,1459
911.802979,1373
911.918823,1414
912.034729,1410
912.150635,1431
912.266602,1417
912.382446,1427
912.498352,1395
912.614197,1420
912.730103,1429
912.846008,1381
792.44574,2494
792.56488,2376
792.68396,2419
792.80304,2315
792.92218,2278
793.041199,2243
793.160339,2181
793.279419,2224
793.398499,2206
793.517578,2147
793.636658,2149
793.755737,2128
793.874817,2059
793.993896,2029
794.112976,2047
794.232056,2070
794.351074,2035
794.470215,1997
794.589233,1998
794.708313,1936
794.827393,1926
794.946411,1937
795.065552,1926
795.18457,1900
795.303589,1939
795.422668,1917
795.541687,1892
795.660767,1911
795.779846,1880
795.898865,1875
796.017883,1831
796.136963,1829
796.255981,1838
796.375061,1785
796.49408,1814
796.613037,1777
796.732117,1816
796.851135,1785
796.970154,1821
797.089233,1740
797.208191,1724
797.327271,1775
797.446228,1738
797.565186,1747
797.684265,1777
797.803223,1752
797.922241,1712
798.04126,1720
798.160278,1720
798.279297,1723
798.398315,1723
798.517273,1774
798.636292,1675
798.75531,1737
798.874268,1740
798.993286,1733
799.112244,1694
799.231323,1715
799.350281,1698
799.469238,1699
799.588257,1672
799.707153,1699
799.826111,1735
799.945129,1691
800.064087,1693
800.183044,1700
800.302063,1675
800.421021,1681
800.539978,1667
800.658936,1691
800.777893,1709
800.896912,1664
801.015747,1678
801.134705,1625
801.253723,1672
801.37262,1661
801.491638,1674
801.610535,1635
801.729492,1626
801.84845,1646
801.967407,1700
802.086243,1654
802.205261,1634
802.324158,1692
802.443115,1641
802.562073,1659
802.680969,1647
802.799927,1646
802.918762,1635
803.037659,1594
803.156677,1616
803.275574,1619
803.39447,1618
803.513428,1617
803.632263,1614
803.751221,1628
803.870117,1605
803.989014,1623
804.107971,1610
804.226746,1621
804.345642,1634
804.4646,1644
804.583496,1607
804.702393,1605
804.821228,1606
804.940125,1629
805.059021,1588
805.177917,1619
805.296814,1610
805.415649,1596
805.534546,1604
805.653442,1578
805.772278,1591
805.891113,1599
806.01001,1559
806.128906,1572
806.247742,1531
806.366577,1610
806.485413,1593
806.604309,1610
806.723145,1580
806.84198,1605
806.960876,1581
807.079712,1545
807.198486,1600
807.317383,1600
807.436218,1584
807.554993,1573
807.673889,1581
807.792725,1542
807.91156,1554
808.030396,1583
808.14917,1549
808.268005,1609
808.386841,1622
808.505676,1557
808.624451,1611
808.743286,1576
808.862122,1579
808.980896,1578
809.099731,1572
809.218506,1588
809.337341,1584
809.456116,1579
809.57489,1538
809.693726,1539
809.8125,1579
809.931274,1602
810.050049,1547
810.168884,1569
810.287659,1555
810.406372,1552
810.525269,1561
810.643982,1567
810.762756,1546
810.881531,1597
811.000305,1558
811.11908,1542
811.237854,1521
811.356567,1564
811.475403,1530
811.594116,1557
811.71283,1577
811.831604,1585
811.950378,1542
812.069153,1597
812.187927,1601
812.30658,1595
812.425415,1566
812.544128,1599
812.662781,1580
812.781616,1597
812.900269,1545
813.019043,1544
813.137756,1549
813.256531,1574
813.375244,1501
813.493896,1537
813.612671,1566
813.731384,1525
813.850037,1579
813.96875,1545
814.087524,1545
814.206238,1509
814.324951,1521
814.443604,1546
814.562256,1524
814.68103,1561
814.799683,1509
814.918335,1532
815.037109,1545
815.155762,1539
815.274475,1487
815.393188,1531
815.511841,1516
815.630554,1515
815.749146,1529
815.867859,1525
815.986572,1509
816.105164,1505
816.223877,1500
816.342529,1519
816.461182,1505
816.579895,1528
816.698486,1510
816.817139,1496
816.935791,1515
817.054504,1528
817.173096,1557
817.291748,1546
817.4104,1499
817.529053,1538
817.647644,1521
817.766235,1484
817.884949,1510
818.00354,1525
818.122192,1493
818.240845,1486
818.359436,1434
818.478088,1490
818.59668,1470
818.715271,1491
818.833923,1502
818.952515,1471
819.071106,1479
819.189758,1445
819.30835,1445
819.426941,1476
819.545532,1450
819.664124,1477
819.782715,1456
819.901306,1435
820.019897,1448
820.138489,1449
820.25708,1430
820.375671,1512
820.494202,1474
820.612732,1457
820.731384,1511
820.849915,1459
820.968506,1485
821.087097,1456
821.205627,1454
821.324158,1475
821.442749,1415
821.561279,1432
821.679871,1428
821.798401,1420
821.916931,1450
822.035461,1427
822.154053,1447
822.272583,1467
822.391174,1396
822.509583,1428
822.628174,1456
822.746704,1425
822.865234,1418
822.983765,1412
823.102295,1412
823.220825,1394
823.339294,1416
823.457825,1458
823.576355,1455
823.694824,1414
823.813354,1433
823.931885,1401
824.050354,1398
824.168884,1413
824.287354,1449
824.405823,1440
824.524353,1427
824.642822,1448
824.761353,1438
824.879822,1446
824.998291,1410
825.116699,1394
825.235291,1445
825.353699,1480
825.472168,1401
825.590637,1444
825.709106,1424
825.827576,1368
825.946045,1446
826.064453,1418
826.182983,1388
826.301392,1392
826.4198,1361
826.53833,1438
826.656738,1409
826.775208,1443
826.893677,1443
827.012024,1381
827.130493,1372
827.248962,1435
827.36731,1411
827.485779,1428
827.604248,1387
827.722595,1396
827.841064,1356
827.959412,1376
828.077942,1365
828.196289,1385
828.314636,1395
828.433105,1391
828.551514,1401
828.669861,1392
828.78833,1418
828.906677,1383
829.025085,1386
829.143433,1369
829.261841,1415
829.38031,1372
829.498657,1383
829.617004,1435
829.735413,1359
829.85376,1362
829.972107,1371
830.090515,1362
830.208862,1344
830.327209,1380
830.445557,1393
830.563904,1356
830.682312,1356
830.800659,1367
830.919006,1402
831.037354,1370
831.155701,1402
831.274048,1369
831.392395,1433
831.51062,1359
831.629028,1367
831.747314,1391
831.865662,1372
831.984009,1408
832.102356,1375
832.220642,1392
832.338928,1384
832.457275,1414
832.575623,1406
832.693909,1382
832.812134,1337
832.930481,1367
833.048828,1373
833.167114,1402
833.2854,1415
833.403687,1376
833.521973,1388
833.640259,1341
833.758545,1430
833.876831,1370
833.995056,1399
834.113281,1370
834.231628,1382
834.349915,1398
834.468201,1404
834.586426,1367
834.704651,1407
834.822998,1352
834.941162,1359
835.059448,1406
835.177673,1397
835.295959,1335
835.414246,1399
835.53241,1355
835.650635,1355
835.768921,1370
835.887146,1423
836.005371,1386
836.123596,1379
836.241821,1394
836.360046,1388
836.478271,1396
836.596497,1366
836.714722,1367
836.832886,1366
836.95105,1366
837.069336,1377
837.1875,1380
837.305725,1389
837.423889,1336
837.542053,1369
837.660339,1381
837.778503,1386
837.896667,1364
838.014832,1357
838.132996,1380
838.25116,1395
838.369385,1386
838.487488,1370
838.605713,1378
838.723877,1380
838.84198,1381
838.960205,1396
839.078308,1400
839.196472,1382
839.314636,1400
839.4328,1399
839.550964,1406
839.669067,1361
839.787231,1388
839.905396,1402
840.023499,1440
840.141602,1468
840.259766,1406
840.377869,1378
840.495972,1416
840.614136,1346
840.732239,1408
840.850342,1404
840.968445,1416
841.086548,1428
841.204651,1434
841.322754,1446
841.440918,1453
841.55896,1513
841.677002,1437
841.795166,1446
841.913208,1402
842.031311,1447
842.149353,1420
842.267456,1420
842.385498,1413
842.503601,1401
842.621643,1491
842.739746,1403
842.857788,1409
842.97583,1432
843.093933,1397
843.211975,1421
843.330017,1392
843.44812,1426
843.566101,1425
843.684204,1408
843.802246,1429
843.920227,1413
844.038269,1410
844.156311,1411
844.274292,1434
844.392395,1390
844.510376,1409
844.628357,1383
844.74646,1387
844.864441,1460
844.982422,1413
845.100403,1429
845.218384,1416
845.336426,1364
845.454468,1401
845.572449,1424
845.69043,1407
845.808411,1403
845.926453,1377
846.044373,1359
846.162354,1369
846.280396,1375
846.398315,1399
846.516296,1391
846.634216,1348
846.752197,1404
846.870178,1360
846.988098,1407
847.106079,1396
847.22406,1433
847.34198,1355
847.4599,1375
847.577881,1367
847.695801,1418
847.813782,1435
847.931641,1419
848.049561,1412
848.167603,1361
848.285461,1403
848.403381,1394
848.521362,1367
848.639221,1406
848.75708,1394
848.875,1356
848.99292,1415
849.110901,1408
849.22876,1369
849.34668,1417
849.464539,1409
849.582458,1391
849.700317,1384
849.818176,1393
849.936096,1398
850.053955,1402
850.171875,1412
850.289673,1392
850.407593,1410
850.525452,1423
850.643311,1425
850.761169,1369
850.878967,1426
850.996887,1439
851.114746,1351
851.232544,1409
851.350403,1340
851.468262,1411
851.58606,1336
851.703979,1390
851.821777,1382
851.939636,1427
852.057434,1401
852.175232,1382
852.293091,1422
852.410889,1422
852.528687,1436
852.646545,1426
852.764343,1466
852.88208,1446
852.999939,1388
853.117676,1374
853.235535,1411
853.353271,1390
853.471069,1378
853.588928,1410
853.706604,1376
853.824402,1367
853.9422,1360
854.059998,1440
854.177734,1366
854.295532,1393
854.413269,1396
854.531006,1405
854.648804,1394
854.766541,1379
854.884277,1405
855.002014,1419
855.119751,1408
855.237549,1448
855.355225,1415
855.473022,1390
855.590698,1419
855.708435,1455
855.826172,1415
855.943848,1392
856.061646,1432
856.179321,1389
856.296997,1420
856.414795,1383
856.53241,1438
856.650085,1401
856.767822,1424
856.885559,1461
857.003174,1390
857.120911,1413
857.238586,1423
857.356201,1439
857.473938,1423
857.591614,1435
857.709351,1400
857.826965,1448
857.944641,1403
858.062317,1439
858.179993,1434
858.297668,1459
858.415283,1368
858.532959,1425
858.650574,1432
858.768188,1440
858.885803,1411
859.003479,1465
859.121094,1411
859.23877,1409
859.356384,1449
859.473999,1411
859.591675,1415
859.709229,1465
859.826843,1393
859.944458,1394
860.062012,1443
860.179626,1404
860.297302,1358
860.414856,1406
860.532471,1433
860.650024,1423
860.767639,1409
860.885193,1425
861.002808,1376
861.120361,1368
861.237976,1370
861.35553,1386
861.473022,1433
861.590698,1441
861.708191,1397
861.825745,1367
861.943298,1388
862.060852,1399
862.178406,1377
862.295959,1366
862.413513,1369
862.531006,1357
862.64856,1357
862.766113,1366
862.883667,1365
863.00116,1378
863.118713,1376
863.236206,1396
863.353699,1401
863.471252,1398
863.588745,1366
863.706177,1374
863.82373,1406
863.941162,1402
864.058716,1406
864.176208,1363
864.29364,1392
864.411194,1400
864.528687,1396
864.646118,1394
864.763611,1344
864.881042,1332
864.998535,1383
865.116028,1393
865.233459,1387
865.350891,1391
865.468384,1391
865.585754,1421
865.703308,1355
865.820679,1346
865.938171,1384
866.055542,1386
866.173035,1388
866.290466,1388
866.407837,1351
866.52533,1368
866.6427,1419
866.760071,1326
866.877563,1410
866.994934,1375
867.112305,1391
867.229736,1341
867.347107,1407
867.464539,1387
867.58197,1391
867.699341,1388
867.81665,1334
867.934082,1368
868.051453,1411
868.168823,1349
868.286194,1376
868.403564,1381
868.520935,1401
868.638306,1376
868.755676,1357
868.872986,1413
868.990295,1401
869.107727,1418
869.225037,1384
869.342346,1402
869.459717,1441
869.577026,1398
869.694336,1388
869.811707,1416
869.929016,1401
870.046326,1409
870.163635,1398
870.280945,1408
870.398254,1439
870.515564,1427
870.632812,1388
870.750183,1450
870.867432,1431
870.984741,1453
871.102051,1389
871.219299,1428
871.336609,1494
871.453918,1466
871.571106,1421
871.688416,1451
871.805664,1429
871.922852,1400
872.040222,1475
872.157471,1442
872.274719,1493
872.391968,1442
872.509155,1470
872.626465,1427
872.743652,1473
872.860962,1431
872.978149,1454
873.095337,1405
873.212646,1400
873.329834,1432
873.44696,1404
873.564209,1433
873.681396,1405
873.798645,1430
873.915894,1436
874.03302,1441
874.150208,1473
874.267456,1452
874.384583,1502
874.501831,1407
874.618958,1446
874.736145,1445
874.853333,1461
874.970459,1471
875.087646,1475
875.204834,1454
875.32196,1446
875.439148,1449
875.556274,1431
875.673401,1439
875.790527,1455
875.907715,1408
876.024841,1424
876.141968,1441
876.259094,1430
876.376282,1427
876.493347,1429
876.610474,1408
876.7276,1400
876.844727,1371
876.961853,1408
877.078918,1450
877.195984,1397
877.313171,1422
877.430237,1399
877.547302,1357
877.664368,1378
877.781433,1449
877.898499,1380
878.015625,1385
878.13269,1444
878.249695,1419
878.366821,1437
878.483887,1423
878.600952,1445
878.717957,1392
878.834961,1391
878.952087,1392
879.069092,1386
879.186157,1394
879.303162,1401
879.420227,1438
879.537231,1410
879.654236,1378
879.77124,1421
879.888306,1376
880.005249,1389
880.122314,1393
880.239319,1375
880.356323,1406
880.473328,1399
880.590271,1365
880.707275,1376
880.824341,1383
880.941284,1405
881.058228,1409
881.175232,1375
881.292236,1387
881.40918,1359
881.526123,1390
881.643066,1366
881.760071,1383
881.877014,1379
881.993958,1357
882.11084,1391
882.227783,1366
882.344727,1423
882.46167,1379
882.578613,1395
882.695618,1377
882.812439,1402
882.929382,1399
883.046326,1419
883.163208,1381
883.280151,1357
883.397034,1387
883.513916,1354
883.630798,1378
883.747742,1373
883.864563,1398
883.981506,1384
884.098389,1411
884.21521,1428
884.332153,1400
884.448975,1379
884.565796,1396
884.682678,1452
884.7995,1427
884.916443,1462
885.033264,1452
885.150085,1549
885.266968,1534
885.383789,1534
885.500671,1544
885.617493,1523
885.734314,1567
885.851196,1510
885.967896,1487
886.084717,1519
886.201599,1516
886.318359,1524
886.435181,1534
886.552002,1500
886.668762,1514
886.785645,1519
886.902344,1548
887.019165,1493
887.135925,1514
887.252747,1472
887.369446,1540
887.486267,1440
887.603027,1482
887.719788,1455
887.836548,1435
887.953247,1457
888.070068,1436
888.186829,1452
888.303528,1434
888.420288,1410
888.536987,1411
888.653687,1404
888.770447,1423
888.887146,1386
889.003967,1392
889.120667,1372
889.237305,1408
889.354065,1366
889.470703,1406
889.587463,1389
889.704163,1403
889.820862,1377
889.937561,1361
890.054199,1362
890.170837,1368
890.287598,1374
890.404236,1409
890.520874,1383
890.637634,1376
890.754211,1386
890.87085,1392
890.987549,1401
891.104187,1374
891.220886,1408
891.337463,1403
891.454102,1391
891.57074,1397
891.687378,1368
891.804077,1390
891.920654,1368
892.037231,1405
892.15387,1354
892.270447,1383
892.387085,1397
892.503723,1378
892.6203,1410
892.736877,1412
892.853516,1360
892.970032,1402
893.08667,1445
893.203186,1370
893.319763,1365
893.43634,1395
893.552917,1402
893.669556,1397
893.786011,1350
893.902588,1394
894.019165,1419
894.135681,1410
894.252197,1391
894.368835,1418
894.485291,1457
894.601868,1433
894.718384,1419
894.8349,1379
894.951355,1390
895.067932,1389
895.184448,1372
895.300964,1364
895.417419,1396
895.533936,1400
895.650452,1371
895.766907,1363
895.883423,1375
895.999878,1372
896.116333,1390
896.232849,1428
896.349304,1393
896.465759,1455
896.582214,1410
896.698669,1404
896.815125,1425
896.931641,1396
897.048035,1391
897.164551,1373
897.280884,1417
897.397339,1432
897.513794,1361
897.630249,1427
897.746582,1379
897.863098,1416
897.979431,1395
898.095886,1400
898.212341,1413
898.328674,1377
898.445129,1441
898.561462,1398
898.677795,1461
898.794312,1405
898.910645,1379
899.026978,1405
899.143433,1459
899.259766,1382
899.37616,1403
899.492493,1442
899.608765,1423
899.725159,1439
899.841553,1435
899.957947,1412
900.07428,1386
900.190552,1401
900.306946,1415
900.423157,1401
900.53949,1407
900.655884,1435
900.772156,1370
900.888489,1401
901.004822,1421
901.121033,1437
901.237366,1417
901.353699,1403
901.46991,1423
901.586304,1415
901.702515,1435
901.818787,1418
901.93512,1466
902.051331,1426
902.167603,1486
902.283875,1477
902.400085,1528
902.516418,1453
902.632629,1500
902.74884,1533
902.865112,1521
902.981384,1495
903.097595,1521
903.213867,1465
903.330017,1474
903.446289,1473
903.5625,1462
903.67865,1502
903.794922,1467
903.911072,1447
904.027344,1475
904.143494,1476
904.259705,1481
904.375916,1403
904.492065,1477
904.608215,1491
904.724426,1410
904.840576,1426
904.956726,1368
905.072876,1416
905.189087,1442
905.305176,1418
905.421387,1468
905.537537,1449
905.653687,1413
905.769775,1424
905.885925,1404
906.002014,1410
906.118164,1432
906.234314,1419
906.350403,1389
906.466492,1456
906.582642,1400
906.69873,1418
906.814758,1420
906.930908,1454
907.046936,1412
907.163086,1431
907.279175,1474
907.395264,1423
907.511353,1439
907.62738,1406
907.743408,1412
907.859497,1448
907.975525,1423
908.091553,1421
908.207703,1461
908.32373,1420
908.439758,1440
908.555786,1425
908.671814,1431
908.787842,1447
908.90387,1429
909.019775,1412
909.135864,1356
909.251892,1431
909.367859,1409
909.483826,1411
909.599854,1400
909.715881,1440
909.831848,1410
909.947815,1434
910.063782,1409
910.179749,1415
910.295776,1425
910.411743,1426
910.527649,1428
910.643616,1478
910.759583,1448
910.875488,1432
910.991455,1435
911.107361,1462
911.223267,1462
911.339294,1407
911.4552,1483
911.571106,1405
911.687073,1474
911.802979,1396
911.918823,1393
912.034729,1432
912.150635,1407
912.266602,1425
912.382446,1411
912.498352,1404
912.614197,1421
912.730103,1391
912.846008,1463
