792.44574,5043
792.56488,4825
792.68396,4816
792.80304,4595
792.92218,4500
793.041199,4341
793.160339,4208
793.279419,4184
793.398499,4083
793.517578,4008
793.636658,3864
793.755737,3758
793.874817,3770
793.993896,3558
794.112976,3563
794.232056,3522
794.351074,3480
794.470215,3405
794.589233,3309
794.708313,3234
794.827393,3257
794.946411,3155
795.065552,3232
795.18457,3132
795.303589,3071
795.422668,2971
795.541687,2983
795.660767,2989
795.779846,2959
795.898865,2828
796.017883,2804
796.136963,2845
796.255981,2775
796.375061,2797
796.49408,2778
796.613037,2738
796.732117,2697
796.851135,2676
796.970154,2639
797.089233,2652
797.208191,2598
797.327271,2592
797.446228,2592
797.565186,2539
797.684265,2517
797.803223,2497
797.922241,2442
798.04126,2450
798.160278,2439
798.279297,2421
798.398315,2384
798.517273,2397
798.636292,2358
798.75531,2403
798.874268,2390
798.993286,2379
799.112244,2337
799.231323,2319
799.350281,2351
799.469238,2281
799.588257,2358
799.707153,2314
799.826111,2316
799.945129,2331
800.064087,2252
800.183044,2252
800.302063,2214
800.421021,2254
800.539978,2230
800.658936,2199
800.777893,2159
800.896912,2204
801.015747,2198
801.134705,2140
801.253723,2217
801.37262,2210
801.491638,2160
801.610535,2147
801.729492,2170
801.84845,2047
801.967407,2154
802.086243,2139
802.205261,2135
802.324158,2110
802.443115,2079
802.562073,2092
802.680969,2103
802.799927,2059
802.918762,2099
803.037659,2052
803.156677,2078
803.275574,2037
803.39447,2049
803.513428,2092
803.632263,2063
803.751221,2055
803.870117,2018
803.989014,1995
804.107971,2023
804.226746,1993
804.345642,2018
804.4646,2010
804.583496,1997
804.702393,1984
804.821228,2007
804.940125,1981
805.059021,1971
805.177917,1954
805.296814,2010
805.415649,1957
805.534546,1973
805.653442,1937
805.772278,2005
805.891113,1977
806.01001,1947
806.128906,1960
806.247742,2000
806.366577,2000
806.485413,1982
806.604309,1889
806.723145,1980
806.84198,1991
806.960876,1959
807.079712,1951
807.198486,1939
807.317383,1917
807.436218,1920
807.554993,1915
807.673889,1940
807.792725,1932
807.91156,1888
808.030396,1941
808.14917,1911
808.268005,1927
808.386841,1917
808.505676,1923
808.624451,1864
808.743286,1858
808.862122,1870
808.980896,1852
809.099731,1877
809.218506,1847
809.337341,1928
809.456116,1878
809.57489,1915
809.693726,1887
809.8125,1883
809.931274,1861
810.050049,1890
810.168884,1879
810.287659,1858
810.406372,1862
810.525269,1891
810.643982,1835
810.762756,1861
810.881531,1821
811.000305,1872
811.11908,1947
811.237854,1870
811.356567,1857
811.475403,1912
811.594116,1901
811.71283,1931
811.831604,1910
811.950378,1958
812.069153,1953
812.187927,1952
812.30658,1988
812.425415,1908
812.544128,1954
812.662781,1906
812.781616,1915
812.900269,1899
813.019043,1912
813.137756,1895
813.256531,1900
813.375244,1866
813.493896,1882
813.612671,1827
813.731384,1811
813.850037,1844
813.96875,1831
814.087524,1859
814.206238,1869
814.324951,1832
814.443604,1816
814.562256,1854
814.68103,1881
814.799683,1864
814.918335,1891
815.037109,1837
815.155762,1801
815.274475,1843
815.393188,1859
815.511841,1856
815.630554,1874
815.749146,1853
815.867859,1838
815.986572,1847
816.105164,1839
816.223877,1885
816.342529,1860
816.461182,1858
816.579895,1859
816.698486,1885
816.817139,1842
816.935791,1882
817.054504,1848
817.173096,1889
817.291748,1850
817.4104,1866
817.529053,1838
817.647644,1861
817.766235,1840
817.884949,1834
818.00354,1798
818.122192,1788
818.240845,1754
818.359436,1741
818.478088,1761
818.59668,1813
818.715271,1745
818.833923,1741
818.952515,1750
819.071106,1729
819.189758,1725
819.30835,1709
819.426941,1672
819.545532,1711
819.664124,1735
819.782715,1702
819.901306,1738
820.019897,1637
820.138489,1712
820.25708,1665
820.375671,1707
820.494202,1672
820.612732,1698
820.731384,1718
820.849915,1695
820.968506,1704
821.087097,1704
821.205627,1653
821.324158,1670
821.442749,1642
821.561279,1635
821.679871,1684
821.798401,1633
821.916931,1645
822.035461,1670
822.154053,1644
822.272583,1636
822.391174,1613
822.509583,1587
822.628174,1601
822.746704,1661
822.865234,1622
822.983765,1599
823.102295,1587
823.220825,1599
823.339294,1615
823.457825,1646
823.576355,1606
823.694824,1639
823.813354,1619
823.931885,1635
824.050354,1602
824.168884,1627
824.287354,1627
824.405823,1605
824.524353,1677
824.642822,1602
824.761353,1612
824.879822,1630
824.998291,1661
825.116699,1670
825.235291,1639
825.353699,1613
825.472168,1648
825.590637,1585
825.709106,1618
825.827576,1638
825.946045,1600
826.064453,1669
826.182983,1562
826.301392,1627
826.4198,1595
826.53833,1558
826.656738,1602
826.775208,1537
826.893677,1651
827.012024,1597
827.130493,1599
827.248962,1645
827.36731,1633
827.485779,1613
827.604248,1614
827.722595,1571
827.841064,1507
827.959412,1563
828.077942,1602
828.196289,1566
828.314636,1599
828.433105,1539
828.551514,1571
828.669861,1560
828.78833,1585
828.906677,1562
829.025085,1544
829.143433,1582
829.261841,1567
829.38031,1581
829.498657,1566
829.617004,1620
829.735413,1585
829.85376,1574
829.972107,1555
830.090515,1526
830.208862,1563
830.327209,1544
830.445557,1586
830.563904,1579
830.682312,1561
830.800659,1551
830.919006,1550
831.037354,1615
831.155701,1627
831.274048,1688
831.392395,1605
831.51062,1618
831.629028,1567
831.747314,1601
831.865662,1577
831.984009,1602
832.102356,1599
832.220642,1562
832.338928,1610
832.457275,1661
832.575623,1620
832.693909,1597
832.812134,1615
832.930481,1612
833.048828,1613
833.167114,1543
833.2854,1590
833.403687,1613
833.521973,1560
833.640259,1557
833.758545,1596
833.876831,1593
833.995056,1609
834.113281,1591
834.231628,1626
834.349915,1612
834.468201,1564
834.586426,1620
834.704651,1589
834.822998,1597
834.941162,1593
835.059448,1578
835.177673,1603
835.295959,1624
835.414246,1639
835.53241,1596
835.650635,1586
835.768921,1566
835.887146,1565
836.005371,1611
836.123596,1553
836.241821,1593
836.360046,1560
836.478271,1581
836.596497,1554
836.714722,1604
836.832886,1599
836.95105,1575
837.069336,1569
837.1875,1593
837.305725,1532
837.423889,1580
837.542053,1552
837.660339,1555
837.778503,1545
837.896667,1558
838.014832,1564
838.132996,1550
838.25116,1592
838.369385,1560
838.487488,1586
838.605713,1569
838.723877,1620
838.84198,1580
838.960205,1667
839.078308,1589
839.196472,1627
839.314636,1657
839.4328,1641
839.550964,1657
839.669067,1659
839.787231,1675
839.905396,1668
840.023499,1734
840.141602,1713
840.259766,1716
840.377869,1707
840.495972,1710
840.614136,1684
840.732239,1735
840.850342,1744
840.968445,1741
841.086548,1768
841.204651,1733
841.322754,1788
841.440918,1813
841.55896,1804
841.677002,1807
841.795166,1839
841.913208,1831
842.031311,1822
842.149353,1816
842.267456,1780
842.385498,1802
842.503601,1803
842.621643,1780
842.739746,1776
842.857788,1768
842.97583,1766
843.093933,1793
843.211975,1781
843.330017,1782
843.44812,1709
843.566101,1726
843.684204,1800
843.802246,1780
843.920227,1747
844.038269,1742
844.156311,1702
844.274292,1695
844.392395,1731
844.510376,1756
844.628357,1710
844.74646,1683
844.864441,1732
844.982422,1703
845.100403,1710
845.218384,1713
845.336426,1731
845.454468,1735
845.572449,1704
845.69043,1693
845.808411,1745
845.926453,1674
846.044373,1684
846.162354,1717
846.280396,1708
846.398315,1718
846.516296,1765
846.634216,1703
846.752197,1747
846.870178,1790
846.988098,1706
847.106079,1795
847.22406,1751
847.34198,1749
847.4599,1717
847.577881,1748
847.695801,1752
847.813782,1753
847.931641,1751
848.049561,1752
848.167603,1690
848.285461,1736
848.403381,1670
848.521362,1692
848.639221,1697
848.75708,1755
848.875,1752
848.99292,1738
849.110901,1698
849.22876,1765
849.34668,1711
849.464539,1757
849.582458,1750
849.700317,1768
849.818176,1722
849.936096,1755
850.053955,1790
850.171875,1715
850.289673,1741
850.407593,1701
850.525452,1756
850.643311,1741
850.761169,1727
850.878967,1711
850.996887,1703
851.114746,1720
851.232544,1715
851.350403,1711
851.468262,1756
851.58606,1672
851.703979,1726
851.821777,1706
851.939636,1767
852.057434,1698
852.175232,1694
852.293091,1739
852.410889,1812
852.528687,1831
852.646545,1876
852.764343,1908
852.88208,1882
852.999939,1801
853.117676,1802
853.235535,1769
853.353271,1734
853.471069,1723
853.588928,1760
853.706604,1714
853.824402,1680
853.9422,1753
854.059998,1701
854.177734,1717
854.295532,1689
854.413269,1741
854.531006,1779
854.648804,1773
854.766541,1760
854.884277,1776
855.002014,1764
855.119751,1756
855.237549,1756
855.355225,1737
855.473022,1713
855.590698,1743
855.708435,1794
855.826172,1731
855.943848,1754
856.061646,1801
856.179321,1795
856.296997,1767
856.414795,1759
856.53241,1779
856.650085,1829
856.767822,1867
856.885559,1847
857.003174,1844
857.120911,1903
857.238586,1829
857.356201,1876
857.473938,1815
857.591614,1797
857.709351,1766
857.826965,1821
857.944641,1816
858.062317,1814
858.179993,1827
858.297668,1813
858.415283,1808
858.532959,1797
858.650574,1806
858.768188,1813
858.885803,1850
859.003479,1786
859.121094,1818
859.23877,1767
859.356384,1810
859.473999,1762
859.591675,1756
859.709229,1762
859.826843,1783
859.944458,1693
860.062012,1725
860.179626,1747
860.297302,1658
860.414856,1720
860.532471,1705
860.650024,1724
860.767639,1667
860.885193,1685
861.002808,1697
861.120361,1752
861.237976,1690
861.35553,1708
861.473022,1738
861.590698,1705
861.708191,1717
861.825745,1709
861.943298,1717
862.060852,1684
862.178406,1672
862.295959,1615
862.413513,1648
862.531006,1645
862.64856,1592
862.766113,1615
862.883667,1633
863.00116,1581
863.118713,1588
863.236206,1629
863.353699,1574
863.471252,1632
863.588745,1667
863.706177,1623
863.82373,1678
863.941162,1656
864.058716,1650
864.176208,1626
864.29364,1620
864.411194,1659
864.528687,1657
864.646118,1609
864.763611,1595
864.881042,1615
864.998535,1591
865.116028,1608
865.233459,1578
865.350891,1546
865.468384,1599
865.585754,1641
865.703308,1642
865.820679,1592
865.938171,1618
866.055542,1612
866.173035,1555
866.290466,1589
866.407837,1601
866.52533,1665
866.6427,1587
866.760071,1586
866.877563,1649
866.994934,1624
867.112305,1617
867.229736,1635
867.347107,1638
867.464539,1626
867.58197,1669
867.699341,1680
867.81665,1658
867.934082,1695
868.051453,1681
868.168823,1628
868.286194,1635
868.403564,1638
868.520935,1606
868.638306,1668
868.755676,1651
868.872986,1663
868.990295,1705
869.107727,1679
869.225037,1681
869.342346,1650
869.459717,1673
869.577026,1690
869.694336,1721
869.811707,1729
869.929016,1751
870.046326,1724
870.163635,1730
870.280945,1767
870.398254,1793
870.515564,1772
870.632812,1790
870.750183,1781
870.867432,1767
870.984741,1799
871.102051,1854
871.219299,1807
871.336609,1849
871.453918,1813
871.571106,1839
871.688416,1814
871.805664,1843
871.922852,1855
872.040222,1859
872.157471,1858
872.274719,1857
872.391968,1834
872.509155,1833
872.626465,1873
872.743652,1833
872.860962,1826
872.978149,1837
873.095337,1863
873.212646,1758
873.329834,1794
873.44696,1798
873.564209,1830
873.681396,1804
873.798645,1765
873.915894,1792
874.03302,1790
874.150208,1846
874.267456,1791
874.384583,1824
874.501831,1854
874.618958,1858
874.736145,1877
874.853333,1836
874.970459,1866
875.087646,1879
875.204834,1856
875.32196,1891
875.439148,1852
875.556274,1808
875.673401,1794
875.790527,1784
875.907715,1781
876.024841,1805
876.141968,1759
876.259094,1767
876.376282,1795
876.493347,1767
876.610474,1731
876.7276,1771
876.844727,1724
876.961853,1736
877.078918,1775
877.195984,1742
877.313171,1754
877.430237,1744
877.547302,1713
877.664368,1718
877.781433,1693
877.898499,1723
878.015625,1715
878.13269,1743
878.249695,1749
878.366821,1685
878.483887,1657
878.600952,1693
878.717957,1696
878.834961,1651
878.952087,1631
879.069092,1675
879.186157,1622
879.303162,1626
879.420227,1656
879.537231,1638
879.654236,1619
879.77124,1553
879.888306,1601
880.005249,1625
880.122314,1616
880.239319,1608
880.356323,1554
880.473328,1603
880.590271,1564
880.707275,1582
880.824341,1618
880.941284,1563
881.058228,1575
881.175232,1627
881.292236,1534
881.40918,1553
881.526123,1576
881.643066,1567
881.760071,1550
881.877014,1573
881.993958,1623
882.11084,1579
882.227783,1552
882.344727,1584
882.46167,1596
882.578613,1587
882.695618,1527
882.812439,1542
882.929382,1572
883.046326,1610
883.163208,1541
883.280151,1607
883.397034,1539
883.513916,1567
883.630798,1588
883.747742,1627
883.864563,1579
883.981506,1626
884.098389,1653
884.21521,1624
884.332153,1662
884.448975,1715
884.565796,1693
884.682678,1749
884.7995,1750
884.916443,1860
885.033264,1888
885.150085,1982
885.266968,2011
885.383789,2083
885.500671,2058
885.617493,2118
885.734314,2115
885.851196,2110
885.967896,2053
886.084717,2109
886.201599,2062
886.318359,2057
886.435181,2037
886.552002,2021
886.668762,1987
886.785645,2030
886.902344,2011
887.019165,1966
887.135925,1948
887.252747,1954
887.369446,1926
887.486267,1940
887.603027,1855
887.719788,1832
887.836548,1809
887.953247,1770
888.070068,1757
888.186829,1702
888.303528,1690
888.420288,1631
888.536987,1633
888.653687,1577
888.770447,1573
888.887146,1518
889.003967,1545
889.120667,1564
889.237305,1553
889.354065,1530
889.470703,1540
889.587463,1519
889.704163,1483
889.820862,1481
889.937561,1530
890.054199,1446
890.170837,1487
890.287598,1464
890.404236,1422
890.520874,1508
890.637634,1474
890.754211,1499
890.87085,1449
890.987549,1522
891.104187,1492
891.220886,1509
891.337463,1528
891.454102,1471
891.57074,1549
891.687378,1515
891.804077,1484
891.920654,1558
892.037231,1527
892.15387,1503
892.270447,1524
892.387085,1486
892.503723,1531
892.6203,1486
892.736877,1511
892.853516,1472
892.970032,1491
893.08667,1501
893.203186,1520
893.319763,1464
893.43634,1498
893.552917,1466
893.669556,1505
893.786011,1543
893.902588,1496
894.019165,1452
894.135681,1502
894.252197,1488
894.368835,1552
894.485291,1531
894.601868,1467
894.718384,1518
894.8349,1465
894.951355,1475
895.067932,1479
895.184448,1464
895.300964,1495
895.417419,1482
895.533936,1514
895.650452,1478
895.766907,1503
895.883423,1434
895.999878,1489
896.116333,1457
896.232849,1499
896.349304,1449
896.465759,1456
896.582214,1454
896.698669,1487
896.815125,1474
896.931641,1466
897.048035,1488
897.164551,1472
897.280884,1511
897.397339,1486
897.513794,1486
897.630249,1504
897.746582,1460
897.863098,1493
897.979431,1458
898.095886,1528
898.212341,1515
898.328674,1537
898.445129,1482
898.561462,1505
898.677795,1491
898.794312,1498
898.910645,1508
899.026978,1534
899.143433,1537
899.259766,1508
899.37616,1485
899.492493,1476
899.608765,1501
899.725159,1508
899.841553,1496
899.957947,1529
900.07428,1504
900.190552,1566
900.306946,1506
900.423157,1504
900.53949,1499
900.655884,1471
900.772156,1535
900.888489,1527
901.004822,1527
901.121033,1532
901.237366,1564
901.353699,1546
901.46991,1571
901.586304,1598
901.702515,1583
901.818787,1601
901.93512,1586
902.051331,1607
902.167603,1626
902.283875,1686
902.400085,1713
902.516418,1798
902.632629,1781
902.74884,1811
902.865112,1869
902.981384,1847
903.097595,1804
903.213867,1835
903.330017,1768
903.446289,1775
903.5625,1752
903.67865,1764
903.794922,1704
903.911072,1746
904.027344,1675
904.143494,1674
904.259705,1673
904.375916,1658
904.492065,1592
904.608215,1665
904.724426,1588
904.840576,1576
904.956726,1637
905.072876,1557
905.189087,1531
905.305176,1536
905.421387,1548
905.537537,1526
905.653687,1485
905.769775,1456
905.885925,1523
906.002014,1496
906.118164,1499
906.234314,1445
906.350403,1459
906.466492,1470
906.582642,1475
906.69873,1461
906.814758,1460
906.930908,1494
907.046936,1439
907.163086,1451
907.279175,1463
907.395264,1467
907.511353,1463
907.62738,1467
907.743408,1443
907.859497,1446
907.975525,1472
908.091553,1413
908.207703,1403
908.32373,1409
908.439758,1465
908.555786,1462
908.671814,1465
908.787842,1434
908.90387,1455
909.019775,1453
909.135864,1480
909.251892,1449
909.367859,1472
909.483826,1478
909.599854,1474
909.715881,1521
909.831848,1464
909.947815,1455
910.063782,1465
910.179749,1486
910.295776,1470
910.411743,1468
910.527649,1462
910.643616,1445
910.759583,1457
910.875488,1539
910.991455,1448
911.107361,1465
911.223267,1449
911.339294,1445
911.4552,1432
911.571106,1482
911.687073,1455
911.802979,1412
911.918823,1461
912.034729,1475
912.150635,1407
912.266602,1443
912.382446,1420
912.498352,1434
912.614197,1440
912.730103,1436
912.846008,1487
792.44574,5016
792.56488,4827
792.68396,4753
792.80304,4560
792.92218,4472
793.041199,4347
793.160339,4336
793.279419,4181
793.398499,4098
793.517578,3960
793.636658,3910
793.755737,3796
793.874817,3745
793.993896,3730
794.112976,3587
794.232056,3468
794.351074,3436
794.470215,3424
794.589233,3384
794.708313,3267
794.827393,3154
794.946411,3196
795.065552,3142
795.18457,3121
795.303589,3115
795.422668,3104
795.541687,3059
795.660767,2963
795.779846,2953
795.898865,2829
796.017883,2823
796.136963,2740
796.255981,2796
796.375061,2788
796.49408,2784
796.613037,2705
796.732117,2640
796.851135,2653
796.970154,2618
797.089233,2623
797.208191,2622
797.327271,2568
797.446228,2563
797.565186,2519
797.684265,2525
797.803223,2508
797.922241,2514
798.04126,2472
798.160278,2493
798.279297,2440
798.398315,2433
798.517273,2395
798.636292,2345
798.75531,2355
798.874268,2365
798.993286,2353
799.112244,2341
799.231323,2320
799.350281,2329
799.469238,2394
799.588257,2356
799.707153,2339
799.826111,2309
799.945129,2280
800.064087,2323
800.183044,2257
800.302063,2276
800.421021,2225
800.539978,2251
800.658936,2255
800.777893,2198
800.896912,2202
801.015747,2207
801.134705,2173
801.253723,2190
801.37262,2160
801.491638,2177
801.610535,2158
801.729492,2167
801.84845,2172
801.967407,2163
802.086243,2154
802.205261,2119
802.324158,2081
802.443115,2078
802.562073,2093
802.680969,2063
802.799927,2096
802.918762,2096
803.037659,2075
803.156677,2057
803.275574,2097
803.39447,2068
803.513428,2064
803.632263,2125
803.751221,2006
803.870117,2070
803.989014,2092
804.107971,2003
804.226746,2090
804.345642,2007
804.4646,2037
804.583496,1988
804.702393,2040
804.821228,2048
804.940125,2033
805.059021,2005
805.177917,2009
805.296814,1980
805.415649,1991
805.534546,1980
805.653442,1993
805.772278,1981
805.891113,1970
806.01001,2016
806.128906,1979
806.247742,1962
806.366577,1953
806.485413,1982
806.604309,1975
806.723145,1960
806.84198,1962
806.960876,1956
807.079712,1961
807.198486,1976
807.317383,1882
807.436218,1966
807.554993,1880
807.673889,1945
807.792725,1966
807.91156,1898
808.030396,1902
808.14917,1952
808.268005,1893
808.386841,1920
808.505676,1935
808.624451,1909
808.743286,1955
808.862122,1864
808.980896,1889
809.099731,1839
809.218506,1942
809.337341,1929
809.456116,1859
809.57489,1915
809.693726,1915
809.8125,1902
809.931274,1880
810.050049,1882
810.168884,1871
810.287659,1878
810.406372,1867
810.525269,1895
810.643982,1867
810.762756,1895
810.881531,1908
811.000305,1959
811.11908,1866
811.237854,1903
811.356567,1874
811.475403,1842
811.594116,1869
811.71283,1912
811.831604,1889
811.950378,1970
812.069153,1928
812.187927,1929
812.30658,1975
812.425415,1961
812.544128,1937
812.662781,1966
812.781616,1951
812.900269,1912
813.019043,1934
813.137756,1924
813.256531,1841
813.375244,1897
813.493896,1852
813.612671,1912
813.731384,1907
813.850037,1863
813.96875,1851
814.087524,1826
814.206238,1866
814.324951,1871
814.443604,1826
814.562256,1818
814.68103,1821
814.799683,1842
814.918335,1789
815.037109,1846
815.155762,1835
815.274475,1866
815.393188,1834
815.511841,1843
815.630554,1819
815.749146,1803
815.867859,1861
815.986572,1824
816.105164,1840
816.223877,1861
816.342529,1846
816.461182,1879
816.579895,1918
816.698486,1888
816.817139,1881
816.935791,1895
817.054504,1869
817.173096,1869
817.291748,1879
817.4104,1860
817.529053,1796
817.647644,1853
817.766235,1816
817.884949,1791
818.00354,1807
818.122192,1783
818.240845,1775
818.359436,1767
818.478088,1782
818.59668,1748
818.715271,1763
818.833923,1706
818.952515,1712
819.071106,1696
819.189758,1680
819.30835,1722
819.426941,1688
819.545532,1757
819.664124,1714
819.782715,1679
819.901306,1700
820.019897,1649
820.138489,1713
820.25708,1660
820.375671,1734
820.494202,1702
820.612732,1669
820.731384,1728
820.849915,1642
820.968506,1713
821.087097,1659
821.205627,1691
821.324158,1661
821.442749,1651
821.561279,1669
821.679871,1587
821.798401,1643
821.916931,1612
822.035461,1656
822.154053,1645
822.272583,1676
822.391174,1589
822.509583,1661
822.628174,1686
822.746704,1659
822.865234,1645
822.983765,1592
823.102295,1634
823.220825,1582
823.339294,1555
823.457825,1598
823.576355,1595
823.694824,1637
823.813354,1629
823.931885,1627
824.050354,1637
824.168884,1679
824.287354,1650
824.405823,1658
824.524353,1614
824.642822,1638
824.761353,1653
824.879822,1643
824.998291,1641
825.116699,1633
825.235291,1566
825.353699,1599
825.472168,1592
825.590637,1644
825.709106,1597
825.827576,1649
825.946045,1600
826.064453,1613
826.182983,1623
826.301392,1576
826.4198,1561
826.53833,1604
826.656738,1605
826.775208,1597
826.893677,1576
827.012024,1620
827.130493,1644
827.248962,1592
827.36731,1595
827.485779,1610
827.604248,1606
827.722595,1572
827.841064,1533
827.959412,1575
828.077942,1528
828.196289,1586
828.314636,1514
828.433105,1556
828.551514,1585
828.669861,1557
828.78833,1536
828.906677,1547
829.025085,1564
829.143433,1604
829.261841,1531
829.38031,1562
829.498657,1509
829.617004,1612
829.735413,1551
829.85376,1552
829.972107,1553
830.090515,1589
830.208862,1544
830.327209,1542
830.445557,1545
830.563904,1550
830.682312,1538
830.800659,1512
830.919006,1542
831.037354,1564
831.155701,1641
831.274048,1595
831.392395,1610
831.51062,1616
831.629028,1613
831.747314,1620
831.865662,1589
831.984009,1623
832.102356,1603
832.220642,1599
832.338928,1679
832.457275,1635
832.575623,1623
832.693909,1579
832.812134,1615
832.930481,1580
833.048828,1590
833.167114,1567
833.2854,1547
833.403687,1561
833.521973,1578
833.640259,1573
833.758545,1575
833.876831,1588
833.995056,1580
834.113281,1623
834.231628,1564
834.349915,1613
834.468201,1595
834.586426,1625
834.704651,1572
834.822998,1583
834.941162,1642
835.059448,1572
835.177673,1581
835.295959,1612
835.414246,1607
835.53241,1606
835.650635,1609
835.768921,1578
835.887146,1571
836.005371,1573
836.123596,1539
836.241821,1529
836.360046,1561
836.478271,1573
836.596497,1551
836.714722,1562
836.832886,1586
836.95105,1495
837.069336,1614
837.1875,1544
837.305725,1572
837.423889,1550
837.542053,1533
837.660339,1557
837.778503,1547
837.896667,1530
838.014832,1553
838.132996,1563
838.25116,1566
838.369385,1608
838.487488,1574
838.605713,1573
838.723877,1645
838.84198,1629
838.960205,1589
839.078308,1631
839.196472,1612
839.314636,1632
839.4328,1683
839.550964,1685
839.669067,1657
839.787231,1679
839.905396,1718
840.023499,1726
840.141602,1745
840.259766,1731
840.377869,1700
840.495972,1724
840.614136,1689
840.732239,1682
840.850342,1702
840.968445,1759
841.086548,1718
841.204651,1788
841.322754,1789
841.440918,1797
841.55896,1812
841.677002,1845
841.795166,1776
841.913208,1805
842.031311,1870
842.149353,1748
842.267456,1812
842.385498,1815
842.503601,1746
842.621643,1770
842.739746,1746
842.857788,1771
842.97583,1778
843.093933,1714
843.211975,1777
843.330017,1767
843.44812,1723
843.566101,1748
843.684204,1761
843.802246,1763
843.920227,1728
844.038269,1786
844.156311,1751
844.274292,1706
844.392395,1746
844.510376,1741
844.628357,1685
844.74646,1691
844.864441,1729
844.982422,1707
845.100403,1706
845.218384,1675
845.336426,1732
845.454468,1670
845.572449,1736
845.69043,1671
845.808411,1647
845.926453,1666
846.044373,1650
846.162354,1702
846.280396,1710
846.398315,1677
846.516296,1731
846.634216,1741
846.752197,1712
846.870178,1800
846.988098,1714
847.106079,1727
847.22406,1762
847.34198,1763
847.4599,1731
847.577881,1779
847.695801,1731
847.813782,1736
847.931641,1713
848.049561,1775
848.167603,1718
848.285461,1698
848.403381,1755
848.521362,1784
848.639221,1735
848.75708,1780
848.875,1708
848.99292,1715
849.110901,1742
849.22876,1712
849.34668,1732
849.464539,1762
849.582458,1780
849.700317,1721
849.818176,1799
849.936096,1739
850.053955,1740
850.171875,1737
850.289673,1715
850.407593,1761
850.525452,1755
850.643311,1788
850.761169,1738
850.878967,1728
850.996887,1693
851.114746,1753
851.232544,1689
851.350403,1671
851.468262,1702
851.58606,1685
851.703979,1734
851.821777,1700
851.939636,1691
852.057434,1699
852.175232,1735
852.293091,1727
852.410889,1792
852.528687,1795
852.646545,1891
852.764343,1907
852.88208,1850
852.999939,1831
853.117676,1817
853.235535,1767
853.353271,1751
853.471069,1728
853.588928,1656
853.706604,1733
853.824402,1721
853.9422,1702
854.059998,1663
854.177734,1706
854.295532,1742
854.413269,1710
854.531006,1788
854.648804,1752
854.766541,1719
854.884277,1816
855.002014,1744
855.119751,1720
855.237549,1692
855.355225,1780
855.473022,1789
855.590698,1688
855.708435,1738
855.826172,1704
855.943848,1736
856.061646,1743
856.179321,1707
856.296997,1774
856.414795,1842
856.53241,1796
856.650085,1796
856.767822,1817
856.885559,1825
857.003174,1831
857.120911,1868
857.238586,1847
857.356201,1830
857.473938,1826
857.591614,1793
857.709351,1798
857.826965,1802
857.944641,1835
858.062317,1856
858.179993,1805
858.297668,1822
858.415283,1813
858.532959,1814
858.650574,1822
858.768188,1810
858.885803,1759
859.003479,1786
859.121094,1774
859.23877,1792
859.356384,1746
859.473999,1800
859.591675,1763
859.709229,1762
859.826843,1774
859.944458,1732
860.062012,1725
860.179626,1692
860.297302,1687
860.414856,1698
860.532471,1705
860.650024,1720
860.767639,1710
860.885193,1709
861.002808,1744
861.120361,1671
861.237976,1681
861.35553,1711
861.473022,1731
861.590698,1720
861.708191,1697
861.825745,1714
861.943298,1755
862.060852,1669
862.178406,1709
862.295959,1647
862.413513,1629
862.531006,1571
862.64856,1626
862.766113,1567
862.883667,1553
863.00116,1584
863.118713,1602
863.236206,1576
863.353699,1585
863.471252,1590
863.588745,1637
863.706177,1608
863.82373,1632
863.941162,1705
864.058716,1648
864.176208,1656
864.29364,1630
864.411194,1614
864.528687,1596
864.646118,1601
864.763611,1555
864.881042,1583
864.998535,1577
865.116028,1628
865.233459,1627
865.350891,1602
865.468384,1612
865.585754,1593
865.703308,1569
865.820679,1589
865.938171,1622
866.055542,1575
866.173035,1620
866.290466,1605
866.407837,1617
866.52533,1607
866.6427,1602
866.760071,1626
866.877563,1586
866.994934,1646
867.112305,1611
867.229736,1658
867.347107,1644
867.464539,1641
867.58197,1675
867.699341,1628
867.81665,1707
867.934082,1663
868.051453,1696
868.168823,1662
868.286194,1623
868.403564,1668
868.520935,1636
868.638306,1671
868.755676,1602
868.872986,1613
868.990295,1645
869.107727,1702
869.225037,1689
869.342346,1708
869.459717,1681
869.577026,1650
869.694336,1743
869.811707,1712
869.929016,1736
870.046326,1757
870.163635,1737
870.280945,1697
870.398254,1760
870.515564,1813
870.632812,1767
870.750183,1830
870.867432,1810
870.984741,1812
871.102051,1825
871.219299,1849
871.336609,1840
871.453918,1871
871.571106,1817
871.688416,1853
871.805664,1838
871.922852,1813
872.040222,1857
872.157471,1874
872.274719,1876
872.391968,1828
872.509155,1850
872.626465,1844
872.743652,1817
872.860962,1908
872.978149,1907
873.095337,1822
873.212646,1792
873.329834,1828
873.44696,1792
873.564209,1818
873.681396,1774
873.798645,1760
873.915894,1802
874.03302,1762
874.150208,1758
874.267456,1793
874.384583,1825
874.501831,1860
874.618958,1855
874.736145,1844
874.853333,1866
874.970459,1850
875.087646,1852
875.204834,1861
875.32196,1844
875.439148,1806
875.556274,1795
875.673401,1832
875.790527,1796
875.907715,1743
876.024841,1809
876.141968,1760
876.259094,1798
876.376282,1736
876.493347,1743
876.610474,1752
876.7276,1804
876.844727,1715
876.961853,1733
877.078918,1736
877.195984,1711
877.313171,1692
877.430237,1746
877.547302,1765
877.664368,1696
877.781433,1747
877.898499,1732
878.015625,1717
878.13269,1709
878.249695,1653
878.366821,1692
878.483887,1676
878.600952,1691
878.717957,1659
878.834961,1642
878.952087,1658
879.069092,1652
879.186157,1675
879.303162,1607
879.420227,1617
879.537231,1642
879.654236,1577
879.77124,1629
879.888306,1589
880.005249,1610
880.122314,1577
880.239319,1613
880.356323,1593
880.473328,1621
880.590271,1573
880.707275,1531
880.824341,1584
880.941284,1526
881.058228,1539
881.175232,1574
881.292236,1539
881.40918,1586
881.526123,1559
881.643066,1584
881.760071,1519
881.877014,1568
881.993958,1587
882.11084,1559
882.227783,1551
882.344727,1550
882.46167,1586
882.578613,1563
882.695618,1577
882.812439,1588
882.929382,1574
883.046326,1576
883.163208,1563
883.280151,1568
883.397034,1556
883.513916,1557
883.630798,1619
883.747742,1605
883.864563,1620
883.981506,1628
884.098389,1583
884.21521,1621
884.332153,1684
884.448975,1672
884.565796,1785
884.682678,1718
884.7995,1783
884.916443,1843
885.033264,1931
885.150085,1928
885.266968,2011
885.383789,2078
885.500671,2113
885.617493,2088
885.734314,2126
885.851196,2098
885.967896,2060
886.084717,2089
886.201599,2045
886.318359,2109
886.435181,1998
886.552002,2045
886.668762,2013
886.785645,2005
886.902344,1991
887.019165,1985
887.135925,1996
887.252747,1970
887.369446,1929
887.486267,1901
887.603027,1849
887.719788,1830
887.836548,1773
887.953247,1783
888.070068,1759
888.186829,1749
888.303528,1718
888.420288,1657
888.536987,1624
888.653687,1555
888.770447,1615
888.887146,1513
889.003967,1547
889.120667,1493
889.237305,1533
889.354065,1509
889.470703,1473
889.587463,1484
889.704163,1501
889.820862,1517
889.937561,1446
890.054199,1490
890.170837,1449
890.287598,1488
890.404236,1524
890.520874,1446
890.637634,1472
890.754211,1513
890.87085,1497
890.987549,1505
891.104187,1482
891.220886,1514
891.337463,1524
891.454102,1530
891.57074,1560
891.687378,1493
891.804077,1544
891.920654,1491
892.037231,1499
892.15387,1542
892.270447,1525
892.387085,1512
892.503723,1555
892.6203,1532
892.736877,1502
892.853516,1507
892.970032,1521
893.08667,1478
893.203186,1508
893.319763,1468
893.43634,1496
893.552917,1512
893.669556,1491
893.786011,1525
893.902588,1527
894.019165,1514
894.135681,1472
894.252197,1509
894.368835,1555
894.485291,1470
894.601868,1492
894.718384,1485
894.8349,1463
894.951355,1523
895.067932,1517
895.184448,1486
895.300964,1518
895.417419,1485
895.533936,1486
895.650452,1510
895.766907,1452
895.883423,1498
895.999878,1455
896.116333,1458
896.232849,1512
896.349304,1473
896.465759,1469
896.582214,1464
896.698669,1481
896.815125,1459
896.931641,1485
897.048035,1471
897.164551,1482
897.280884,1441
897.397339,1461
897.513794,1451
897.630249,1489
897.746582,1495
897.863098,1481
897.979431,1516
898.095886,1470
898.212341,1489
898.328674,1513
898.445129,1518
898.561462,1518
898.677795,1552
898.794312,1506
898.910645,1549
899.026978,1512
899.143433,1548
899.259766,1521
899.37616,1479
899.492493,1538
899.608765,1503
899.725159,1496
899.841553,1492
899.957947,1501
900.07428,1532
900.190552,1556
900.306946,1520
900.423157,1514
900.53949,1516
900.655884,1513
900.772156,1554
900.888489,1578
901.004822,1501
901.121033,1539
901.237366,1549
901.353699,1510
901.46991,1557
901.586304,1568
901.702515,1590
901.818787,1633
901.93512,1596
902.051331,1645
902.167603,1677
902.283875,1693
902.400085,1708
902.516418,1749
902.632629,1779
902.74884,1799
902.865112,1857
902.981384,1812
903.097595,1772
903.213867,1822
903.330017,1819
903.446289,1783
903.5625,1775
903.67865,1736
903.794922,1729
903.911072,1715
904.027344,1723
904.143494,1701
904.259705,1656
904.375916,1620
904.492065,1628
904.608215,1554
904.724426,1573
904.840576,1598
904.956726,1583
905.072876,1618
905.189087,1542
905.305176,1544
905.421387,1562
905.537537,1534
905.653687,1510
905.769775,1523
905.885925,1511
906.002014,1501
906.118164,1540
906.234314,1515
906.350403,1476
906.466492,1468
906.582642,1462
906.69873,1481
906.814758,1535
906.930908,1476
907.046936,1477
907.163086,1476
907.279175,1454
907.395264,1505
907.511353,1470
907.62738,1461
907.743408,1481
907.859497,1474
907.975525,1446
908.091553,1466
908.207703,1484
908.32373,1494
908.439758,1459
908.555786,1494
908.671814,1493
908.787842,1467
908.90387,1444
909.019775,1471
909.135864,1465
909.251892,1480
909.367859,1460
909.483826,1480
909.599854,1503
909.715881,1497
909.831848,1523
909.947815,1497
910.063782,1529
910.179749,1463
910.295776,1485
910.411743,1523
910.527649,1508
910.643616,1502
910.759583,1506
910.875488,1502
910.991455,1468
911.107361,1484
911.223267,1504
911.339294,1451
911.4552,1456
911.571106,1484
911.687073,1473
911.802979,1457
911.918823,1454
912.034729,1419
912.150635,1441
912.266602,1433
912.382446,1473
912.498352,1428
912.614197,1470
912.730103,1465
912.846008,1437
792.44574,5039
792.56488,4883
792.68396,4674
792.80304,4628
792.92218,4471
793.041199,4287
793.160339,4237
793.279419,4198
793.398499,4048
793.517578,3975
793.636658,3906
793.755737,3845
793.874817,3752
793.993896,3701
794.112976,3550
794.232056,3455
794.351074,3410
794.470215,3422
794.589233,3359
794.708313,3278
794.827393,3218
794.946411,3182
795.065552,3193
795.18457,3047
795.303589,3104
795.422668,3079
795.541687,2990
795.660767,2989
795.779846,2957
795.898865,2870
796.017883,2843
796.136963,2794
796.255981,2807
796.375061,2767
796.49408,2750
796.613037,2663
796.732117,2769
796.851135,2589
796.970154,2643
797.089233,2638
797.208191,2610
797.327271,2566
797.446228,2554
797.565186,2490
797.684265,2502
797.803223,2445
797.922241,2475
798.04126,2496
798.160278,2427
798.279297,2427
798.398315,2431
798.517273,2343
798.636292,2414
798.75531,2426
798.874268,2361
798.993286,2363
799.112244,2350
799.231323,2339
799.350281,2338
799.469238,2344
799.588257,2307
799.707153,2392
799.826111,2279
799.945129,2241
800.064087,2290
800.183044,2280
800.302063,2224
800.421021,2263
800.539978,2255
800.658936,2193
800.777893,2216
800.896912,2218
801.015747,2206
801.134705,2197
801.253723,2174
801.37262,2162
801.491638,2212
801.610535,2194
801.729492,2193
801.84845,2102
801.967407,2100
802.086243,2086
802.205261,2129
802.324158,2119
802.443115,2125
802.562073,2082
802.680969,2155
802.799927,2092
802.918762,2071
803.037659,2059
803.156677,2057
803.275574,2086
803.39447,2036
803.513428,2107
803.632263,2046
803.751221,2012
803.870117,2021
803.989014,2007
804.107971,2086
804.226746,2030
804.345642,2024
804.4646,1995
804.583496,2044
804.702393,2051
804.821228,1997
804.940125,2004
805.059021,1979
805.177917,1961
805.296814,1943
805.415649,1948
805.534546,2031
805.653442,1955
805.772278,1961
805.891113,1924
806.01001,1990
806.128906,1947
806.247742,1988
806.366577,1982
806.485413,1946
806.604309,1977
806.723145,1963
806.84198,1918
806.960876,1927
807.079712,1925
807.198486,1942
807.317383,1875
807.436218,1934
807.554993,1965
807.673889,1941
807.792725,1858
807.91156,1913
808.030396,1915
808.14917,1888
808.268005,1875
808.386841,1911
808.505676,1848
808.624451,1899
808.743286,1876
808.862122,1896
808.980896,1894
809.099731,1892
809.218506,1874
809.337341,1889
809.456116,1856
809.57489,1901
809.693726,1895
809.8125,1903
809.931274,1895
810.050049,1915
810.168884,1871
810.287659,1891
810.406372,1869
810.525269,1851
810.643982,1852
810.762756,1849
810.881531,1902
811.000305,1908
811.11908,1920
811.237854,1912
811.356567,1848
811.475403,1876
811.594116,1947
811.71283,1935
811.831604,1897
811.950378,1968
812.069153,1905
812.187927,1913
812.30658,1977
812.425415,1915
812.544128,1901
812.662781,1924
812.781616,1864
812.900269,1948
813.019043,1886
813.137756,1858
813.256531,1893
813.375244,1849
813.493896,1863
813.612671,1893
813.731384,1862
813.850037,1870
813.96875,1857
814.087524,1847
814.206238,1846
814.324951,1821
814.443604,1810
814.562256,1862
814.68103,1832
814.799683,1821
814.918335,1874
815.037109,1855
815.155762,1855
815.274475,1843
815.393188,1885
815.511841,1885
815.630554,1818
815.749146,1827
815.867859,1799
815.986572,1860
816.105164,1845
816.223877,1820
816.342529,1829
816.461182,1849
816.579895,1865
816.698486,1896
816.817139,1884
816.935791,1936
817.054504,1876
817.173096,1910
817.291748,1846
817.4104,1878
817.529053,1800
817.647644,1835
817.766235,1835
817.884949,1784
818.00354,1797
818.122192,1814
818.240845,1826
818.359436,1756
818.478088,1742
818.59668,1772
818.715271,1721
818.833923,1724
818.952515,1726
819.071106,1736
819.189758,1709
819.30835,1687
819.426941,1664
819.545532,1685
819.664124,1691
819.782715,1657
819.901306,1703
820.019897,1662
820.138489,1675
820.25708,1695
820.375671,1683
820.494202,1727
820.612732,1655
820.731384,1689
820.849915,1684
820.968506,1649
821.087097,1672
821.205627,1686
821.324158,1674
821.442749,1616
821.561279,1656
821.679871,1660
821.798401,1626
821.916931,1624
822.035461,1608
822.154053,1610
822.272583,1615
822.391174,1652
822.509583,1609
822.628174,1582
822.746704,1612
822.865234,1615
822.983765,1592
823.102295,1607
823.220825,1535
823.339294,1619
823.457825,1596
823.576355,1584
823.694824,1600
823.813354,1634
823.931885,1622
824.050354,1669
824.168884,1636
824.287354,1633
824.405823,1620
824.524353,1630
824.642822,1642
824.761353,1610
824.879822,1628
824.998291,1638
825.116699,1606
825.235291,1617
825.353699,1616
825.472168,1577
825.590637,1586
825.709106,1600
825.827576,1573
825.946045,1618
826.064453,1585
826.182983,1591
826.301392,1559
826.4198,1548
826.53833,1560
826.656738,1588
826.775208,1557
826.893677,1619
827.012024,1555
827.130493,1580
827.248962,1606
827.36731,1611
827.485779,1573
827.604248,1604
827.722595,1537
827.841064,1579
827.959412,1563
828.077942,1535
828.196289,1556
828.314636,1580
828.433105,1540
828.551514,1583
828.669861,1558
828.78833,1538
828.906677,1510
829.025085,1534
829.143433,1545
829.261841,1600
829.38031,1512
829.498657,1551
829.617004,1579
829.735413,1603
829.85376,1568
829.972107,1530
830.090515,1551
830.208862,1527
830.327209,1462
830.445557,1527
830.563904,1509
830.682312,1567
830.800659,1557
830.919006,1584
831.037354,1590
831.155701,1578
831.274048,1598
831.392395,1653
831.51062,1579
831.629028,1618
831.747314,1591
831.865662,1524
831.984009,1557
832.102356,1626
832.220642,1585
832.338928,1586
832.457275,1620
832.575623,1576
832.693909,1592
832.812134,1591
832.930481,1622
833.048828,1541
833.167114,1555
833.2854,1544
833.403687,1595
833.521973,1581
833.640259,1594
833.758545,1580
833.876831,1579
833.995056,1569
834.113281,1620
834.231628,1622
834.349915,1573
834.468201,1610
834.586426,1566
834.704651,1556
834.822998,1605
834.941162,1583
835.059448,1572
835.177673,1607
835.295959,1577
835.414246,1617
835.53241,1574
835.650635,1592
835.768921,1541
835.887146,1623
836.005371,1578
836.123596,1558
836.241821,1555
836.360046,1517
836.478271,1509
836.596497,1534
836.714722,1555
836.832886,1580
836.95105,1565
837.069336,1538
837.1875,1566
837.305725,1530
837.423889,1544
837.542053,1522
837.660339,1534
837.778503,1581
837.896667,1531
838.014832,1568
838.132996,1544
838.25116,1558
838.369385,1595
838.487488,1558
838.605713,1594
838.723877,1569
838.84198,1579
838.960205,1620
839.078308,1598
839.196472,1564
839.314636,1598
839.4328,1620
839.550964,1643
839.669067,1638
839.787231,1677
839.905396,1743
840.023499,1721
840.141602,1675
840.259766,1725
840.377869,1678
840.495972,1713
840.614136,1714
840.732239,1692
840.850342,1729
840.968445,1754
841.086548,1759
841.204651,1723
841.322754,1806
841.440918,1759
841.55896,1759
841.677002,1854
841.795166,1812
841.913208,1772
842.031311,1799
842.149353,1797
842.267456,1860
842.385498,1769
842.503601,1815
842.621643,1725
842.739746,1740
842.857788,1732
842.97583,1763
843.093933,1786
843.211975,1707
843.330017,1730
843.44812,1738
843.566101,1795
843.684204,1736
843.802246,1770
843.920227,1781
844.038269,1708
844.156311,1733
844.274292,1729
844.392395,1753
844.510376,1705
844.628357,1654
844.74646,1706
844.864441,1725
844.982422,1686
845.100403,1766
845.218384,1673
845.336426,1705
845.454468,1685
845.572449,1674
845.69043,1647
845.808411,1675
845.926453,1697
846.044373,1738
846.162354,1681
846.280396,1709
846.398315,1686
846.516296,1711
846.634216,1728
846.752197,1715
846.870178,1726
846.988098,1727
847.106079,1718
847.22406,1693
847.34198,1718
847.4599,1765
847.577881,1694
847.695801,1712
847.813782,1686
847.931641,1726
848.049561,1707
848.167603,1710
848.285461,1733
848.403381,1733
848.521362,1690
848.639221,1731
848.75708,1739
848.875,1733
848.99292,1705
849.110901,1729
849.22876,1725
849.34668,1746
849.464539,1773
849.582458,1740
849.700317,1688
849.818176,1759
849.936096,1741
850.053955,1783
850.171875,1738
850.289673,1758
850.407593,1739
850.525452,1719
850.643311,1753
850.761169,1780
850.878967,1676
850.996887,1742
851.114746,1765
851.232544,1710
851.350403,1705
851.468262,1662
851.58606,1707
851.703979,1687
851.821777,1681
851.939636,1698
852.057434,1716
852.175232,1715
852.293091,1709
852.410889,1756
852.528687,1819
852.646545,1866
852.764343,1901
852.88208,1854
852.999939,1797
853.117676,1784
853.235535,1753
853.353271,1695
853.471069,1711
853.588928,1744
853.706604,1657
853.824402,1707
853.9422,1710
854.059998,1697
854.177734,1679
854.295532,1692
854.413269,1725
854.531006,1728
854.648804,1757
854.766541,1739
854.884277,1779
855.002014,1773
855.119751,1723
855.237549,1760
855.355225,1719
855.473022,1705
855.590698,1768
855.708435,1765
855.826172,1725
855.943848,1811
856.061646,1773
856.179321,1720
856.296997,1780
856.414795,1779
856.53241,1795
856.650085,1829
856.767822,1772
856.885559,1841
857.003174,1848
857.120911,1854
857.238586,1875
857.356201,1847
857.473938,1829
857.591614,1791
857.709351,1812
857.826965,1818
857.944641,1809
858.062317,1814
858.179993,1848
858.297668,1793
858.415283,1810
858.532959,1814
858.650574,1775
858.768188,1842
858.885803,1839
859.003479,1827
859.121094,1795
859.23877,1738
859.356384,1774
859.473999,1751
859.591675,1732
859.709229,1730
859.826843,1690
859.944458,1682
860.062012,1731
860.179626,1703
860.297302,1713
860.414856,1661
860.532471,1675
860.650024,1713
860.767639,1691
860.885193,1740
861.002808,1720
861.120361,1730
861.237976,1698
861.35553,1692
861.473022,1738
861.590698,1712
861.708191,1685
861.825745,1724
861.943298,1711
862.060852,1669
862.178406,1653
862.295959,1639
862.413513,1611
862.531006,1643
862.64856,1548
862.766113,1602
862.883667,1524
863.00116,1585
863.118713,1637
863.236206,1621
863.353699,1592
863.471252,1632
863.588745,1592
863.706177,1691
863.82373,1617
863.941162,1644
864.058716,1622
864.176208,1650
864.29364,1579
864.411194,1609
864.528687,1635
864.646118,1619
864.763611,1605
864.881042,1637
864.998535,1584
865.116028,1590
865.233459,1596
865.350891,1575
865.468384,1656
865.585754,1667
865.703308,1602
865.820679,1651
865.938171,1600
866.055542,1631
866.173035,1573
866.290466,1589
866.407837,1604
866.52533,1646
866.6427,1615
866.760071,1616
866.877563,1644
866.994934,1629
867.112305,1602
867.229736,1682
867.347107,1604
867.464539,1659
867.58197,1672
867.699341,1670
867.81665,1648
867.934082,1664
868.051453,1627
868.168823,1658
868.286194,1667
868.403564,1643
868.520935,1630
868.638306,1575
868.755676,1621
868.872986,1686
868.990295,1646
869.107727,1665
869.225037,1657
869.342346,1710
869.459717,1701
869.577026,1731
869.694336,1696
869.811707,1746
869.929016,1739
870.046326,1771
870.163635,1762
870.280945,1741
870.398254,1770
870.515564,1724
870.632812,1782
870.750183,1765
870.867432,1818
870.984741,1851
871.102051,1804
871.219299,1828
871.336609,1788
871.453918,1825
871.571106,1804
871.688416,1837
871.805664,1857
871.922852,1870
872.040222,1887
872.157471,1868
872.274719,1854
872.391968,1831
872.509155,1866
872.626465,1887
872.743652,1815
872.860962,1831
872.978149,1807
873.095337,1814
873.212646,1799
873.329834,1820
873.44696,1829
873.564209,1764
873.681396,1792
873.798645,1778
873.915894,1774
874.03302,1780
874.150208,1779
874.267456,1834
874.384583,1865
874.501831,1875
874.618958,1882
874.736145,1886
874.853333,1836
874.970459,1907
875.087646,1859
875.204834,1843
875.32196,1844
875.439148,1874
875.556274,1849
875.673401,1834
875.790527,1721
875.907715,1795
876.024841,1797
876.141968,1742
876.259094,1748
876.376282,1780
876.493347,1716
876.610474,1790
876.7276,1692
876.844727,1715
876.961853,1733
877.078918,1712
877.195984,1725
877.313171,1725
877.430237,1723
877.547302,1702
877.664368,1735
877.781433,1713
877.898499,1690
878.015625,1714
878.13269,1707
878.249695,1665
878.366821,1700
878.483887,1652
878.600952,1663
878.717957,1711
878.834961,1669
878.952087,1630
879.069092,1650
879.186157,1670
879.303162,1630
879.420227,1630
879.537231,1647
879.654236,1583
879.77124,1626
879.888306,1543
880.005249,1567
880.122314,1570
880.239319,1590
880.356323,1571
880.473328,1624
880.590271,1539
880.707275,1587
880.824341,1605
880.941284,1555
881.058228,1567
881.175232,1616
881.292236,1552
881.40918,1587
881.526123,1542
881.643066,1547
881.760071,1587
881.877014,1595
881.993958,1580
882.11084,1539
882.227783,1540
882.344727,1573
882.46167,1585
882.578613,1567
882.695618,1635
882.812439,1617
882.929382,1617
883.046326,1584
883.163208,1598
883.280151,1587
883.397034,1603
883.513916,1595
883.630798,1556
883.747742,1622
883.864563,1653
883.981506,1651
884.098389,1610
884.21521,1665
884.332153,1701
884.448975,1648
884.565796,1749
884.682678,1708
884.7995,1777
884.916443,1890
885.033264,1958
885.150085,1924
885.266968,2039
885.383789,2127
885.500671,2038
885.617493,2106
885.734314,2155
885.851196,2113
885.967896,2121
886.084717,2076
886.201599,2123
886.318359,2047
886.435181,2041
886.552002,2037
886.668762,2073
886.785645,2030
886.902344,1973
887.019165,1988
887.135925,2009
887.252747,1947
887.369446,1936
887.486267,1871
887.603027,1883
887.719788,1834
887.836548,1863
887.953247,1777
888.070068,1720
888.186829,1744
888.303528,1632
888.420288,1622
888.536987,1627
888.653687,1565
888.770447,1571
888.887146,1557
889.003967,1581
889.120667,1560
889.237305,1519
889.354065,1543
889.470703,1494
889.587463,1505
889.704163,1519
889.820862,1488
889.937561,1514
890.054199,1496
890.170837,1433
890.287598,1436
890.404236,1417
890.520874,1478
890.637634,1522
890.754211,1522
890.87085,1478
890.987549,1481
891.104187,1511
891.220886,1522
891.337463,1449
891.454102,1556
891.57074,1508
891.687378,1511
891.804077,1524
891.920654,1493
892.037231,1528
892.15387,1508
892.270447,1492
892.387085,1501
892.503723,1505
892.6203,1480
892.736877,1517
892.853516,1509
892.970032,1499
893.08667,1505
893.203186,1501
893.319763,1480
893.43634,1506
893.552917,1486
893.669556,1493
893.786011,1485
893.902588,1434
894.019165,1541
894.135681,1488
894.252197,1533
894.368835,1467
894.485291,1585
894.601868,1519
894.718384,1540
894.8349,1475
894.951355,1553
895.067932,1496
895.184448,1484
895.300964,1450
895.417419,1508
895.533936,1517
895.650452,1474
895.766907,1460
895.883423,1506
895.999878,1453
896.116333,1532
896.232849,1498
896.349304,1458
896.465759,1485
896.582214,1500
896.698669,1477
896.815125,1520
896.931641,1498
897.048035,1507
897.164551,1501
897.280884,1510
897.397339,1512
897.513794,1500
897.630249,1496
897.746582,1463
897.863098,1546
897.979431,1492
898.095886,1481
898.212341,1511
898.328674,1548
898.445129,1548
898.561462,1501
898.677795,1537
898.794312,1535
898.910645,1570
899.026978,1513
899.143433,1569
899.259766,1518
899.37616,1499
899.492493,1516
899.608765,1529
899.725159,1509
899.841553,1550
899.957947,1541
900.07428,1496
900.190552,1547
900.306946,1504
900.423157,1540
900.53949,1529
900.655884,1591
900.772156,1575
900.888489,1545
901.004822,1513
901.121033,1588
901.237366,1562
901.353699,1566
901.46991,1598
901.586304,1591
901.702515,1610
901.818787,1591
901.93512,1662
902.051331,1647
902.167603,1723
902.283875,1677
902.400085,1773
902.516418,1811
902.632629,1791
902.74884,1829
902.865112,1850
902.981384,1824
903.097595,1820
903.213867,1855
903.330017,1774
903.446289,1787
903.5625,1781
903.67865,1749
903.794922,1759
903.911072,1703
904.027344,1763
904.143494,1703
904.259705,1662
904.375916,1682
904.492065,1637
904.608215,1626
904.724426,1585
904.840576,1610
904.956726,1578
905.072876,1586
905.189087,1521
905.305176,1544
905.421387,1590
905.537537,1528
905.653687,1508
905.769775,1490
905.885925,1557
906.002014,1541
906.118164,1490
906.234314,1505
906.350403,1477
906.466492,1499
906.582642,1495
906.69873,1489
906.814758,1469
906.930908,1446
907.046936,1482
907.163086,1476
907.279175,1462
907.395264,1444
907.511353,1477
907.62738,1483
907.743408,1474
907.859497,1492
907.975525,1466
908.091553,1478
908.207703,1459
908.32373,1473
908.439758,1441
908.555786,1503
908.671814,1472
908.787842,1476
908.90387,1501
909.019775,1494
909.135864,1481
909.251892,1502
909.367859,1546
909.483826,1531
909.599854,1533
909.715881,1476
909.831848,1515
909.947815,1463
910.063782,1533
910.179749,1541
910.295776,1538
910.411743,1502
910.527649,1506
910.643616,1521
910.759583,1523
910.875488,1496
910.991455,1490
911.107361,1516
911.223267,1473
911.339294,1480
911.4552,1457
911.571106,1470
911.687073,1467
911.802979,1460
911.918823,1454
912.034729,1460
912.150635,1519
912.266602,1454
912.382446,1491
912.498352,1419
912.614197,1467
912.730103,1501
912.846008,1487
