792.44574,5358
792.56488,5208
792.68396,5096
792.80304,4920
792.92218,4781
793.041199,4681
793.160339,4442
793.279419,4475
793.398499,4311
793.517578,4223
793.636658,4078
793.755737,4044
793.874817,3952
793.993896,3856
794.112976,3797
794.232056,3701
794.351074,3641
794.470215,3556
794.589233,3484
794.708313,3375
794.827393,3398
794.946411,3313
795.065552,3297
795.18457,3192
795.303589,3231
795.422668,3183
795.541687,3144
795.660767,3088
795.779846,3034
795.898865,3025
796.017883,2946
796.136963,2838
796.255981,2860
796.375061,2817
796.49408,2882
796.613037,2896
796.732117,2810
796.851135,2805
796.970154,2751
797.089233,2651
797.208191,2629
797.327271,2654
797.446228,2640
797.565186,2579
797.684265,2565
797.803223,2590
797.922241,2537
798.04126,2516
798.160278,2537
798.279297,2405
798.398315,2443
798.517273,2452
798.636292,2407
798.75531,2395
798.874268,2425
798.993286,2448
799.112244,2369
799.231323,2424
799.350281,2387
799.469238,2359
799.588257,2342
799.707153,2391
799.826111,2338
799.945129,2356
800.064087,2317
800.183044,2337
800.302063,2291
800.421021,2303
800.539978,2317
800.658936,2288
800.777893,2255
800.896912,2326
801.015747,2214
801.134705,2223
801.253723,2209
801.37262,2225
801.491638,2176
801.610535,2196
801.729492,2224
801.84845,2189
801.967407,2173
802.086243,2136
802.205261,2162
802.324158,2120
802.443115,2130
802.562073,2157
802.680969,2159
802.799927,2148
802.918762,2119
803.037659,2053
803.156677,2082
803.275574,2056
803.39447,2070
803.513428,2102
803.632263,2056
803.751221,2048
803.870117,2035
803.989014,1977
804.107971,2023
804.226746,2042
804.345642,2068
804.4646,2031
804.583496,2026
804.702393,2034
804.821228,2045
804.940125,2012
805.059021,1972
805.177917,2036
805.296814,2018
805.415649,1952
805.534546,1997
805.653442,1998
805.772278,1985
805.891113,1983
806.01001,1993
806.128906,2005
806.247742,1974
806.366577,1979
806.485413,2014
806.604309,2039
806.723145,1928
806.84198,1994
806.960876,1976
807.079712,1999
807.198486,1962
807.317383,1971
807.436218,1932
807.554993,1932
807.673889,1898
807.792725,1953
807.91156,1896
808.030396,1916
808.14917,1893
808.268005,1897
808.386841,1912
808.505676,1904
808.624451,1953
808.743286,1912
808.862122,1896
808.980896,1885
809.099731,1962
809.218506,1852
809.337341,1954
809.456116,1932
809.57489,1900
809.693726,1903
809.8125,1900
809.931274,1858
810.050049,1928
810.168884,1894
810.287659,1864
810.406372,1872
810.525269,1873
810.643982,1869
810.762756,1901
810.881531,1857
811.000305,1873
811.11908,1920
811.237854,1941
811.356567,1885
811.475403,1920
811.594116,1899
811.71283,1935
811.831604,1885
811.950378,1945
812.069153,1900
812.187927,1907
812.30658,1916
812.425415,1966
812.544128,1943
812.662781,2000
812.781616,1935
812.900269,1923
813.019043,1931
813.137756,1869
813.256531,1905
813.375244,1887
813.493896,1878
813.612671,1878
813.731384,1868
813.850037,1858
813.96875,1839
814.087524,1904
814.206238,1883
814.324951,1841
814.443604,1848
814.562256,1846
814.68103,1862
814.799683,1884
814.918335,1876
815.037109,1843
815.155762,1865
815.274475,1896
815.393188,1822
815.511841,1825
815.630554,1862
815.749146,1847
815.867859,1813
815.986572,1846
816.105164,1846
816.223877,1814
816.342529,1878
816.461182,1885
816.579895,1804
816.698486,1868
816.817139,1866
816.935791,1938
817.054504,1908
817.173096,1877
817.291748,1836
817.4104,1834
817.529053,1832
817.647644,1834
817.766235,1846
817.884949,1794
818.00354,1853
818.122192,1794
818.240845,1789
818.359436,1776
818.478088,1773
818.59668,1783
818.715271,1728
818.833923,1755
818.952515,1731
819.071106,1737
819.189758,1725
819.30835,1666
819.426941,1686
819.545532,1671
819.664124,1706
819.782715,1643
819.901306,1760
820.019897,1666
820.138489,1690
820.25708,1692
820.375671,1698
820.494202,1673
820.612732,1666
820.731384,1737
820.849915,1726
820.968506,1729
821.087097,1593
821.205627,1647
821.324158,1660
821.442749,1647
821.561279,1634
821.679871,1602
821.798401,1645
821.916931,1648
822.035461,1651
822.154053,1640
822.272583,1641
822.391174,1665
822.509583,1663
822.628174,1597
822.746704,1630
822.865234,1602
822.983765,1586
823.102295,1599
823.220825,1609
823.339294,1569
823.457825,1614
823.576355,1572
823.694824,1610
823.813354,1616
823.931885,1600
824.050354,1606
824.168884,1608
824.287354,1608
824.405823,1620
824.524353,1624
824.642822,1631
824.761353,1591
824.879822,1579
824.998291,1623
825.116699,1625
825.235291,1584
825.353699,1621
825.472168,1570
825.590637,1591
825.709106,1574
825.827576,1612
825.946045,1579
826.064453,1607
826.182983,1625
826.301392,1606
826.4198,1586
826.53833,1622
826.656738,1586
826.775208,1571
826.893677,1558
827.012024,1590
827.130493,1580
827.248962,1569
827.36731,1624
827.485779,1629
827.604248,1635
827.722595,1647
827.841064,1541
827.959412,1541
828.077942,1566
828.196289,1562
828.314636,1536
828.433105,1597
828.551514,1564
828.669861,1565
828.78833,1526
828.906677,1574
829.025085,1564
829.143433,1611
829.261841,1548
829.38031,1530
829.498657,1578
829.617004,1584
829.735413,1569
829.85376,1543
829.972107,1542
830.090515,1534
830.208862,1512
830.327209,1618
830.445557,1536
830.563904,1537
830.682312,1535
830.800659,1589
830.919006,1483
831.037354,1605
831.155701,1635
831.274048,1624
831.392395,1610
831.51062,1589
831.629028,1566
831.747314,1542
831.865662,1577
831.984009,1555
832.102356,1583
832.220642,1595
832.338928,1638
832.457275,1594
832.575623,1621
832.693909,1592
832.812134,1582
832.930481,1587
833.048828,1604
833.167114,1622
833.2854,1557
833.403687,1588
833.521973,1587
833.640259,1606
833.758545,1585
833.876831,1576
833.995056,1589
834.113281,1597
834.231628,1586
834.349915,1616
834.468201,1621
834.586426,1595
834.704651,1591
834.822998,1610
834.941162,1607
835.059448,1581
835.177673,1601
835.295959,1620
835.414246,1657
835.53241,1569
835.650635,1583
835.768921,1594
835.887146,1590
836.005371,1550
836.123596,1522
836.241821,1579
836.360046,1549
836.478271,1561
836.596497,1528
836.714722,1551
836.832886,1519
836.95105,1541
837.069336,1592
837.1875,1557
837.305725,1530
837.423889,1541
837.542053,1539
837.660339,1561
837.778503,1543
837.896667,1533
838.014832,1577
838.132996,1583
838.25116,1558
838.369385,1586
838.487488,1608
838.605713,1603
838.723877,1590
838.84198,1596
838.960205,1603
839.078308,1620
839.196472,1638
839.314636,1610
839.4328,1592
839.550964,1656
839.669067,1633
839.787231,1662
839.905396,1714
840.023499,1679
840.141602,1747
840.259766,1700
840.377869,1744
840.495972,1757
840.614136,1753
840.732239,1756
840.850342,1742
840.968445,1730
841.086548,1763
841.204651,1778
841.322754,1737
841.440918,1726
841.55896,1821
841.677002,1808
841.795166,1787
841.913208,1794
842.031311,1830
842.149353,1819
842.267456,1828
842.385498,1790
842.503601,1770
842.621643,1788
842.739746,1711
842.857788,1789
842.97583,1723
843.093933,1788
843.211975,1754
843.330017,1769
843.44812,1792
843.566101,1786
843.684204,1765
843.802246,1791
843.920227,1744
844.038269,1747
844.156311,1735
844.274292,1762
844.392395,1749
844.510376,1792
844.628357,1720
844.74646,1758
844.864441,1714
844.982422,1718
845.100403,1737
845.218384,1688
845.336426,1715
845.454468,1682
845.572449,1766
845.69043,1694
845.808411,1697
845.926453,1716
846.044373,1688
846.162354,1674
846.280396,1692
846.398315,1734
846.516296,1698
846.634216,1789
846.752197,1698
846.870178,1721
846.988098,1744
847.106079,1739
847.22406,1773
847.34198,1804
847.4599,1758
847.577881,1727
847.695801,1753
847.813782,1694
847.931641,1730
848.049561,1780
848.167603,1721
848.285461,1741
848.403381,1696
848.521362,1685
848.639221,1701
848.75708,1730
848.875,1753
848.99292,1730
849.110901,1760
849.22876,1731
849.34668,1737
849.464539,1747
849.582458,1788
849.700317,1711
849.818176,1732
849.936096,1741
850.053955,1758
850.171875,1731
850.289673,1715
850.407593,1746
850.525452,1770
850.643311,1705
850.761169,1717
850.878967,1702
850.996887,1656
851.114746,1745
851.232544,1707
851.350403,1716
851.468262,1717
851.58606,1699
851.703979,1669
851.821777,1728
851.939636,1691
852.057434,1737
852.175232,1722
852.293091,1722
852.410889,1742
852.528687,1889
852.646545,1926
852.764343,1949
852.88208,1904
852.999939,1854
853.117676,1778
853.235535,1729
853.353271,1761
853.471069,1777
853.588928,1744
853.706604,1743
853.824402,1725
853.9422,1690
854.059998,1769
854.177734,1779
854.295532,1680
854.413269,1743
854.531006,1751
854.648804,1743
854.766541,1842
854.884277,1753
855.002014,1758
855.119751,1783
855.237549,1761
855.355225,1779
855.473022,1786
855.590698,1753
855.708435,1781
855.826172,1756
855.943848,1762
856.061646,1739
856.179321,1795
856.296997,1773
856.414795,1788
856.53241,1802
856.650085,1795
856.767822,1807
856.885559,1841
857.003174,1841
857.120911,1810
857.238586,1856
857.356201,1889
857.473938,1831
857.591614,1821
857.709351,1821
857.826965,1836
857.944641,1836
858.062317,1809
858.179993,1761
858.297668,1781
858.415283,1822
858.532959,1778
858.650574,1852
858.768188,1780
858.885803,1771
859.003479,1795
859.121094,1788
859.23877,1762
859.356384,1799
859.473999,1762
859.591675,1735
859.709229,1754
859.826843,1754
859.944458,1707
860.062012,1723
860.179626,1671
860.297302,1740
860.414856,1746
860.532471,1743
860.650024,1650
860.767639,1726
860.885193,1697
861.002808,1680
861.120361,1711
861.237976,1697
861.35553,1709
861.473022,1710
861.590698,1688
861.708191,1720
861.825745,1697
861.943298,1710
862.060852,1672
862.178406,1663
862.295959,1617
862.413513,1622
862.531006,1597
862.64856,1599
862.766113,1607
862.883667,1630
863.00116,1572
863.118713,1597
863.236206,1644
863.353699,1650
863.471252,1621
863.588745,1617
863.706177,1651
863.82373,1670
863.941162,1693
864.058716,1709
864.176208,1612
864.29364,1653
864.411194,1605
864.528687,1606
864.646118,1657
864.763611,1599
864.881042,1589
864.998535,1592
865.116028,1586
865.233459,1635
865.350891,1593
865.468384,1587
865.585754,1614
865.703308,1612
865.820679,1579
865.938171,1633
866.055542,1614
866.173035,1631
866.290466,1570
866.407837,1594
866.52533,1589
866.6427,1575
866.760071,1615
866.877563,1621
866.994934,1618
867.112305,1644
867.229736,1638
867.347107,1628
867.464539,1633
867.58197,1696
867.699341,1691
867.81665,1668
867.934082,1658
868.051453,1680
868.168823,1669
868.286194,1609
868.403564,1638
868.520935,1672
868.638306,1637
868.755676,1612
868.872986,1690
868.990295,1685
869.107727,1748
869.225037,1680
869.342346,1733
869.459717,1688
869.577026,1746
869.694336,1726
869.811707,1779
869.929016,1747
870.046326,1746
870.163635,1760
870.280945,1763
870.398254,1778
870.515564,1771
870.632812,1760
870.750183,1859
870.867432,1817
870.984741,1830
871.102051,1791
871.219299,1876
871.336609,1910
871.453918,1846
871.571106,1851
871.688416,1827
871.805664,1875
871.922852,1854
872.040222,1894
872.157471,1876
872.274719,1861
872.391968,1867
872.509155,1871
872.626465,1871
872.743652,1786
872.860962,1849
872.978149,1832
873.095337,1863
873.212646,1850
873.329834,1814
873.44696,1831
873.564209,1759
873.681396,1844
873.798645,1806
873.915894,1843
874.03302,1796
874.150208,1846
874.267456,1807
874.384583,1823
874.501831,1900
874.618958,1895
874.736145,1897
874.853333,1933
874.970459,1923
875.087646,1887
875.204834,1853
875.32196,1848
875.439148,1847
875.556274,1793
875.673401,1797
875.790527,1777
875.907715,1796
876.024841,1769
876.141968,1786
876.259094,1777
876.376282,1781
876.493347,1769
876.610474,1772
876.7276,1745
876.844727,1737
876.961853,1738
877.078918,1712
877.195984,1693
877.313171,1735
877.430237,1745
877.547302,1751
877.664368,1687
877.781433,1742
877.898499,1759
878.015625,1740
878.13269,1720
878.249695,1687
878.366821,1683
878.483887,1663
878.600952,1672
878.717957,1670
878.834961,1674
878.952087,1644
879.069092,1687
879.186157,1659
879.303162,1650
879.420227,1657
879.537231,1608
879.654236,1591
879.77124,1610
879.888306,1604
880.005249,1597
880.122314,1593
880.239319,1620
880.356323,1534
880.473328,1571
880.590271,1601
880.707275,1574
880.824341,1608
880.941284,1586
881.058228,1595
881.175232,1594
881.292236,1614
881.40918,1577
881.526123,1553
881.643066,1557
881.760071,1580
881.877014,1568
881.993958,1580
882.11084,1614
882.227783,1584
882.344727,1562
882.46167,1598
882.578613,1583
882.695618,1571
882.812439,1583
882.929382,1532
883.046326,1593
883.163208,1564
883.280151,1601
883.397034,1587
883.513916,1629
883.630798,1610
883.747742,1607
883.864563,1654
883.981506,1632
884.098389,1607
884.21521,1632
884.332153,1630
884.448975,1676
884.565796,1697
884.682678,1768
884.7995,1813
884.916443,1813
885.033264,1930
885.150085,1962
885.266968,2036
885.383789,2076
885.500671,2147
885.617493,2162
885.734314,2195
885.851196,2146
885.967896,2134
886.084717,2139
886.201599,2133
886.318359,2101
886.435181,2075
886.552002,2092
886.668762,2061
886.785645,2022
886.902344,2024
887.019165,2008
887.135925,1953
887.252747,1935
887.369446,1954
887.486267,1880
887.603027,1865
887.719788,1782
887.836548,1788
887.953247,1767
888.070068,1728
888.186829,1741
888.303528,1678
888.420288,1697
888.536987,1575
888.653687,1591
888.770447,1565
888.887146,1566
889.003967,1530
889.120667,1568
889.237305,1500
889.354065,1527
889.470703,1494
889.587463,1450
889.704163,1502
889.820862,1479
889.937561,1457
890.054199,1471
890.170837,1499
890.287598,1464
890.404236,1443
890.520874,1481
890.637634,1439
890.754211,1452
890.87085,1455
890.987549,1471
891.104187,1527
891.220886,1455
891.337463,1485
891.454102,1476
891.57074,1496
891.687378,1469
891.804077,1531
891.920654,1523
892.037231,1501
892.15387,1512
892.270447,1522
892.387085,1488
892.503723,1485
892.6203,1522
892.736877,1486
892.853516,1473
892.970032,1473
893.08667,1518
893.203186,1535
893.319763,1439
893.43634,1477
893.552917,1544
893.669556,1505
893.786011,1503
893.902588,1511
894.019165,1479
894.135681,1454
894.252197,1523
894.368835,1523
894.485291,1484
894.601868,1477
894.718384,1507
894.8349,1484
894.951355,1446
895.067932,1474
895.184448,1444
895.300964,1497
895.417419,1461
895.533936,1482
895.650452,1447
895.766907,1492
895.883423,1510
895.999878,1459
896.116333,1481
896.232849,1505
896.349304,1453
896.465759,1505
896.582214,1457
896.698669,1472
896.815125,1480
896.931641,1450
897.048035,1498
897.164551,1498
897.280884,1454
897.397339,1475
897.513794,1449
897.630249,1453
897.746582,1497
897.863098,1488
897.979431,1486
898.095886,1501
898.212341,1455
898.328674,1513
898.445129,1547
898.561462,1494
898.677795,1491
898.794312,1526
898.910645,1512
899.026978,1470
899.143433,1495
899.259766,1548
899.37616,1541
899.492493,1524
899.608765,1521
899.725159,1548
899.841553,1500
899.957947,1487
900.07428,1543
900.190552,1516
900.306946,1489
900.423157,1539
900.53949,1518
900.655884,1498
900.772156,1533
900.888489,1526
901.004822,1515
901.121033,1536
901.237366,1536
901.353699,1555
901.46991,1575
901.586304,1596
901.702515,1596
901.818787,1634
901.93512,1635
902.051331,1684
902.167603,1665
902.283875,1730
902.400085,1765
902.516418,1785
902.632629,1783
902.74884,1853
902.865112,1842
902.981384,1842
903.097595,1832
903.213867,1824
903.330017,1816
903.446289,1789
903.5625,1762
903.67865,1710
903.794922,1814
903.911072,1713
904.027344,1709
904.143494,1695
904.259705,1654
904.375916,1624
904.492065,1590
904.608215,1627
904.724426,1582
904.840576,1601
904.956726,1560
905.072876,1551
905.189087,1538
905.305176,1538
905.421387,1564
905.537537,1530
905.653687,1504
905.769775,1517
905.885925,1525
906.002014,1476
906.118164,1465
906.234314,1470
906.350403,1490
906.466492,1458
906.582642,1460
906.69873,1505
906.814758,1439
906.930908,1445
907.046936,1446
907.163086,1472
907.279175,1455
907.395264,1469
907.511353,1425
907.62738,1461
907.743408,1460
907.859497,1442
907.975525,1452
908.091553,1464
908.207703,1460
908.32373,1444
908.439758,1472
908.555786,1459
908.671814,1446
908.787842,1441
908.90387,1425
909.019775,1461
909.135864,1427
909.251892,1472
909.367859,1472
909.483826,1466
909.599854,1451
909.715881,1499
909.831848,1473
909.947815,1498
910.063782,1495
910.179749,1475
910.295776,1486
910.411743,1467
910.527649,1478
910.643616,1453
910.759583,1477
910.875488,1443
910.991455,1463
911.107361,1430
911.223267,1454
911.339294,1485
911.4552,1424
911.571106,1448
911.687073,1421
911.802979,1433
911.918823,1415
912.034729,1447
912.150635,1421
912.266602,1485
912.382446,1449
912.498352,1427
912.614197,1455
912.730103,1428
912.846008,1424
792.44574,5408
792.56488,5179
792.68396,5152
792.80304,4940
792.92218,4816
793.041199,4710
793.160339,4555
793.279419,4448
793.398499,4389
793.517578,4236
793.636658,4129
793.755737,4024
793.874817,3991
793.993896,3824
794.112976,3857
794.232056,3679
794.351074,3605
794.470215,3577
794.589233,3485
794.708313,3474
794.827393,3390
794.946411,3332
795.065552,3292
795.18457,3269
795.303589,3229
795.422668,3194
795.541687,3266
795.660767,3140
795.779846,3049
795.898865,3034
796.017883,2989
796.136963,2998
796.255981,2913
796.375061,2858
796.49408,2832
796.613037,2856
796.732117,2786
796.851135,2778
796.970154,2693
797.089233,2743
797.208191,2679
797.327271,2602
797.446228,2617
797.565186,2624
797.684265,2596
797.803223,2596
797.922241,2540
798.04126,2553
798.160278,2519
798.279297,2513
798.398315,2497
798.517273,2480
798.636292,2508
798.75531,2460
798.874268,2387
798.993286,2461
799.112244,2422
799.231323,2454
799.350281,2412
799.469238,2402
799.588257,2348
799.707153,2345
799.826111,2364
799.945129,2297
800.064087,2336
800.183044,2319
800.302063,2319
800.421021,2312
800.539978,2277
800.658936,2346
800.777893,2331
800.896912,2278
801.015747,2238
801.134705,2243
801.253723,2201
801.37262,2208
801.491638,2229
801.610535,2205
801.729492,2210
801.84845,2181
801.967407,2224
802.086243,2133
802.205261,2204
802.324158,2128
802.443115,2125
802.562073,2179
802.680969,2134
802.799927,2165
802.918762,2099
803.037659,2109
803.156677,2112
803.275574,2067
803.39447,2128
803.513428,2057
803.632263,2127
803.751221,2059
803.870117,2072
803.989014,2112
804.107971,2078
804.226746,2061
804.345642,2045
804.4646,2034
804.583496,2059
804.702393,2016
804.821228,2016
804.940125,2030
805.059021,2004
805.177917,2000
805.296814,2002
805.415649,2050
805.534546,2006
805.653442,2013
805.772278,2054
805.891113,1993
806.01001,1979
806.128906,1989
806.247742,2079
806.366577,1983
806.485413,2032
806.604309,1991
806.723145,1976
806.84198,1990
806.960876,1984
807.079712,1956
807.198486,1959
807.317383,1925
807.436218,1950
807.554993,1938
807.673889,1936
807.792725,1942
807.91156,1958
808.030396,1968
808.14917,1948
808.268005,1907
808.386841,1934
808.505676,1944
808.624451,1917
808.743286,1943
808.862122,1891
808.980896,1909
809.099731,1887
809.218506,1902
809.337341,1889
809.456116,1891
809.57489,1950
809.693726,1891
809.8125,1927
809.931274,1933
810.050049,1896
810.168884,1912
810.287659,1929
810.406372,1895
810.525269,1884
810.643982,1864
810.762756,1908
810.881531,1958
811.000305,1909
811.11908,1903
811.237854,1881
811.356567,1907
811.475403,1902
811.594116,1965
811.71283,1877
811.831604,1978
811.950378,1974
812.069153,1945
812.187927,1933
812.30658,2012
812.425415,1970
812.544128,1907
812.662781,1945
812.781616,1960
812.900269,1902
813.019043,1912
813.137756,1879
813.256531,1941
813.375244,1911
813.493896,1909
813.612671,1908
813.731384,1944
813.850037,1903
813.96875,1887
814.087524,1867
814.206238,1833
814.324951,1830
814.443604,1864
814.562256,1833
814.68103,1882
814.799683,1857
814.918335,1886
815.037109,1866
815.155762,1907
815.274475,1851
815.393188,1864
815.511841,1878
815.630554,1890
815.749146,1842
815.867859,1862
815.986572,1843
816.105164,1833
816.223877,1845
816.342529,1816
816.461182,1838
816.579895,1910
816.698486,1864
816.817139,1861
816.935791,1899
817.054504,1861
817.173096,1873
817.291748,1903
817.4104,1848
817.529053,1876
817.647644,1892
817.766235,1831
817.884949,1811
818.00354,1830
818.122192,1861
818.240845,1811
818.359436,1723
818.478088,1754
818.59668,1738
818.715271,1782
818.833923,1764
818.952515,1714
819.071106,1696
819.189758,1727
819.30835,1693
819.426941,1686
819.545532,1708
819.664124,1729
819.782715,1718
819.901306,1721
820.019897,1675
820.138489,1707
820.25708,1670
820.375671,1666
820.494202,1688
820.612732,1736
820.731384,1684
820.849915,1694
820.968506,1689
821.087097,1681
821.205627,1679
821.324158,1680
821.442749,1672
821.561279,1663
821.679871,1645
821.798401,1675
821.916931,1633
822.035461,1628
822.154053,1654
822.272583,1672
822.391174,1654
822.509583,1647
822.628174,1621
822.746704,1651
822.865234,1597
822.983765,1608
823.102295,1627
823.220825,1583
823.339294,1633
823.457825,1570
823.576355,1602
823.694824,1600
823.813354,1623
823.931885,1653
824.050354,1626
824.168884,1658
824.287354,1643
824.405823,1580
824.524353,1610
824.642822,1628
824.761353,1648
824.879822,1617
824.998291,1628
825.116699,1643
825.235291,1645
825.353699,1598
825.472168,1599
825.590637,1633
825.709106,1626
825.827576,1620
825.946045,1628
826.064453,1630
826.182983,1601
826.301392,1575
826.4198,1570
826.53833,4352
826.656738,1658
826.775208,1526
826.893677,1580
827.012024,1562
827.130493,1553
827.248962,1640
827.36731,1558
827.485779,1598
827.604248,1591
827.722595,1606
827.841064,1597
827.959412,1539
828.077942,1551
828.196289,1552
828.314636,1569
828.433105,1555
828.551514,1548
828.669861,1532
828.78833,1529
828.906677,1530
829.025085,1560
829.143433,1573
829.261841,1601
829.38031,1542
829.498657,1526
829.617004,1572
829.735413,1555
829.85376,1513
829.972107,1580
830.090515,1544
830.208862,1572
830.327209,1556
830.445557,1508
830.563904,1563
830.682312,1544
830.800659,1562
830.919006,1557
831.037354,1583
831.155701,1617
831.274048,1578
831.392395,1632
831.51062,1598
831.629028,1607
831.747314,1572
831.865662,1599
831.984009,1558
832.102356,1607
832.220642,1629
832.338928,1663
832.457275,1646
832.575623,1636
832.693909,1619
832.812134,1644
832.930481,1562
833.048828,1596
833.167114,1587
833.2854,1593
833.403687,1605
833.521973,1597
833.640259,1590
833.758545,1573
833.876831,1552
833.995056,1592
834.113281,1625
834.231628,1628
834.349915,1550
834.468201,1587
834.586426,1586
834.704651,1522
834.822998,1595
834.941162,1605
835.059448,1596
835.177673,1607
835.295959,1627
835.414246,1633
835.53241,1647
835.650635,1650
835.768921,1592
835.887146,1590
836.005371,1611
836.123596,1563
836.241821,1557
836.360046,1535
836.478271,1566
836.596497,1593
836.714722,1532
836.832886,1560
836.95105,1590
837.069336,1523
837.1875,1553
837.305725,1515
837.423889,1553
837.542053,1524
837.660339,1519
837.778503,1560
837.896667,1577
838.014832,1565
838.132996,1585
838.25116,1529
838.369385,1626
838.487488,1569
838.605713,1589
838.723877,1608
838.84198,1601
838.960205,1624
839.078308,1631
839.196472,1618
839.314636,1635
839.4328,1642
839.550964,1653
839.669067,1638
839.787231,1665
839.905396,1722
840.023499,1700
840.141602,1729
840.259766,1748
840.377869,1771
840.495972,1731
840.614136,1737
840.732239,1736
840.850342,1719
840.968445,1774
841.086548,1764
841.204651,1725
841.322754,1746
841.440918,1782
841.55896,1777
841.677002,1791
841.795166,1844
841.913208,1828
842.031311,1794
842.149353,1819
842.267456,1786
842.385498,1828
842.503601,1797
842.621643,1751
842.739746,1790
842.857788,1769
842.97583,1826
843.093933,1797
843.211975,1781
843.330017,1776
843.44812,1798
843.566101,1729
843.684204,1818
843.802246,1760
843.920227,1744
844.038269,1793
844.156311,1742
844.274292,1778
844.392395,1737
844.510376,1770
844.628357,1749
844.74646,1717
844.864441,1727
844.982422,1701
845.100403,1700
845.218384,1666
845.336426,1714
845.454468,1729
845.572449,1681
845.69043,1708
845.808411,1719
845.926453,1733
846.044373,1708
846.162354,1718
846.280396,1754
846.398315,1745
846.516296,1756
846.634216,1721
846.752197,1734
846.870178,1758
846.988098,1759
847.106079,1762
847.22406,1783
847.34198,1752
847.4599,1712
847.577881,1728
847.695801,1724
847.813782,1746
847.931641,1732
848.049561,1737
848.167603,1711
848.285461,1784
848.403381,1722
848.521362,1707
848.639221,1685
848.75708,1751
848.875,1709
848.99292,1753
849.110901,1769
849.22876,1734
849.34668,1777
849.464539,1768
849.582458,1758
849.700317,1701
849.818176,1776
849.936096,1764
850.053955,1736
850.171875,1715
850.289673,1751
850.407593,1729
850.525452,1767
850.643311,1742
850.761169,1721
850.878967,1686
850.996887,1727
851.114746,1697
851.232544,1753
851.350403,1705
851.468262,1748
851.58606,1685
851.703979,1750
851.821777,1725
851.939636,1744
852.057434,1702
852.175232,1722
852.293091,1788
852.410889,1833
852.528687,1945
852.646545,1960
852.764343,1924
852.88208,1916
852.999939,1888
853.117676,1795
853.235535,1774
853.353271,1761
853.471069,1781
853.588928,1725
853.706604,1717
853.824402,1734
853.9422,1725
854.059998,1695
854.177734,1751
854.295532,1713
854.413269,1755
854.531006,1785
854.648804,1770
854.766541,1798
854.884277,1760
855.002014,1800
855.119751,1745
855.237549,1750
855.355225,1799
855.473022,1731
855.590698,1741
855.708435,1757
855.826172,1700
855.943848,1777
856.061646,1798
856.179321,1757
856.296997,1763
856.414795,1783
856.53241,1769
856.650085,1789
856.767822,1823
856.885559,1803
857.003174,1825
857.120911,1903
857.238586,1882
857.356201,1849
857.473938,1834
857.591614,1848
857.709351,1839
857.826965,1778
857.944641,1823
858.062317,1735
858.179993,1820
858.297668,1777
858.415283,1830
858.532959,1823
858.650574,1800
858.768188,1834
858.885803,1839
859.003479,1820
859.121094,1780
859.23877,1797
859.356384,1774
859.473999,1747
859.591675,1742
859.709229,1788
859.826843,1756
859.944458,1761
860.062012,1708
860.179626,1771
860.297302,1724
860.414856,1721
860.532471,1698
860.650024,1714
860.767639,1724
860.885193,1705
861.002808,1671
861.120361,1760
861.237976,1722
861.35553,1730
861.473022,1743
861.590698,1754
861.708191,1701
861.825745,1716
861.943298,1693
862.060852,1674
862.178406,1689
862.295959,1629
862.413513,1567
862.531006,1598
862.64856,1571
862.766113,1610
862.883667,1613
863.00116,1546
863.118713,1640
863.236206,1610
863.353699,1678
863.471252,1604
863.588745,1615
863.706177,1652
863.82373,1665
863.941162,1663
864.058716,1703
864.176208,1638
864.29364,1630
864.411194,1693
864.528687,1633
864.646118,1655
864.763611,1635
864.881042,1596
864.998535,1660
865.116028,1662
865.233459,1612
865.350891,1624
865.468384,1617
865.585754,1628
865.703308,1629
865.820679,1618
865.938171,1604
866.055542,1610
866.173035,1603
866.290466,1583
866.407837,1588
866.52533,1595
866.6427,1643
866.760071,1631
866.877563,1609
866.994934,1673
867.112305,1599
867.229736,1661
867.347107,1684
867.464539,1661
867.58197,1666
867.699341,1659
867.81665,1717
867.934082,1662
868.051453,1715
868.168823,1691
868.286194,1689
868.403564,1740
868.520935,1645
868.638306,1719
868.755676,1689
868.872986,1701
868.990295,1668
869.107727,1737
869.225037,1690
869.342346,1701
869.459717,1777
869.577026,1766
869.694336,1718
869.811707,1758
869.929016,1742
870.046326,1758
870.163635,1754
870.280945,1819
870.398254,1780
870.515564,1783
870.632812,1790
870.750183,1833
870.867432,1781
870.984741,1845
871.102051,1880
871.219299,1854
871.336609,1869
871.453918,1882
871.571106,1888
871.688416,1849
871.805664,1884
871.922852,1884
872.040222,1896
872.157471,1969
872.274719,1894
872.391968,1895
872.509155,1943
872.626465,1879
872.743652,1873
872.860962,1872
872.978149,1888
873.095337,1878
873.212646,1835
873.329834,1817
873.44696,1798
873.564209,1782
873.681396,1809
873.798645,1832
873.915894,1821
874.03302,1812
874.150208,1875
874.267456,1833
874.384583,1853
874.501831,1930
874.618958,1905
874.736145,1892
874.853333,1900
874.970459,1856
875.087646,1911
875.204834,1918
875.32196,1911
875.439148,1876
875.556274,1841
875.673401,1829
875.790527,1790
875.907715,1775
876.024841,1824
876.141968,1790
876.259094,1760
876.376282,1803
876.493347,1768
876.610474,1767
876.7276,1813
876.844727,1758
876.961853,1785
877.078918,1749
877.195984,1745
877.313171,1748
877.430237,1754
877.547302,1767
877.664368,1755
877.781433,1751
877.898499,1737
878.015625,1718
878.13269,1735
878.249695,1724
878.366821,1701
878.483887,1679
878.600952,1691
878.717957,1669
878.834961,1667
878.952087,1656
879.069092,1671
879.186157,1639
879.303162,1617
879.420227,1604
879.537231,1631
879.654236,1647
879.77124,1610
879.888306,1579
880.005249,1636
880.122314,1574
880.239319,1586
880.356323,1594
880.473328,1573
880.590271,1575
880.707275,1558
880.824341,1632
880.941284,1547
881.058228,1600
881.175232,1601
881.292236,1563
881.40918,1566
881.526123,1578
881.643066,1560
881.760071,1571
881.877014,1573
881.993958,1576
882.11084,1614
882.227783,1571
882.344727,1646
882.46167,1635
882.578613,1551
882.695618,1554
882.812439,1587
882.929382,1600
883.046326,1591
883.163208,1664
883.280151,1614
883.397034,1590
883.513916,1591
883.630798,1607
883.747742,1628
883.864563,1608
883.981506,1645
884.098389,1601
884.21521,1705
884.332153,1687
884.448975,1675
884.565796,1729
884.682678,1781
884.7995,1820
884.916443,1864
885.033264,1946
885.150085,2015
885.266968,2083
885.383789,2114
885.500671,2182
885.617493,2197
885.734314,2199
885.851196,2143
885.967896,2194
886.084717,2184
886.201599,2126
886.318359,2108
886.435181,2111
886.552002,2096
886.668762,2057
886.785645,2047
886.902344,2050
887.019165,2002
887.135925,2015
887.252747,1916
887.369446,1931
887.486267,1931
887.603027,1863
887.719788,1828
887.836548,1818
887.953247,1739
888.070068,1782
888.186829,1702
888.303528,1680
888.420288,1687
888.536987,1579
888.653687,1590
888.770447,1591
888.887146,1584
889.003967,1577
889.120667,1529
889.237305,1509
889.354065,1485
889.470703,1513
889.587463,1504
889.704163,1487
889.820862,1456
889.937561,1479
890.054199,1480
890.170837,1485
890.287598,1493
890.404236,1429
890.520874,1449
890.637634,1475
890.754211,1493
890.87085,1481
890.987549,1455
891.104187,1480
891.220886,1528
891.337463,1527
891.454102,1485
891.57074,1547
891.687378,1522
891.804077,1492
891.920654,1534
892.037231,1497
892.15387,1566
892.270447,1468
892.387085,1510
892.503723,1507
892.6203,1489
892.736877,1553
892.853516,1492
892.970032,1490
893.08667,1489
893.203186,1511
893.319763,1505
893.43634,1497
893.552917,1496
893.669556,1489
893.786011,1477
893.902588,1500
894.019165,1519
894.135681,1473
894.252197,1534
894.368835,1524
894.485291,1498
894.601868,1511
894.718384,1525
894.8349,1503
894.951355,1498
895.067932,1491
895.184448,1475
895.300964,1466
895.417419,1501
895.533936,1502
895.650452,1494
895.766907,1501
895.883423,1464
895.999878,1484
896.116333,1463
896.232849,1481
896.349304,1481
896.465759,1484
896.582214,1491
896.698669,1458
896.815125,1496
896.931641,1494
897.048035,1528
897.164551,1496
897.280884,1465
897.397339,1512
897.513794,1499
897.630249,1493
897.746582,1499
897.863098,1437
897.979431,1476
898.095886,1506
898.212341,1519
898.328674,1508
898.445129,1545
898.561462,1543
898.677795,1533
898.794312,1564
898.910645,1570
899.026978,1521
899.143433,1496
899.259766,1543
899.37616,1501
899.492493,1555
899.608765,1511
899.725159,1522
899.841553,1526
899.957947,1574
900.07428,1539
900.190552,1531
900.306946,1524
900.423157,1517
900.53949,1537
900.655884,1548
900.772156,1540
900.888489,1576
901.004822,1589
901.121033,1575
901.237366,1539
901.353699,1523
901.46991,1618
901.586304,1604
901.702515,1581
901.818787,1594
901.93512,1679
902.051331,1709
902.167603,1702
902.283875,1761
902.400085,1764
902.516418,1806
902.632629,1878
902.74884,1851
902.865112,1846
902.981384,1881
903.097595,1891
903.213867,1860
903.330017,1806
903.446289,1862
903.5625,1855
903.67865,1830
903.794922,1747
903.911072,1740
904.027344,1691
904.143494,1688
904.259705,1680
904.375916,1671
904.492065,1667
904.608215,1618
904.724426,1630
904.840576,1607
904.956726,1626
905.072876,1590
905.189087,1580
905.305176,1515
905.421387,1490
905.537537,1548
905.653687,1546
905.769775,1571
905.885925,1535
906.002014,1524
906.118164,1461
906.234314,1500
906.350403,1485
906.466492,1508
906.582642,1448
906.69873,1460
906.814758,1490
906.930908,1489
907.046936,1476
907.163086,1452
907.279175,1457
907.395264,1443
907.511353,1473
907.62738,1492
907.743408,1457
907.859497,1471
907.975525,1437
908.091553,1479
908.207703,1490
908.32373,1457
908.439758,1510
908.555786,1439
908.671814,1502
908.787842,1450
908.90387,1535
909.019775,1491
909.135864,1495
909.251892,1502
909.367859,1504
909.483826,1422
909.599854,1476
909.715881,1497
909.831848,1481
909.947815,1512
910.063782,1467
910.179749,1486
910.295776,1490
910.411743,1494
910.527649,1498
910.643616,1501
910.759583,1481
910.875488,1510
910.991455,1446
911.107361,1477
911.223267,1489
911.339294,1461
911.4552,1452
911.571106,1452
911.687073,1461
911.802979,1476
911.918823,1439
912.034729,1470
912.150635,1454
912.266602,1446
912.382446,1466
912.498352,1479
912.614197,1440
912.730103,1448
912.846008,1475
792.44574,5433
792.56488,5307
792.68396,5071
792.80304,4993
792.92218,4803
793.041199,4612
793.160339,4584
793.279419,4410
793.398499,4372
793.517578,4254
793.636658,4190
793.755737,4030
793.874817,3983
793.993896,3933
794.112976,3771
794.232056,3740
794.351074,3599
794.470215,3534
794.589233,3509
794.708313,3470
794.827393,3447
794.946411,3695
795.065552,4863
795.18457,3524
795.303589,3242
795.422668,3221
795.541687,3246
795.660767,3077
795.779846,3032
795.898865,3031
796.017883,2978
796.136963,2913
796.255981,2907
796.375061,2864
796.49408,2892
796.613037,2805
796.732117,2797
796.851135,2776
796.970154,2730
797.089233,2724
797.208191,2736
797.327271,2646
797.446228,2631
797.565186,2595
797.684265,2614
797.803223,2584
797.922241,2538
798.04126,2493
798.160278,2490
798.279297,2514
798.398315,2444
798.517273,2507
798.636292,2499
798.75531,2438
798.874268,2487
798.993286,2462
799.112244,2445
799.231323,2349
799.350281,2394
799.469238,2399
799.588257,2398
799.707153,2400
799.826111,2371
799.945129,2341
800.064087,2351
800.183044,2369
800.302063,2370
800.421021,2309
800.539978,2273
800.658936,2300
800.777893,2257
800.896912,2261
801.015747,2274
801.134705,2200
801.253723,2265
801.37262,2239
801.491638,2189
801.610535,2211
801.729492,2247
801.84845,2191
801.967407,2195
802.086243,2192
802.205261,2148
802.324158,2162
802.443115,2170
802.562073,2188
802.680969,2179
802.799927,2141
802.918762,2112
803.037659,2131
803.156677,2115
803.275574,2136
803.39447,2089
803.513428,2067
803.632263,2080
803.751221,2038
803.870117,2064
803.989014,2078
804.107971,2080
804.226746,2070
804.345642,2020
804.4646,2055
804.583496,2017
804.702393,2088
804.821228,2057
804.940125,2020
805.059021,2008
805.177917,2069
805.296814,2004
805.415649,2076
805.534546,2021
805.653442,2008
805.772278,2018
805.891113,1993
806.01001,2026
806.128906,2024
806.247742,1984
806.366577,2025
806.485413,1983
806.604309,1990
806.723145,1977
806.84198,1951
806.960876,1925
807.079712,1925
807.198486,2001
807.317383,2006
807.436218,1958
807.554993,1993
807.673889,1952
807.792725,1982
807.91156,1948
808.030396,2003
808.14917,1959
808.268005,1888
808.386841,1967
808.505676,1934
808.624451,1980
808.743286,1890
808.862122,1883
808.980896,1940
809.099731,1981
809.218506,1923
809.337341,1871
809.456116,1871
809.57489,1926
809.693726,1946
809.8125,1924
809.931274,1953
810.050049,1917
810.168884,1928
810.287659,1944
810.406372,1912
810.525269,1939
810.643982,1914
810.762756,1909
810.881531,1886
811.000305,1903
811.11908,1921
811.237854,1927
811.356567,1955
811.475403,1919
811.594116,1923
811.71283,1980
811.831604,1957
811.950378,1921
812.069153,1956
812.187927,1964
812.30658,1904
812.425415,1945
812.544128,1973
812.662781,1970
812.781616,1996
812.900269,1968
813.019043,1941
813.137756,1900
813.256531,1913
813.375244,1936
813.493896,1912
813.612671,1922
813.731384,1866
813.850037,1868
813.96875,1903
814.087524,1826
814.206238,1847
814.324951,1880
814.443604,1876
814.562256,1874
814.68103,1877
814.799683,1866
814.918335,1873
815.037109,1899
815.155762,1886
815.274475,1866
815.393188,1839
815.511841,1893
815.630554,1838
815.749146,1853
815.867859,1866
815.986572,1837
816.105164,1875
816.223877,1897
816.342529,1858
816.461182,1928
816.579895,1888
816.698486,1918
816.817139,1891
816.935791,1917
817.054504,1985
817.173096,1864
817.291748,1901
817.4104,1914
817.529053,1877
817.647644,1850
817.766235,1811
817.884949,1852
818.00354,1863
818.122192,1785
818.240845,1811
818.359436,1750
818.478088,1802
818.59668,1823
818.715271,1782
818.833923,1724
818.952515,1721
819.071106,1761
819.189758,1732
819.30835,1680
819.426941,1679
819.545532,1722
819.664124,1715
819.782715,1736
819.901306,1741
820.019897,1718
820.138489,1647
820.25708,1688
820.375671,1741
820.494202,1675
820.612732,1710
820.731384,1705
820.849915,1738
820.968506,1658
821.087097,1696
821.205627,1673
821.324158,1681
821.442749,1653
821.561279,1605
821.679871,1618
821.798401,1638
821.916931,1664
822.035461,1644
822.154053,1619
822.272583,1596
822.391174,1618
822.509583,1647
822.628174,1661
822.746704,1620
822.865234,1598
822.983765,1605
823.102295,1610
823.220825,1636
823.339294,1630
823.457825,1613
823.576355,1636
823.694824,1634
823.813354,1664
823.931885,1614
824.050354,1587
824.168884,1613
824.287354,1659
824.405823,1638
824.524353,1633
824.642822,1675
824.761353,1663
824.879822,1646
824.998291,1590
825.116699,1629
825.235291,1596
825.353699,1640
825.472168,1603
825.590637,1607
825.709106,1684
825.827576,1626
825.946045,1623
826.064453,1636
826.182983,1608
826.301392,1617
826.4198,1609
826.53833,1616
826.656738,1560
826.775208,1555
826.893677,1537
827.012024,1610
827.130493,1586
827.248962,1613
827.36731,1554
827.485779,1621
827.604248,1565
827.722595,1559
827.841064,1558
827.959412,1561
828.077942,1569
828.196289,1571
828.314636,1576
828.433105,1553
828.551514,1498
828.669861,1570
828.78833,1501
828.906677,1571
829.025085,1547
829.143433,1554
829.261841,1527
829.38031,1551
829.498657,1546
829.617004,1538
829.735413,1511
829.85376,1585
829.972107,1571
830.090515,1564
830.208862,1549
830.327209,1535
830.445557,1526
830.563904,1555
830.682312,1555
830.800659,1590
830.919006,1563
831.037354,1539
831.155701,1620
831.274048,1638
831.392395,1608
831.51062,1611
831.629028,1565
831.747314,1610
831.865662,1584
831.984009,1516
832.102356,1552
832.220642,1607
832.338928,1599
832.457275,1589
832.575623,1627
832.693909,1641
832.812134,1638
832.930481,1608
833.048828,1631
833.167114,1661
833.2854,1578
833.403687,1614
833.521973,1585
833.640259,1592
833.758545,1622
833.876831,1613
833.995056,1563
834.113281,1585
834.231628,1596
834.349915,1577
834.468201,1610
834.586426,1578
834.704651,1626
834.822998,1580
834.941162,1579
835.059448,1620
835.177673,1605
835.295959,1623
835.414246,1636
835.53241,1562
835.650635,1613
835.768921,1588
835.887146,1581
836.005371,1580
836.123596,1555
836.241821,1550
836.360046,1568
836.478271,1591
836.596497,1574
836.714722,1572
836.832886,1553
836.95105,1550
837.069336,1587
837.1875,1581
837.305725,1582
837.423889,1556
837.542053,1593
837.660339,1582
837.778503,1550
837.896667,1546
838.014832,1563
838.132996,1593
838.25116,1564
838.369385,1593
838.487488,1628
838.605713,1627
838.723877,1611
838.84198,1622
838.960205,1646
839.078308,1618
839.196472,1636
839.314636,1599
839.4328,1708
839.550964,1652
839.669067,1691
839.787231,1680
839.905396,1690
840.023499,1704
840.141602,1749
840.259766,1719
840.377869,1731
840.495972,1708
840.614136,1741
840.732239,1721
840.850342,1733
840.968445,1761
841.086548,1758
841.204651,1766
841.322754,1806
841.440918,1813
841.55896,1794
841.677002,1782
841.795166,1800
841.913208,1804
842.031311,1812
842.149353,1788
842.267456,1798
842.385498,1791
842.503601,1818
842.621643,1775
842.739746,1747
842.857788,1781
842.97583,1764
843.093933,1775
843.211975,1775
843.330017,1785
843.44812,1814
843.566101,1741
843.684204,1763
843.802246,1823
843.920227,1763
844.038269,1782
844.156311,1754
844.274292,1723
844.392395,1740
844.510376,1799
844.628357,1785
844.74646,1719
844.864441,1751
844.982422,1761
845.100403,1766
845.218384,1682
845.336426,1673
845.454468,1749
845.572449,1710
845.69043,1718
845.808411,1701
845.926453,1720
846.044373,1707
846.162354,1676
846.280396,1752
846.398315,1743
846.516296,1774
846.634216,1688
846.752197,1741
846.870178,1795
846.988098,1755
847.106079,1735
847.22406,1753
847.34198,1718
847.4599,1752
847.577881,1735
847.695801,1710
847.813782,1727
847.931641,1752
848.049561,1765
848.167603,1744
848.285461,1729
848.403381,1700
848.521362,1718
848.639221,1785
848.75708,1809
848.875,1745
848.99292,1777
849.110901,1761
849.22876,1798
849.34668,1763
849.464539,1787
849.582458,1745
849.700317,1781
849.818176,1777
849.936096,1821
850.053955,1749
850.171875,1743
850.289673,1739
850.407593,1791
850.525452,1742
850.643311,1734
850.761169,1694
850.878967,1731
850.996887,1697
851.114746,1708
851.232544,1723
851.350403,1757
851.468262,1697
851.58606,1678
851.703979,1696
851.821777,1757
851.939636,1739
852.057434,1744
852.175232,1721
852.293091,1773
852.410889,1800
852.528687,1868
852.646545,1911
852.764343,1950
852.88208,1922
852.999939,1869
853.117676,1817
853.235535,1760
853.353271,1693
853.471069,1778
853.588928,1763
853.706604,1697
853.824402,1745
853.9422,1718
854.059998,1719
854.177734,1798
854.295532,1745
854.413269,1736
854.531006,1792
854.648804,1758
854.766541,1751
854.884277,1787
855.002014,1763
855.119751,1735
855.237549,1796
855.355225,1791
855.473022,1844
855.590698,1760
855.708435,1782
855.826172,1754
855.943848,1752
856.061646,1794
856.179321,1754
856.296997,1817
856.414795,1782
856.53241,1809
856.650085,1851
856.767822,1811
856.885559,1872
857.003174,1842
857.120911,1866
857.238586,1839
857.356201,1811
857.473938,1841
857.591614,1831
857.709351,1814
857.826965,1811
857.944641,1829
858.062317,1852
858.179993,1865
858.297668,1829
858.415283,1777
858.532959,1787
858.650574,1804
858.768188,1860
858.885803,1789
859.003479,1784
859.121094,1770
859.23877,1844
859.356384,1778
859.473999,1726
859.591675,1778
859.709229,1778
859.826843,1803
859.944458,1747
860.062012,1744
860.179626,1732
860.297302,1664
860.414856,1756
860.532471,1708
860.650024,1730
860.767639,1738
860.885193,1701
861.002808,1743
861.120361,1721
861.237976,1733
861.35553,1705
861.473022,1737
861.590698,1742
861.708191,1705
861.825745,1730
861.943298,1700
862.060852,1715
862.178406,1665
862.295959,1681
862.413513,1619
862.531006,1611
862.64856,1615
862.766113,1624
862.883667,1600
863.00116,1631
863.118713,1584
863.236206,1636
863.353699,1631
863.471252,1623
863.588745,1662
863.706177,1686
863.82373,1656
863.941162,1680
864.058716,1658
864.176208,1678
864.29364,1639
864.411194,1611
864.528687,1624
864.646118,1631
864.763611,1623
864.881042,1654
864.998535,1576
865.116028,1634
865.233459,1663
865.350891,1636
865.468384,1673
865.585754,1586
865.703308,1594
865.820679,1664
865.938171,1609
866.055542,1603
866.173035,1608
866.290466,1628
866.407837,1616
866.52533,1644
866.6427,1665
866.760071,1610
866.877563,1667
866.994934,1668
867.112305,1662
867.229736,1619
867.347107,1667
867.464539,1716
867.58197,1668
867.699341,1706
867.81665,1654
867.934082,1652
868.051453,1716
868.168823,1699
868.286194,1652
868.403564,1657
868.520935,1664
868.638306,1692
868.755676,1722
868.872986,1674
868.990295,1755
869.107727,1742
869.225037,1703
869.342346,1724
869.459717,1749
869.577026,1717
869.694336,1768
869.811707,1795
869.929016,1748
870.046326,1797
870.163635,1756
870.280945,1796
870.398254,1825
870.515564,1820
870.632812,1804
870.750183,1827
870.867432,1816
870.984741,1817
871.102051,1839
871.219299,1895
871.336609,1831
871.453918,1846
871.571106,1886
871.688416,1919
871.805664,1905
871.922852,1942
872.040222,1895
872.157471,1874
872.274719,1885
872.391968,1923
872.509155,1878
872.626465,1884
872.743652,1869
872.860962,1851
872.978149,1838
873.095337,1870
873.212646,1856
873.329834,1819
873.44696,1797
873.564209,1823
873.681396,1783
873.798645,1785
873.915894,1804
874.03302,1865
874.150208,1822
874.267456,1853
874.384583,1846
874.501831,1883
874.618958,1876
874.736145,1941
874.853333,1918
874.970459,1902
875.087646,1926
875.204834,1913
875.32196,1855
875.439148,1924
875.556274,1892
875.673401,1899
875.790527,1800
875.907715,1794
876.024841,1816
876.141968,1812
876.259094,1791
876.376282,1847
876.493347,1797
876.610474,1761
876.7276,1735
876.844727,1779
876.961853,1724
877.078918,1814
877.195984,1756
877.313171,1748
877.430237,1731
877.547302,1741
877.664368,1692
877.781433,1704
877.898499,1773
878.015625,1763
878.13269,1716
878.249695,1714
878.366821,1690
878.483887,1671
878.600952,1636
878.717957,1694
878.834961,1714
878.952087,1654
879.069092,1655
879.186157,1696
879.303162,1656
879.420227,1649
879.537231,1623
879.654236,1644
879.77124,1628
879.888306,1674
880.005249,1600
880.122314,1594
880.239319,1628
880.356323,1619
880.473328,1595
880.590271,1585
880.707275,1598
880.824341,1603
880.941284,1603
881.058228,1634
881.175232,1591
881.292236,1607
881.40918,1576
881.526123,1560
881.643066,1604
881.760071,1594
881.877014,1602
881.993958,1560
882.11084,1588
882.227783,1526
882.344727,1600
882.46167,1598
882.578613,1602
882.695618,1637
882.812439,1617
882.929382,1599
883.046326,1583
883.163208,1602
883.280151,1610
883.397034,1597
883.513916,1622
883.630798,1617
883.747742,1624
883.864563,1661
883.981506,1626
884.098389,1645
884.21521,1698
884.332153,1687
884.448975,1705
884.565796,1724
884.682678,1787
884.7995,1814
884.916443,1840
885.033264,1955
885.150085,2028
885.266968,2051
885.383789,2148
885.500671,2175
885.617493,2154
885.734314,2206
885.851196,2167
885.967896,2154
886.084717,2100
886.201599,2169
886.318359,2088
886.435181,2074
886.552002,2086
886.668762,2055
886.785645,2002
886.902344,2026
887.019165,2031
887.135925,1985
887.252747,1936
887.369446,1948
887.486267,1916
887.603027,1885
887.719788,1859
887.836548,1864
887.953247,1771
888.070068,1712
888.186829,1753
888.303528,1682
888.420288,1671
888.536987,1627
888.653687,1619
888.770447,1590
888.887146,1555
889.003967,1559
889.120667,1535
889.237305,1559
889.354065,1526
889.470703,1489
889.587463,1514
889.704163,1538
889.820862,1524
889.937561,1527
890.054199,1537
890.170837,1503
890.287598,1464
890.404236,1500
890.520874,1501
890.637634,1496
890.754211,1479
890.87085,1530
890.987549,1496
891.104187,1472
891.220886,1523
891.337463,1524
891.454102,1493
891.57074,1557
891.687378,1517
891.804077,1507
891.920654,1494
892.037231,1548
892.15387,1513
892.270447,1530
892.387085,1499
892.503723,1503
892.6203,1465
892.736877,1552
892.853516,1546
892.970032,1541
893.08667,1492
893.203186,1533
893.319763,1544
893.43634,1475
893.552917,1488
893.669556,1478
893.786011,1573
893.902588,1516
894.019165,1480
894.135681,1520
894.252197,1515
894.368835,1516
894.485291,1518
894.601868,1534
894.718384,1467
894.8349,1471
894.951355,1518
895.067932,1500
895.184448,1481
895.300964,1542
895.417419,1460
895.533936,1468
895.650452,1536
895.766907,1515
895.883423,1474
895.999878,1524
896.116333,1482
896.232849,1505
896.349304,1481
896.465759,1511
896.582214,1483
896.698669,1485
896.815125,1526
896.931641,1533
897.048035,1502
897.164551,1574
897.280884,1493
897.397339,1490
897.513794,1497
897.630249,1480
897.746582,1483
897.863098,1525
897.979431,1522
898.095886,1526
898.212341,1526
898.328674,1527
898.445129,1524
898.561462,1555
898.677795,1527
898.794312,1509
898.910645,1531
899.026978,1544
899.143433,1514
899.259766,1561
899.37616,1517
899.492493,1518
899.608765,1514
899.725159,1595
899.841553,1549
899.957947,1553
900.07428,1556
900.190552,1565
900.306946,1540
900.423157,1550
900.53949,1555
900.655884,1530
900.772156,1576
900.888489,1557
901.004822,1555
901.121033,1569
901.237366,1623
901.353699,1563
901.46991,1556
901.586304,1619
901.702515,1637
901.818787,1663
901.93512,1678
902.051331,1693
902.167603,1716
902.283875,1746
902.400085,1750
902.516418,1872
902.632629,1810
902.74884,1828
902.865112,1905
902.981384,1886
903.097595,1908
903.213867,1846
903.330017,1839
903.446289,1835
903.5625,1830
903.67865,1807
903.794922,1795
903.911072,1737
904.027344,1735
904.143494,1788
904.259705,1733
904.375916,1696
904.492065,1672
904.608215,1649
904.724426,1616
904.840576,1642
904.956726,1610
905.072876,1627
905.189087,1585
905.305176,1546
905.421387,1600
905.537537,1586
905.653687,1511
905.769775,1592
905.885925,1533
906.002014,1519
906.118164,1518
906.234314,1541
906.350403,1499
906.466492,1533
906.582642,1496
906.69873,1537
906.814758,1514
906.930908,1482
907.046936,1501
907.163086,1483
907.279175,1510
907.395264,1482
907.511353,1486
907.62738,1473
907.743408,1464
907.859497,1456
907.975525,1444
908.091553,1476
908.207703,1504
908.32373,1476
908.439758,1463
908.555786,1499
908.671814,1459
908.787842,1499
908.90387,1482
909.019775,1527
909.135864,1458
909.251892,1516
909.367859,1485
909.483826,1529
909.599854,1464
909.715881,1533
909.831848,1534
909.947815,1526
910.063782,1498
910.179749,1514
910.295776,1483
910.411743,1462
910.527649,1532
910.643616,1523
910.759583,1451
910.875488,1469
910.991455,1473
911.107361,1475
911.223267,1505
911.339294,1504
911.4552,1454
911.571106,1470
911.687073,1497
911.802979,1435
911.918823,1475
912.034729,1501
912.150635,1475
912.266602,1489
912.382446,1484
912.498352,1491
912.614197,1461
912.730103,1431
912.846008,1492
