792.44574,2536
792.56488,2583
792.68396,2610
792.80304,2508
792.92218,2348
793.041199,2397
793.160339,2413
793.279419,2376
793.398499,2397
793.517578,2340
793.636658,2298
793.755737,2262
793.874817,2267
793.993896,2232
794.112976,2294
794.232056,2217
794.351074,2197
794.470215,2172
794.589233,2228
794.708313,2190
794.827393,2178
794.946411,2170
795.065552,2126
795.18457,2102
795.303589,2200
795.422668,2115
795.541687,2153
795.660767,2083
795.779846,2032
795.898865,2108
796.017883,2091
796.136963,2067
796.255981,2090
796.375061,2063
796.49408,2106
796.613037,2021
796.732117,2101
796.851135,2049
796.970154,2061
797.089233,2034
797.208191,1989
797.327271,2003
797.446228,2062
797.565186,2009
797.684265,2066
797.803223,2000
797.922241,1987
798.04126,1997
798.160278,1974
798.279297,2024
798.398315,2025
798.517273,1981
798.636292,1989
798.75531,1996
798.874268,2010
798.993286,2000
799.112244,1956
799.231323,1980
799.350281,1986
799.469238,1949
799.588257,1978
799.707153,2008
799.826111,1990
799.945129,1977
800.064087,1969
800.183044,1972
800.302063,1967
800.421021,2027
800.539978,1996
800.658936,1955
800.777893,1996
800.896912,1966
801.015747,1988
801.134705,1974
801.253723,1962
801.37262,1933
801.491638,1992
801.610535,2022
801.729492,1990
801.84845,1946
801.967407,1993
802.086243,1990
802.205261,1981
802.324158,1970
802.443115,1974
802.562073,2006
802.680969,2015
802.799927,1988
802.918762,2045
803.037659,2022
803.156677,1977
803.275574,2047
803.39447,1981
803.513428,1980
803.632263,2058
803.751221,2029
803.870117,1983
803.989014,2012
804.107971,1985
804.226746,2013
804.345642,2034
804.4646,1967
804.583496,2050
804.702393,2001
804.821228,2059
804.940125,2031
805.059021,2044
805.177917,2025
805.296814,2049
805.415649,2083
805.534546,2039
805.653442,1985
805.772278,2012
805.891113,2061
806.01001,2075
806.128906,2044
806.247742,1995
806.366577,2062
806.485413,2108
806.604309,2071
806.723145,2070
806.84198,2089
806.960876,2041
807.079712,2074
807.198486,2020
807.317383,2074
807.436218,2023
807.554993,2083
807.673889,2022
807.792725,2051
807.91156,2081
808.030396,2070
808.14917,2067
808.268005,2088
808.386841,2102
808.505676,2101
808.624451,2073
808.743286,2036
808.862122,2122
808.980896,2093
809.099731,2092
809.218506,2086
809.337341,2071
809.456116,2118
809.57489,2168
809.693726,2075
809.8125,2176
809.931274,2140
810.050049,2123
810.168884,2133
810.287659,2127
810.406372,2121
810.525269,2132
810.643982,2093
810.762756,2136
810.881531,2172
811.000305,2131
811.11908,2134
811.237854,2145
811.356567,2101
811.475403,2164
811.594116,2093
811.71283,2164
811.831604,2089
811.950378,2095
812.069153,2087
812.187927,2131
812.30658,2140
812.425415,2163
812.544128,2140
812.662781,2151
812.781616,2119
812.900269,2098
813.019043,2065
813.137756,2187
813.256531,2127
813.375244,2160
813.493896,2116
813.612671,2149
813.731384,2067
813.850037,2169
813.96875,2119
814.087524,2056
814.206238,2118
814.324951,2098
814.443604,2110
814.562256,2103
814.68103,2099
814.799683,2051
814.918335,2095
815.037109,2070
815.155762,2063
815.274475,2098
815.393188,2067
815.511841,2026
815.630554,2069
815.749146,1977
815.867859,2019
815.986572,2093
816.105164,1966
816.223877,2034
816.342529,2044
816.461182,2075
816.579895,2057
816.698486,2077
816.817139,2071
816.935791,2047
817.054504,1988
817.173096,2090
817.291748,2034
817.4104,2036
817.529053,2000
817.647644,1999
817.766235,1960
817.884949,1903
818.00354,1877
818.122192,1818
818.240845,1804
818.359436,1828
818.478088,1752
818.59668,1743
818.715271,1738
818.833923,1695
818.952515,1700
819.071106,1660
819.189758,1634
819.30835,1632
819.426941,1612
819.545532,1677
819.664124,1600
819.782715,1607
819.901306,1596
820.019897,1572
820.138489,1538
820.25708,1632
820.375671,1564
820.494202,1541
820.612732,1547
820.731384,1522
820.849915,1549
820.968506,1510
821.087097,1555
821.205627,1545
821.324158,1538
821.442749,1492
821.561279,1516
821.679871,1506
821.798401,1442
821.916931,1536
822.035461,1502
822.154053,1510
822.272583,1500
822.391174,1520
822.509583,1451
822.628174,1494
822.746704,1490
822.865234,1489
822.983765,1448
823.102295,1455
823.220825,1510
823.339294,1496
823.457825,1502
823.576355,1491
823.694824,1450
823.813354,1493
823.931885,1547
824.050354,1509
824.168884,1500
824.287354,1538
824.405823,1508
824.524353,1505
824.642822,1516
824.761353,1528
824.879822,1442
824.998291,1499
825.116699,1509
825.235291,1532
825.353699,1501
825.472168,1466
825.590637,1474
825.709106,1492
825.827576,1466
825.946045,1480
826.064453,1495
826.182983,1436
826.301392,1452
826.4198,1438
826.53833,1466
826.656738,1431
826.775208,1446
826.893677,1457
827.012024,1415
827.130493,1408
827.248962,1427
827.36731,1414
827.485779,1464
827.604248,1446
827.722595,1412
827.841064,1410
827.959412,1401
828.077942,1410
828.196289,1399
828.314636,1399
828.433105,1415
828.551514,1427
828.669861,1392
828.78833,1426
828.906677,1400
829.025085,1417
829.143433,1394
829.261841,1377
829.38031,1380
829.498657,1385
829.617004,1423
829.735413,1380
829.85376,1399
829.972107,1435
830.090515,1339
830.208862,1402
830.327209,1411
830.445557,1418
830.563904,1371
830.682312,1375
830.800659,1408
830.919006,1437
831.037354,1370
831.155701,1416
831.274048,1385
831.392395,1408
831.51062,1388
831.629028,1349
831.747314,1398
831.865662,1372
831.984009,1349
832.102356,1413
832.220642,1404
832.338928,1410
832.457275,1388
832.575623,1378
832.693909,1378
832.812134,1407
832.930481,1342
833.048828,1382
833.167114,1402
833.2854,1358
833.403687,1376
833.521973,1389
833.640259,1377
833.758545,1390
833.876831,1378
833.995056,1363
834.113281,1420
834.231628,1417
834.349915,1406
834.468201,1423
834.586426,1381
834.704651,1417
834.822998,1401
834.941162,1435
835.059448,1377
835.177673,1382
835.295959,1378
835.414246,1406
835.53241,1385
835.650635,1395
835.768921,1427
835.887146,1360
836.005371,1385
836.123596,1382
836.241821,1359
836.360046,1456
836.478271,1386
836.596497,1390
836.714722,1415
836.832886,1453
836.95105,1411
837.069336,1411
837.1875,1485
837.305725,1473
837.423889,1442
837.542053,1443
837.660339,1467
837.778503,1435
837.896667,1449
838.014832,1475
838.132996,1400
838.25116,1442
838.369385,1448
838.487488,1451
838.605713,1492
838.723877,1451
838.84198,1423
838.960205,1432
839.078308,1473
839.196472,1398
839.314636,1448
839.4328,1424
839.550964,1440
839.669067,1444
839.787231,1437
839.905396,1408
840.023499,1488
840.141602,1419
840.259766,1435
840.377869,1432
840.495972,1428
840.614136,1443
840.732239,1472
840.850342,1444
840.968445,1402
841.086548,1451
841.204651,1432
841.322754,1435
841.440918,1437
841.55896,1435
841.677002,1429
841.795166,1458
841.913208,1450
842.031311,1424
842.149353,1432
842.267456,1394
842.385498,1388
842.503601,1399
842.621643,1392
842.739746,1405
842.857788,1379
842.97583,1395
843.093933,1378
843.211975,1376
843.330017,1383
843.44812,1416
843.566101,1337
843.684204,1374
843.802246,1427
843.920227,1373
844.038269,1364
844.156311,1389
844.274292,1318
844.392395,1386
844.510376,1349
844.628357,1369
844.74646,1363
844.864441,1364
844.982422,1369
845.100403,1397
845.218384,1386
845.336426,1368
845.454468,1343
845.572449,1342
845.69043,1366
845.808411,1351
845.926453,1419
846.044373,1332
846.162354,1355
846.280396,1355
846.398315,1343
846.516296,1348
846.634216,1375
846.752197,1297
846.870178,1385
846.988098,1383
847.106079,1353
847.22406,1369
847.34198,1345
847.4599,1325
847.577881,1367
847.695801,1361
847.813782,1439
847.931641,1328
848.049561,1369
848.167603,1358
848.285461,1392
848.403381,1336
848.521362,1369
848.639221,1367
848.75708,1346
848.875,1343
848.99292,1327
849.110901,1360
849.22876,1358
849.34668,1293
849.464539,1377
849.582458,1386
849.700317,1365
849.818176,1387
849.936096,1351
850.053955,1372
850.171875,1351
850.289673,1369
850.407593,1337
850.525452,1383
850.643311,1388
850.761169,1349
850.878967,1340
850.996887,1362
851.114746,1347
851.232544,1382
851.350403,1353
851.468262,1378
851.58606,1359
851.703979,1376
851.821777,1376
851.939636,1410
852.057434,1326
852.175232,1406
852.293091,1335
852.410889,1345
852.528687,1385
852.646545,1420
852.764343,1402
852.88208,1454
852.999939,1323
853.117676,1406
853.235535,1397
853.353271,1352
853.471069,1387
853.588928,1374
853.706604,1340
853.824402,1381
853.9422,1398
854.059998,1344
854.177734,1362
854.295532,1382
854.413269,1368
854.531006,1373
854.648804,1380
854.766541,1406
854.884277,1376
855.002014,1425
855.119751,1386
855.237549,1378
855.355225,1392
855.473022,1410
855.590698,1395
855.708435,1427
855.826172,1366
855.943848,1405
856.061646,1420
856.179321,1390
856.296997,1400
856.414795,1403
856.53241,1435
856.650085,1397
856.767822,1421
856.885559,1440
857.003174,1392
857.120911,1371
857.238586,1401
857.356201,1402
857.473938,1449
857.591614,1438
857.709351,1373
857.826965,1402
857.944641,1438
858.062317,1411
858.179993,1400
858.297668,1385
858.415283,1401
858.532959,1402
858.650574,1406
858.768188,1393
858.885803,1356
859.003479,1375
859.121094,1363
859.23877,1366
859.356384,1425
859.473999,1367
859.591675,1380
859.709229,1374
859.826843,1398
859.944458,1399
860.062012,1420
860.179626,1332
860.297302,1336
860.414856,1367
860.532471,1337
860.650024,1392
860.767639,1343
860.885193,1362
861.002808,1358
861.120361,1380
861.237976,1378
861.35553,1359
861.473022,1356
861.590698,1369
861.708191,1366
861.825745,1370
861.943298,1364
862.060852,1332
862.178406,1363
862.295959,1344
862.413513,1371
862.531006,1341
862.64856,1360
862.766113,1348
862.883667,1314
863.00116,1360
863.118713,1372
863.236206,1350
863.353699,1396
863.471252,1375
863.588745,1349
863.706177,1329
863.82373,1320
863.941162,1390
864.058716,1348
864.176208,1327
864.29364,1348
864.411194,1367
864.528687,1386
864.646118,1366
864.763611,1377
864.881042,1366
864.998535,1379
865.116028,1337
865.233459,1386
865.350891,1346
865.468384,1378
865.585754,1374
865.703308,1385
865.820679,1388
865.938171,1328
866.055542,1352
866.173035,1373
866.290466,1327
866.407837,1349
866.52533,1363
866.6427,1390
866.760071,1366
866.877563,1363
866.994934,1360
867.112305,1370
867.229736,1363
867.347107,1392
867.464539,1327
867.58197,1372
867.699341,1378
867.81665,1376
867.934082,1381
868.051453,1364
868.168823,1341
868.286194,1372
868.403564,1367
868.520935,1380
868.638306,1346
868.755676,1336
868.872986,1363
868.990295,1373
869.107727,1371
869.225037,1341
869.342346,1431
869.459717,1345
869.577026,1412
869.694336,1362
869.811707,1375
869.929016,1361
870.046326,1362
870.163635,1387
870.280945,1342
870.398254,1409
870.515564,1406
870.632812,1346
870.750183,1351
870.867432,1381
870.984741,1357
871.102051,1426
871.219299,1389
871.336609,1410
871.453918,1394
871.571106,1367
871.688416,1369
871.805664,1385
871.922852,1420
872.040222,1418
872.157471,1373
872.274719,1390
872.391968,1350
872.509155,1392
872.626465,1401
872.743652,1377
872.860962,1421
872.978149,1401
873.095337,1406
873.212646,1391
873.329834,1381
873.44696,1384
873.564209,1377
873.681396,1375
873.798645,1359
873.915894,1384
874.03302,1378
874.150208,1347
874.267456,1392
874.384583,1376
874.501831,1387
874.618958,1380
874.736145,1360
874.853333,1357
874.970459,1402
875.087646,1372
875.204834,1404
875.32196,1370
875.439148,1330
875.556274,1394
875.673401,1352
875.790527,1339
875.907715,1398
876.024841,1409
876.141968,1367
876.259094,1409
876.376282,1341
876.493347,1388
876.610474,1364
876.7276,1410
876.844727,1345
876.961853,1363
877.078918,1361
877.195984,1379
877.313171,1379
877.430237,1403
877.547302,1367
877.664368,1381
877.781433,1391
877.898499,1386
878.015625,1372
878.13269,1378
878.249695,1346
878.366821,1375
878.483887,1342
878.600952,1434
878.717957,1390
878.834961,1354
878.952087,1349
879.069092,1334
879.186157,1382
879.303162,1385
879.420227,1375
879.537231,1361
879.654236,1353
879.77124,1377
879.888306,1366
880.005249,1375
880.122314,1348
880.239319,1342
880.356323,1408
880.473328,1354
880.590271,1335
880.707275,1363
880.824341,1345
880.941284,1364
881.058228,1325
881.175232,1346
881.292236,1360
881.40918,1373
881.526123,1366
881.643066,1325
881.760071,1355
881.877014,1369
881.993958,1324
882.11084,1316
882.227783,1347
882.344727,1380
882.46167,1326
882.578613,1338
882.695618,1365
882.812439,1362
882.929382,1339
883.046326,1349
883.163208,1337
883.280151,1392
883.397034,1364
883.513916,1381
883.630798,1362
883.747742,1366
883.864563,1360
883.981506,1394
884.098389,1399
884.21521,1325
884.332153,1376
884.448975,1358
884.565796,1397
884.682678,1390
884.7995,1413
884.916443,1414
885.033264,1418
885.150085,1416
885.266968,1426
885.383789,1435
885.500671,1368
885.617493,1476
885.734314,1436
885.851196,1478
885.967896,1463
886.084717,1452
886.201599,1445
886.318359,1448
886.435181,1430
886.552002,1440
886.668762,1429
886.785645,1427
886.902344,1418
887.019165,1421
887.135925,1429
887.252747,1450
887.369446,1420
887.486267,1423
887.603027,1393
887.719788,1400
887.836548,1407
887.953247,1396
888.070068,1394
888.186829,1423
888.303528,1420
888.420288,1379
888.536987,1342
888.653687,1384
888.770447,1367
888.887146,1363
889.003967,1389
889.120667,1400
889.237305,1363
889.354065,1380
889.470703,1345
889.587463,1399
889.704163,1391
889.820862,1351
889.937561,1386
890.054199,1327
890.170837,1355
890.287598,1388
890.404236,1327
890.520874,1364
890.637634,1337
890.754211,1368
890.87085,1378
890.987549,1395
891.104187,1411
891.220886,1375
891.337463,1394
891.454102,1363
891.57074,1397
891.687378,1365
891.804077,1367
891.920654,1373
892.037231,1375
892.15387,1383
892.270447,1368
892.387085,1384
892.503723,1374
892.6203,1398
892.736877,1345
892.853516,1385
892.970032,1395
893.08667,1350
893.203186,1400
893.319763,1358
893.43634,1396
893.552917,1378
893.669556,1367
893.786011,1375
893.902588,1354
894.019165,1394
894.135681,1364
894.252197,1377
894.368835,1373
894.485291,1388
894.601868,1345
894.718384,1408
894.8349,1360
894.951355,1416
895.067932,1390
895.184448,1372
895.300964,1408
895.417419,1384
895.533936,1362
895.650452,1385
895.766907,1351
895.883423,1386
895.999878,1379
896.116333,1394
896.232849,1386
896.349304,1378
896.465759,1384
896.582214,1374
896.698669,1372
896.815125,1374
896.931641,1374
897.048035,1377
897.164551,1374
897.280884,1404
897.397339,1393
897.513794,1393
897.630249,1407
897.746582,1397
897.863098,1400
897.979431,1412
898.095886,1388
898.212341,1368
898.328674,1394
898.445129,1409
898.561462,1398
898.677795,1401
898.794312,1400
898.910645,1372
899.026978,1363
899.143433,1389
899.259766,1394
899.37616,1393
899.492493,1364
899.608765,1405
899.725159,1403
899.841553,1379
899.957947,1399
900.07428,1435
900.190552,1411
900.306946,1406
900.423157,1418
900.53949,1374
900.655884,1408
900.772156,1366
900.888489,1441
901.004822,1392
901.121033,1450
901.237366,1382
901.353699,1399
901.46991,1393
901.586304,1368
901.702515,1399
901.818787,1423
901.93512,1392
902.051331,1410
902.167603,1446
902.283875,1438
902.400085,1451
902.516418,1424
902.632629,1438
902.74884,1483
902.865112,1439
902.981384,1425
903.097595,1423
903.213867,1488
903.330017,1442
903.446289,1448
903.5625,1405
903.67865,1439
903.794922,1431
903.911072,1443
904.027344,1390
904.143494,1453
904.259705,1389
904.375916,1450
904.492065,1428
904.608215,1435
904.724426,1419
904.840576,1436
904.956726,1403
905.072876,1422
905.189087,1401
905.305176,1404
905.421387,1399
905.537537,1416
905.653687,1371
905.769775,1369
905.885925,1401
906.002014,1388
906.118164,1393
906.234314,1398
906.350403,1422
906.466492,1428
906.582642,1417
906.69873,1420
906.814758,1345
906.930908,1388
907.046936,1407
907.163086,1398
907.279175,1427
907.395264,1410
907.511353,1433
907.62738,1409
907.743408,1393
907.859497,1391
907.975525,1447
908.091553,1413
908.207703,1417
908.32373,1391
908.439758,1396
908.555786,1414
908.671814,1379
908.787842,1416
908.90387,1443
909.019775,1428
909.135864,1388
909.251892,1449
909.367859,1405
909.483826,1417
909.599854,1370
909.715881,1387
909.831848,1407
909.947815,1379
910.063782,1378
910.179749,1441
910.295776,1398
910.411743,1470
910.527649,1410
910.643616,1395
910.759583,1385
910.875488,1441
910.991455,1408
911.107361,1444
911.223267,1416
911.339294,1415
911.4552,1400
911.571106,1453
911.687073,1397
911.802979,1406
911.918823,1396
912.034729,1431
912.150635,1414
912.266602,1419
912.382446,1429
912.498352,1378
912.614197,1421
912.730103,1412
912.846008,1388
792.44574,2558
792.56488,2533
792.68396,2558
792.80304,2584
792.92218,2406
793.041199,2376
793.160339,2352
793.279419,2423
793.398499,2398
793.517578,2374
793.636658,2377
793.755737,2328
793.874817,2332
793.993896,2300
794.112976,2218
794.232056,2230
794.351074,2240
794.470215,2232
794.589233,2194
794.708313,2150
794.827393,2184
794.946411,2153
795.065552,2201
795.18457,2204
795.303589,2128
795.422668,2188
795.541687,2118
795.660767,2178
795.779846,2148
795.898865,2090
796.017883,2161
796.136963,2085
796.255981,2054
796.375061,2071
796.49408,2038
796.613037,2114
796.732117,2046
796.851135,2102
796.970154,2015
797.089233,2018
797.208191,2027
797.327271,2060
797.446228,2066
797.565186,2013
797.684265,2010
797.803223,2034
797.922241,2003
798.04126,1987
798.160278,2010
798.279297,2006
798.398315,2017
798.517273,1984
798.636292,2016
798.75531,1961
798.874268,2038
798.993286,2021
799.112244,2008
799.231323,1994
799.350281,1962
799.469238,2045
799.588257,1994
799.707153,2017
799.826111,2061
799.945129,1993
800.064087,1991
800.183044,2030
800.302063,1988
800.421021,1973
800.539978,2004
800.658936,1988
800.777893,2057
800.896912,1985
801.015747,1987
801.134705,1993
801.253723,1992
801.37262,1983
801.491638,2013
801.610535,1983
801.729492,1972
801.84845,1965
801.967407,1977
802.086243,1989
802.205261,1983
802.324158,2060
802.443115,1997
802.562073,2003
802.680969,2052
802.799927,2052
802.918762,2018
803.037659,1975
803.156677,1995
803.275574,2046
803.39447,2034
803.513428,2014
803.632263,2057
803.751221,2049
803.870117,2028
803.989014,2013
804.107971,1996
804.226746,2068
804.345642,2079
804.4646,2033
804.583496,2032
804.702393,2075
804.821228,2044
804.940125,2038
805.059021,2050
805.177917,2023
805.296814,2035
805.415649,2051
805.534546,2076
805.653442,2066
805.772278,2105
805.891113,2059
806.01001,2101
806.128906,2060
806.247742,2035
806.366577,2048
806.485413,2092
806.604309,2084
806.723145,2071
806.84198,2061
806.960876,2107
807.079712,2048
807.198486,2109
807.317383,2108
807.436218,2080
807.554993,2077
807.673889,2116
807.792725,2109
807.91156,2129
808.030396,2101
808.14917,2073
808.268005,2089
808.386841,2134
808.505676,2126
808.624451,2089
808.743286,2086
808.862122,2151
808.980896,2148
809.099731,2103
809.218506,2113
809.337341,2123
809.456116,2094
809.57489,2087
809.693726,2138
809.8125,2085
809.931274,2110
810.050049,2140
810.168884,2111
810.287659,2130
810.406372,2127
810.525269,2125
810.643982,2131
810.762756,2180
810.881531,2201
811.000305,2088
811.11908,2136
811.237854,2138
811.356567,2133
811.475403,2150
811.594116,2108
811.71283,2164
811.831604,2127
811.950378,2145
812.069153,2128
812.187927,2178
812.30658,2146
812.425415,2138
812.544128,2189
812.662781,2183
812.781616,2104
812.900269,2143
813.019043,2162
813.137756,2095
813.256531,2194
813.375244,2097
813.493896,2113
813.612671,2101
813.731384,2094
813.850037,2133
813.96875,2123
814.087524,2136
814.206238,2079
814.324951,2121
814.443604,2105
814.562256,2151
814.68103,2094
814.799683,2091
814.918335,2088
815.037109,2087
815.155762,2120
815.274475,2086
815.393188,2068
815.511841,2074
815.630554,2051
815.749146,2065
815.867859,2031
815.986572,2051
816.105164,2049
816.223877,2024
816.342529,2038
816.461182,2048
816.579895,2088
816.698486,2050
816.817139,2104
816.935791,2025
817.054504,2063
817.173096,2092
817.291748,2108
817.4104,2095
817.529053,2059
817.647644,2025
817.766235,1890
817.884949,1960
818.00354,1892
818.122192,1898
818.240845,1839
818.359436,1810
818.478088,1805
818.59668,1751
818.715271,1793
818.833923,1742
818.952515,1704
819.071106,1726
819.189758,1639
819.30835,1636
819.426941,1630
819.545532,1603
819.664124,1593
819.782715,1567
819.901306,1610
820.019897,1562
820.138489,1587
820.25708,1608
820.375671,1598
820.494202,1568
820.612732,1585
820.731384,1596
820.849915,1558
820.968506,1548
821.087097,1552
821.205627,1523
821.324158,1529
821.442749,1559
821.561279,1514
821.679871,1509
821.798401,1534
821.916931,1523
822.035461,1513
822.154053,1525
822.272583,1496
822.391174,1523
822.509583,1513
822.628174,1483
822.746704,1556
822.865234,1505
822.983765,1481
823.102295,1495
823.220825,1469
823.339294,1514
823.457825,1501
823.576355,1511
823.694824,1494
823.813354,1499
823.931885,1511
824.050354,1505
824.168884,1491
824.287354,1523
824.405823,1519
824.524353,1550
824.642822,1543
824.761353,1512
824.879822,1500
824.998291,1485
825.116699,1528
825.235291,1489
825.353699,1500
825.472168,1540
825.590637,1540
825.709106,1485
825.827576,1467
825.946045,1500
826.064453,1454
826.182983,1509
826.301392,1413
826.4198,1497
826.53833,1427
826.656738,1411
826.775208,1474
826.893677,1453
827.012024,1424
827.130493,1419
827.248962,1421
827.36731,1466
827.485779,1428
827.604248,1403
827.722595,1415
827.841064,1431
827.959412,1429
828.077942,1439
828.196289,1433
828.314636,1388
828.433105,1410
828.551514,1438
828.669861,1391
828.78833,1448
828.906677,1410
829.025085,1399
829.143433,1392
829.261841,1418
829.38031,1396
829.498657,1397
829.617004,1427
829.735413,1416
829.85376,1393
829.972107,1397
830.090515,1412
830.208862,1389
830.327209,1402
830.445557,1394
830.563904,1412
830.682312,1409
830.800659,1421
830.919006,1386
831.037354,1378
831.155701,1393
831.274048,1437
831.392395,1387
831.51062,1392
831.629028,1390
831.747314,1393
831.865662,1398
831.984009,1355
832.102356,1395
832.220642,1369
832.338928,1393
832.457275,1376
832.575623,1393
832.693909,1396
832.812134,1407
832.930481,1379
833.048828,1383
833.167114,1407
833.2854,1378
833.403687,1406
833.521973,1373
833.640259,1403
833.758545,1326
833.876831,1386
833.995056,1383
834.113281,1383
834.231628,1444
834.349915,1409
834.468201,1418
834.586426,1371
834.704651,1372
834.822998,1380
834.941162,1446
835.059448,1392
835.177673,1392
835.295959,1402
835.414246,1393
835.53241,1386
835.650635,1374
835.768921,1360
835.887146,1385
836.005371,1431
836.123596,1378
836.241821,1423
836.360046,1423
836.478271,1434
836.596497,1419
836.714722,1420
836.832886,1426
836.95105,1436
837.069336,1456
837.1875,1468
837.305725,1429
837.423889,1434
837.542053,1399
837.660339,1460
837.778503,1483
837.896667,1461
838.014832,1416
838.132996,1472
838.25116,1472
838.369385,1457
838.487488,1451
838.605713,1418
838.723877,1478
838.84198,1469
838.960205,1467
839.078308,1405
839.196472,1461
839.314636,1484
839.4328,1442
839.550964,1476
839.669067,1451
839.787231,1438
839.905396,1443
840.023499,1464
840.141602,1470
840.259766,1461
840.377869,1426
840.495972,1443
840.614136,1472
840.732239,1436
840.850342,1426
840.968445,1435
841.086548,1446
841.204651,1440
841.322754,1481
841.440918,1468
841.55896,1496
841.677002,1457
841.795166,1390
841.913208,1458
842.031311,1433
842.149353,1410
842.267456,1448
842.385498,1384
842.503601,1416
842.621643,1398
842.739746,1414
842.857788,1403
842.97583,1410
843.093933,1447
843.211975,1379
843.330017,1401
843.44812,1382
843.566101,1375
843.684204,1412
843.802246,1381
843.920227,1397
844.038269,1425
844.156311,1388
844.274292,1433
844.392395,1402
844.510376,1420
844.628357,1387
844.74646,1360
844.864441,1385
844.982422,1387
845.100403,1369
845.218384,1392
845.336426,1359
845.454468,1372
845.572449,1375
845.69043,1403
845.808411,1351
845.926453,1400
846.044373,1344
846.162354,1345
846.280396,1368
846.398315,1420
846.516296,1382
846.634216,1384
846.752197,1415
846.870178,1390
846.988098,1367
847.106079,1395
847.22406,1408
847.34198,1367
847.4599,1355
847.577881,1397
847.695801,1367
847.813782,1353
847.931641,1363
848.049561,1377
848.167603,1343
848.285461,1420
848.403381,1364
848.521362,1400
848.639221,1400
848.75708,1360
848.875,1390
848.99292,1383
849.110901,1360
849.22876,1394
849.34668,1393
849.464539,1349
849.582458,1387
849.700317,1385
849.818176,1396
849.936096,1372
850.053955,1376
850.171875,1379
850.289673,1445
850.407593,1329
850.525452,1389
850.643311,1400
850.761169,1360
850.878967,1370
850.996887,1377
851.114746,1365
851.232544,1359
851.350403,1401
851.468262,1389
851.58606,1358
851.703979,1378
851.821777,1352
851.939636,1406
852.057434,1388
852.175232,1406
852.293091,1352
852.410889,1386
852.528687,1386
852.646545,1407
852.764343,1380
852.88208,1402
852.999939,1396
853.117676,1398
853.235535,1403
853.353271,1348
853.471069,1379
853.588928,1413
853.706604,1361
853.824402,1351
853.9422,1382
854.059998,1423
854.177734,1377
854.295532,1398
854.413269,1401
854.531006,1377
854.648804,1434
854.766541,1395
854.884277,1412
855.002014,1384
855.119751,1387
855.237549,1398
855.355225,1399
855.473022,1437
855.590698,1371
855.708435,1396
855.826172,1346
855.943848,1410
856.061646,1418
856.179321,1449
856.296997,1375
856.414795,1420
856.53241,1413
856.650085,1453
856.767822,1402
856.885559,1439
857.003174,1407
857.120911,1453
857.238586,1430
857.356201,1454
857.473938,1385
857.591614,1405
857.709351,1416
857.826965,1411
857.944641,1429
858.062317,1418
858.179993,1392
858.297668,1407
858.415283,1396
858.532959,1417
858.650574,1444
858.768188,1422
858.885803,1419
859.003479,1437
859.121094,1382
859.23877,1414
859.356384,1393
859.473999,1403
859.591675,1364
859.709229,1408
859.826843,1412
859.944458,1367
860.062012,1394
860.179626,1422
860.297302,1368
860.414856,1371
860.532471,1381
860.650024,1392
860.767639,1387
860.885193,1390
861.002808,1373
861.120361,1378
861.237976,1395
861.35553,1389
861.473022,1358
861.590698,1393
861.708191,1370
861.825745,1384
861.943298,1380
862.060852,1415
862.178406,1364
862.295959,1365
862.413513,1370
862.531006,1371
862.64856,1357
862.766113,1349
862.883667,1347
863.00116,1346
863.118713,1342
863.236206,1372
863.353699,1335
863.471252,1402
863.588745,1351
863.706177,1384
863.82373,1375
863.941162,1391
864.058716,1334
864.176208,1374
864.29364,1378
864.411194,1380
864.528687,1379
864.646118,1396
864.763611,1366
864.881042,1362
864.998535,1373
865.116028,1410
865.233459,1372
865.350891,1368
865.468384,1338
865.585754,1415
865.703308,1372
865.820679,1377
865.938171,1349
866.055542,1388
866.173035,1347
866.290466,1346
866.407837,1334
866.52533,1385
866.6427,1364
866.760071,1431
866.877563,1368
866.994934,1417
867.112305,1391
867.229736,1374
867.347107,1383
867.464539,1372
867.58197,1370
867.699341,1391
867.81665,1401
867.934082,1381
868.051453,1401
868.168823,1412
868.286194,1401
868.403564,1383
868.520935,1397
868.638306,1394
868.755676,1374
868.872986,1375
868.990295,1333
869.107727,1388
869.225037,1367
869.342346,1446
869.459717,1371
869.577026,1381
869.694336,1403
869.811707,1385
869.929016,1397
870.046326,1411
870.163635,1376
870.280945,1413
870.398254,1413
870.515564,1414
870.632812,1409
870.750183,1414
870.867432,1371
870.984741,1362
871.102051,1403
871.219299,1405
871.336609,1418
871.453918,1373
871.571106,1393
871.688416,1414
871.805664,1403
871.922852,1437
872.040222,1366
872.157471,1420
872.274719,1404
872.391968,1391
872.509155,1431
872.626465,1415
872.743652,1383
872.860962,1420
872.978149,1374
873.095337,1391
873.212646,1383
873.329834,1391
873.44696,1417
873.564209,1398
873.681396,1389
873.798645,1378
873.915894,1376
874.03302,1417
874.150208,1436
874.267456,1386
874.384583,1353
874.501831,1386
874.618958,1426
874.736145,1395
874.853333,1388
874.970459,1407
875.087646,1435
875.204834,1396
875.32196,1403
875.439148,1387
875.556274,1390
875.673401,1418
875.790527,1381
875.907715,1402
876.024841,1395
876.141968,1422
876.259094,1387
876.376282,1422
876.493347,1375
876.610474,1434
876.7276,1420
876.844727,1377
876.961853,1415
877.078918,1380
877.195984,1378
877.313171,1411
877.430237,1402
877.547302,1355
877.664368,1400
877.781433,1365
877.898499,1418
878.015625,1383
878.13269,1391
878.249695,1413
878.366821,1357
878.483887,1366
878.600952,1375
878.717957,1389
878.834961,1370
878.952087,1396
879.069092,1368
879.186157,1338
879.303162,1345
879.420227,1366
879.537231,1395
879.654236,1359
879.77124,1360
879.888306,1363
880.005249,1340
880.122314,1355
880.239319,1369
880.356323,1394
880.473328,1326
880.590271,1407
880.707275,1353
880.824341,1377
880.941284,1397
881.058228,1382
881.175232,1374
881.292236,1359
881.40918,1359
881.526123,1397
881.643066,1377
881.760071,1377
881.877014,1390
881.993958,1342
882.11084,1379
882.227783,1386
882.344727,1377
882.46167,1356
882.578613,1359
882.695618,1364
882.812439,1327
882.929382,1387
883.046326,1370
883.163208,1383
883.280151,1378
883.397034,1392
883.513916,1346
883.630798,1453
883.747742,1400
883.864563,1396
883.981506,1396
884.098389,1366
884.21521,1411
884.332153,1414
884.448975,1392
884.565796,1420
884.682678,1432
884.7995,1388
884.916443,1440
885.033264,1417
885.150085,1468
885.266968,1476
885.383789,1456
885.500671,1481
885.617493,1446
885.734314,1493
885.851196,1440
885.967896,1430
886.084717,1410
886.201599,1482
886.318359,1414
886.435181,1452
886.552002,1454
886.668762,1476
886.785645,1491
886.902344,1454
887.019165,1430
887.135925,1425
887.252747,1448
887.369446,1427
887.486267,1410
887.603027,1431
887.719788,1444
887.836548,1396
887.953247,1453
888.070068,1393
888.186829,1436
888.303528,1431
888.420288,1375
888.536987,1432
888.653687,1401
888.770447,1410
888.887146,1404
889.003967,1385
889.120667,1420
889.237305,1381
889.354065,1401
889.470703,1364
889.587463,1366
889.704163,1416
889.820862,1366
889.937561,1388
890.054199,1387
890.170837,1361
890.287598,1407
890.404236,1339
890.520874,1427
890.637634,1437
890.754211,1404
890.87085,1411
890.987549,1391
891.104187,1407
891.220886,1419
891.337463,1393
891.454102,1372
891.57074,1425
891.687378,1360
891.804077,1404
891.920654,1381
892.037231,1398
892.15387,1365
892.270447,1443
892.387085,1430
892.503723,1437
892.6203,1377
892.736877,1406
892.853516,1396
892.970032,1370
893.08667,1406
893.203186,1399
893.319763,1388
893.43634,1372
893.552917,1359
893.669556,1391
893.786011,1396
893.902588,1408
894.019165,1370
894.135681,1420
894.252197,1415
894.368835,1411
894.485291,1387
894.601868,1468
894.718384,1400
894.8349,1441
894.951355,1389
895.067932,1423
895.184448,1368
895.300964,1398
895.417419,1410
895.533936,1418
895.650452,1375
895.766907,1425
895.883423,1390
895.999878,1438
896.116333,1401
896.232849,1376
896.349304,1441
896.465759,1431
896.582214,1368
896.698669,1431
896.815125,1412
896.931641,1381
897.048035,1427
897.164551,1402
897.280884,1446
897.397339,1409
897.513794,1384
897.630249,1389
897.746582,1380
897.863098,1394
897.979431,1377
898.095886,1439
898.212341,1392
898.328674,1395
898.445129,1372
898.561462,1420
898.677795,1425
898.794312,1408
898.910645,1373
899.026978,1408
899.143433,1428
899.259766,1406
899.37616,1384
899.492493,1408
899.608765,1389
899.725159,1437
899.841553,1426
899.957947,1371
900.07428,1376
900.190552,1440
900.306946,1459
900.423157,1411
900.53949,1390
900.655884,1452
900.772156,1458
900.888489,1429
901.004822,1460
901.121033,1449
901.237366,1415
901.353699,1436
901.46991,1425
901.586304,1410
901.702515,1420
901.818787,1418
901.93512,1420
902.051331,1421
902.167603,1447
902.283875,1443
902.400085,1444
902.516418,1425
902.632629,1450
902.74884,1474
902.865112,1467
902.981384,1472
903.097595,1503
903.213867,1438
903.330017,1452
903.446289,1512
903.5625,1455
903.67865,1461
903.794922,1434
903.911072,1468
904.027344,1426
904.143494,1454
904.259705,1489
904.375916,1452
904.492065,1435
904.608215,1444
904.724426,1440
904.840576,1441
904.956726,1408
905.072876,1464
905.189087,1433
905.305176,1424
905.421387,1440
905.537537,1426
905.653687,1395
905.769775,1436
905.885925,1436
906.002014,1413
906.118164,1423
906.234314,1442
906.350403,1404
906.466492,1430
906.582642,1380
906.69873,1422
906.814758,1416
906.930908,1458
907.046936,1439
907.163086,1406
907.279175,1419
907.395264,1408
907.511353,1446
907.62738,1429
907.743408,1395
907.859497,1416
907.975525,1422
908.091553,1420
908.207703,1425
908.32373,1426
908.439758,1434
908.555786,1399
908.671814,1399
908.787842,1420
908.90387,1466
909.019775,1467
909.135864,1460
909.251892,1438
909.367859,1367
909.483826,1460
909.599854,1461
909.715881,1485
909.831848,1439
909.947815,1468
910.063782,1434
910.179749,1416
910.295776,1441
910.411743,1442
910.527649,1411
910.643616,1428
910.759583,1408
910.875488,1459
910.991455,1431
911.107361,1451
911.223267,1454
911.339294,1448
911.4552,1435
911.571106,1410
911.687073,1444
911.802979,1480
911.918823,1443
912.034729,1431
912.150635,1432
912.266602,1451
912.382446,1411
912.498352,1397
912.614197,1438
912.730103,1454
912.846008,1373
792.44574,2565
792.56488,2556
792.68396,2614
792.80304,2466
792.92218,2430
793.041199,2430
793.160339,2389
793.279419,2408
793.398499,2395
793.517578,2388
793.636658,2331
793.755737,2302
793.874817,2364
793.993896,2312
794.112976,2286
794.232056,2191
794.351074,2243
794.470215,2230
794.589233,2210
794.708313,2238
794.827393,2247
794.946411,2201
795.065552,2186
795.18457,2178
795.303589,2130
795.422668,2147
795.541687,2134
795.660767,2199
795.779846,2129
795.898865,2108
796.017883,2103
796.136963,2123
796.255981,2095
796.375061,2072
796.49408,2078
796.613037,2053
796.732117,2089
796.851135,2059
796.970154,2061
797.089233,2000
797.208191,1993
797.327271,2090
797.446228,2060
797.565186,2041
797.684265,2011
797.803223,2024
797.922241,2050
798.04126,2026
798.160278,2008
798.279297,1989
798.398315,2044
798.517273,2037
798.636292,1990
798.75531,1967
798.874268,2012
798.993286,2007
799.112244,1948
799.231323,1959
799.350281,2015
799.469238,2012
799.588257,2023
799.707153,1990
799.826111,2023
799.945129,2027
800.064087,2016
800.183044,1989
800.302063,1981
800.421021,1986
800.539978,1995
800.658936,1992
800.777893,2012
800.896912,1965
801.015747,2001
801.134705,1941
801.253723,2007
801.37262,2003
801.491638,2014
801.610535,1983
801.729492,1979
801.84845,1977
801.967407,1961
802.086243,2027
802.205261,2015
802.324158,2006
802.443115,2019
802.562073,2000
802.680969,1985
802.799927,2014
802.918762,1989
803.037659,1998
803.156677,1991
803.275574,1991
803.39447,2009
803.513428,1999
803.632263,1996
803.751221,2029
803.870117,1987
803.989014,2001
804.107971,2059
804.226746,2003
804.345642,2053
804.4646,2021
804.583496,2000
804.702393,1994
804.821228,2038
804.940125,2027
805.059021,2078
805.177917,2050
805.296814,2049
805.415649,2065
805.534546,2018
805.653442,2029
805.772278,2047
805.891113,2034
806.01001,2070
806.128906,2065
806.247742,2096
806.366577,2077
806.485413,2093
806.604309,2106
806.723145,2079
806.84198,2092
806.960876,2067
807.079712,2074
807.198486,2121
807.317383,2071
807.436218,2058
807.554993,2052
807.673889,2083
807.792725,2065
807.91156,2119
808.030396,2116
808.14917,2119
808.268005,2094
808.386841,2097
808.505676,2094
808.624451,2092
808.743286,2103
808.862122,2100
808.980896,2104
809.099731,2084
809.218506,2120
809.337341,2132
809.456116,2102
809.57489,2170
809.693726,2121
809.8125,2144
809.931274,2179
810.050049,2118
810.168884,2132
810.287659,2139
810.406372,2116
810.525269,2092
810.643982,2139
810.762756,2128
810.881531,2057
811.000305,2155
811.11908,2125
811.237854,2109
811.356567,2102
811.475403,2136
811.594116,2188
811.71283,2163
811.831604,2135
811.950378,2183
812.069153,2117
812.187927,2140
812.30658,2152
812.425415,2198
812.544128,2091
812.662781,2167
812.781616,2127
812.900269,2164
813.019043,2094
813.137756,2092
813.256531,2168
813.375244,2102
813.493896,2125
813.612671,2141
813.731384,2138
813.850037,2128
813.96875,2086
814.087524,2077
814.206238,2056
814.324951,2108
814.443604,2073
814.562256,2128
814.68103,2045
814.799683,2119
814.918335,2123
815.037109,2038
815.155762,2081
815.274475,2127
815.393188,2077
815.511841,2055
815.630554,2031
815.749146,2102
815.867859,2009
815.986572,2021
816.105164,2014
816.223877,2040
816.342529,2024
816.461182,2016
816.579895,2041
816.698486,2041
816.817139,2036
816.935791,2093
817.054504,2088
817.173096,2108
817.291748,2036
817.4104,2036
817.529053,2053
817.647644,1957
817.766235,1947
817.884949,1943
818.00354,1878
818.122192,1889
818.240845,1842
818.359436,1826
818.478088,1820
818.59668,1756
818.715271,1738
818.833923,1714
818.952515,1695
819.071106,1676
819.189758,1700
819.30835,1637
819.426941,1620
819.545532,1623
819.664124,1609
819.782715,1633
819.901306,1579
820.019897,1620
820.138489,1585
820.25708,1590
820.375671,1575
820.494202,1566
820.612732,1558
820.731384,1533
820.849915,1579
820.968506,1546
821.087097,1563
821.205627,1550
821.324158,1514
821.442749,1525
821.561279,1531
821.679871,1526
821.798401,1501
821.916931,1542
822.035461,1495
822.154053,1579
822.272583,1490
822.391174,1489
822.509583,1502
822.628174,1542
822.746704,1534
822.865234,1548
822.983765,1474
823.102295,1485
823.220825,1463
823.339294,1477
823.457825,1518
823.576355,1487
823.694824,1428
823.813354,1527
823.931885,1522
824.050354,1510
824.168884,1511
824.287354,1515
824.405823,1497
824.524353,1516
824.642822,1505
824.761353,1476
824.879822,1496
824.998291,1524
825.116699,1539
825.235291,1501
825.353699,1455
825.472168,1420
825.590637,1497
825.709106,1471
825.827576,1467
825.946045,1446
826.064453,1479
826.182983,1446
826.301392,1469
826.4198,1446
826.53833,1448
826.656738,1387
826.775208,1471
826.893677,1433
827.012024,1434
827.130493,1433
827.248962,1442
827.36731,1380
827.485779,1435
827.604248,1398
827.722595,1412
827.841064,1401
827.959412,1404
828.077942,1455
828.196289,1393
828.314636,1453
828.433105,1410
828.551514,1427
828.669861,1423
828.78833,1385
828.906677,1375
829.025085,1411
829.143433,1425
829.261841,1390
829.38031,1376
829.498657,1387
829.617004,1425
829.735413,1385
829.85376,1443
829.972107,1393
830.090515,1370
830.208862,1433
830.327209,1418
830.445557,1409
830.563904,1409
830.682312,1412
830.800659,1382
830.919006,1425
831.037354,1425
831.155701,1412
831.274048,1424
831.392395,1387
831.51062,1355
831.629028,1405
831.747314,1406
831.865662,1400
831.984009,1403
832.102356,1401
832.220642,1377
832.338928,1402
832.457275,1373
832.575623,1419
832.693909,1373
832.812134,1373
832.930481,1409
833.048828,1415
833.167114,1413
833.2854,1359
833.403687,1365
833.521973,1403
833.640259,1395
833.758545,1371
833.876831,1385
833.995056,1344
834.113281,1395
834.231628,1406
834.349915,1424
834.468201,1438
834.586426,1422
834.704651,1394
834.822998,1372
834.941162,1386
835.059448,1400
835.177673,1404
835.295959,1383
835.414246,1452
835.53241,1381
835.650635,1386
835.768921,1397
835.887146,1405
836.005371,1448
836.123596,1360
836.241821,1405
836.360046,1413
836.478271,1437
836.596497,1471
836.714722,1399
836.832886,1483
836.95105,1430
837.069336,1439
837.1875,1450
837.305725,1432
837.423889,1447
837.542053,1442
837.660339,1439
837.778503,1476
837.896667,1410
838.014832,1467
838.132996,1469
838.25116,1480
838.369385,1461
838.487488,1458
838.605713,1449
838.723877,1478
838.84198,1475
838.960205,1427
839.078308,1427
839.196472,1443
839.314636,1427
839.4328,1451
839.550964,1427
839.669067,1445
839.787231,1454
839.905396,1436
840.023499,1458
840.141602,1519
840.259766,1437
840.377869,1453
840.495972,1445
840.614136,1479
840.732239,1462
840.850342,1468
840.968445,1448
841.086548,1438
841.204651,1419
841.322754,1482
841.440918,1429
841.55896,1452
841.677002,1428
841.795166,1479
841.913208,1399
842.031311,1411
842.149353,1433
842.267456,1445
842.385498,1404
842.503601,1397
842.621643,1413
842.739746,1431
842.857788,1402
842.97583,1406
843.093933,1425
843.211975,1410
843.330017,1405
843.44812,1413
843.566101,1418
843.684204,1409
843.802246,1404
843.920227,1377
844.038269,1412
844.156311,1389
844.274292,1361
844.392395,1382
844.510376,1393
844.628357,1398
844.74646,1370
844.864441,1384
844.982422,1379
845.100403,1395
845.218384,1364
845.336426,1363
845.454468,1372
845.572449,1345
845.69043,1356
845.808411,1372
845.926453,1345
846.044373,1365
846.162354,1383
846.280396,1377
846.398315,1408
846.516296,1375
846.634216,1325
846.752197,1423
846.870178,1345
846.988098,1360
847.106079,1361
847.22406,1364
847.34198,1381
847.4599,1426
847.577881,1385
847.695801,1350
847.813782,1403
847.931641,1353
848.049561,1375
848.167603,1321
848.285461,1360
848.403381,1365
848.521362,1336
848.639221,1393
848.75708,1397
848.875,1405
848.99292,1376
849.110901,1380
849.22876,1373
849.34668,1355
849.464539,1389
849.582458,1383
849.700317,1372
849.818176,1383
849.936096,1381
850.053955,1382
850.171875,1370
850.289673,1365
850.407593,1356
850.525452,1396
850.643311,1367
850.761169,1393
850.878967,1414
850.996887,1383
851.114746,1376
851.232544,1378
851.350403,1394
851.468262,1352
851.58606,1359
851.703979,1410
851.821777,1363
851.939636,1379
852.057434,1374
852.175232,1346
852.293091,1342
852.410889,1399
852.528687,1364
852.646545,1429
852.764343,1358
852.88208,1395
852.999939,1411
853.117676,1422
853.235535,1412
853.353271,1396
853.471069,1385
853.588928,1376
853.706604,1374
853.824402,1397
853.9422,1361
854.059998,1367
854.177734,1373
854.295532,1383
854.413269,1391
854.531006,1391
854.648804,1404
854.766541,1410
854.884277,1408
855.002014,1389
855.119751,1380
855.237549,1379
855.355225,1438
855.473022,1393
855.590698,1427
855.708435,1420
855.826172,1395
855.943848,1431
856.061646,1397
856.179321,1369
856.296997,1432
856.414795,1447
856.53241,1425
856.650085,1423
856.767822,1427
856.885559,1462
857.003174,1424
857.120911,1462
857.238586,1375
857.356201,1434
857.473938,1387
857.591614,1416
857.709351,1413
857.826965,1395
857.944641,1423
858.062317,1435
858.179993,1381
858.297668,1420
858.415283,1391
858.532959,1413
858.650574,1437
858.768188,1434
858.885803,1400
859.003479,1463
859.121094,1387
859.23877,1416
859.356384,1384
859.473999,1416
859.591675,1337
859.709229,1401
859.826843,1380
859.944458,1384
860.062012,1418
860.179626,1365
860.297302,1382
860.414856,1387
860.532471,1361
860.650024,1378
860.767639,1389
860.885193,1387
861.002808,1314
861.120361,1403
861.237976,1385
861.35553,1385
861.473022,1392
861.590698,1381
861.708191,1328
861.825745,1396
861.943298,1400
862.060852,1370
862.178406,1395
862.295959,1364
862.413513,1335
862.531006,1410
862.64856,1384
862.766113,1353
862.883667,1376
863.00116,1351
863.118713,1334
863.236206,1399
863.353699,1338
863.471252,1354
863.588745,1406
863.706177,1379
863.82373,1359
863.941162,1403
864.058716,1387
864.176208,1403
864.29364,1385
864.411194,1391
864.528687,1367
864.646118,1385
864.763611,1345
864.881042,1414
864.998535,1371
865.116028,1363
865.233459,1353
865.350891,1371
865.468384,1365
865.585754,1394
865.703308,1338
865.820679,1385
865.938171,1341
866.055542,1380
866.173035,1338
866.290466,1378
866.407837,1365
866.52533,1389
866.6427,1365
866.760071,1391
866.877563,1368
866.994934,1391
867.112305,1416
867.229736,1380
867.347107,1387
867.464539,1372
867.58197,1379
867.699341,1371
867.81665,1384
867.934082,1365
868.051453,1370
868.168823,1389
868.286194,1351
868.403564,1395
868.520935,1378
868.638306,1382
868.755676,1354
868.872986,1423
868.990295,1441
869.107727,1418
869.225037,1368
869.342346,1361
869.459717,1394
869.577026,1378
869.694336,1398
869.811707,1405
869.929016,1398
870.046326,1396
870.163635,1378
870.280945,1408
870.398254,1408
870.515564,1396
870.632812,1404
870.750183,1452
870.867432,1366
870.984741,1410
871.102051,1416
871.219299,1437
871.336609,1407
871.453918,1365
871.571106,1374
871.688416,1386
871.805664,1445
871.922852,1414
872.040222,1402
872.157471,1418
872.274719,1401
872.391968,1398
872.509155,1405
872.626465,1395
872.743652,1421
872.860962,1405
872.978149,1414
873.095337,1375
873.212646,1405
873.329834,1435
873.44696,1401
873.564209,1389
873.681396,1417
873.798645,1399
873.915894,1436
874.03302,1376
874.150208,1392
874.267456,1362
874.384583,1422
874.501831,1374
874.618958,1382
874.736145,1438
874.853333,1378
874.970459,1420
875.087646,1419
875.204834,1400
875.32196,1431
875.439148,1405
875.556274,1430
875.673401,1402
875.790527,1354
875.907715,1415
876.024841,1353
876.141968,1406
876.259094,1381
876.376282,1361
876.493347,1383
876.610474,1428
876.7276,1434
876.844727,1401
876.961853,1384
877.078918,1396
877.195984,1396
877.313171,1435
877.430237,1394
877.547302,1386
877.664368,1422
877.781433,1395
877.898499,1393
878.015625,1392
878.13269,1397
878.249695,1393
878.366821,1384
878.483887,1332
878.600952,1377
878.717957,1349
878.834961,1416
878.952087,1401
879.069092,1365
879.186157,1377
879.303162,1330
879.420227,1394
879.537231,1336
879.654236,1378
879.77124,1413
879.888306,1355
880.005249,1346
880.122314,1407
880.239319,1390
880.356323,1382
880.473328,1359
880.590271,1380
880.707275,1413
880.824341,1370
880.941284,1368
881.058228,1343
881.175232,1399
881.292236,1366
881.40918,1344
881.526123,1405
881.643066,1374
881.760071,1400
881.877014,1370
881.993958,1365
882.11084,1333
882.227783,1379
882.344727,1403
882.46167,1370
882.578613,1381
882.695618,1372
882.812439,1384
882.929382,1337
883.046326,1429
883.163208,1378
883.280151,1403
883.397034,1385
883.513916,1375
883.630798,1390
883.747742,1407
883.864563,1404
883.981506,1374
884.098389,1361
884.21521,1383
884.332153,1363
884.448975,1415
884.565796,1408
884.682678,1428
884.7995,1388
884.916443,1425
885.033264,1421
885.150085,1489
885.266968,1410
885.383789,1463
885.500671,1507
885.617493,1418
885.734314,1490
885.851196,1478
885.967896,1467
886.084717,1446
886.201599,1533
886.318359,1440
886.435181,1502
886.552002,1468
886.668762,1476
886.785645,1415
886.902344,1468
887.019165,1459
887.135925,1434
887.252747,1464
887.369446,1477
887.486267,1473
887.603027,1451
887.719788,1397
887.836548,1415
887.953247,1430
888.070068,1424
888.186829,1425
888.303528,1405
888.420288,1401
888.536987,1408
888.653687,1370
888.770447,1407
888.887146,1403
889.003967,1424
889.120667,1430
889.237305,1381
889.354065,1389
889.470703,1391
889.587463,1366
889.704163,1375
889.820862,1403
889.937561,1417
890.054199,1401
890.170837,1399
890.287598,1409
890.404236,1448
890.520874,1367
890.637634,1396
890.754211,1398
890.87085,1401
890.987549,1409
891.104187,1371
891.220886,1395
891.337463,1385
891.454102,1422
891.57074,1402
891.687378,1398
891.804077,1396
891.920654,1398
892.037231,1386
892.15387,1400
892.270447,1433
892.387085,1438
892.503723,1387
892.6203,1422
892.736877,1385
892.853516,1392
892.970032,1399
893.08667,1428
893.203186,1412
893.319763,1443
893.43634,1402
893.552917,1398
893.669556,1401
893.786011,1413
893.902588,1389
894.019165,1400
894.135681,1416
894.252197,1374
894.368835,1396
894.485291,1431
894.601868,1395
894.718384,1394
894.8349,1408
894.951355,1433
895.067932,1418
895.184448,1404
895.300964,1373
895.417419,1369
895.533936,1421
895.650452,1410
895.766907,1389
895.883423,1422
895.999878,1425
896.116333,1414
896.232849,1427
896.349304,1377
896.465759,1450
896.582214,1417
896.698669,1385
896.815125,1412
896.931641,1408
897.048035,1384
897.164551,1405
897.280884,1403
897.397339,1442
897.513794,1434
897.630249,1432
897.746582,1404
897.863098,1371
897.979431,1434
898.095886,1382
898.212341,1439
898.328674,1393
898.445129,1407
898.561462,1437
898.677795,1426
898.794312,1407
898.910645,1445
899.026978,1409
899.143433,1429
899.259766,1401
899.37616,1406
899.492493,1437
899.608765,1430
899.725159,1442
899.841553,1383
899.957947,1399
900.07428,1396
900.190552,1422
900.306946,1431
900.423157,1448
900.53949,1787
900.655884,2416
900.772156,1419
900.888489,1439
901.004822,1390
901.121033,1451
901.237366,1434
901.353699,1414
901.46991,1432
901.586304,1435
901.702515,1418
901.818787,1442
901.93512,1468
902.051331,1417
902.167603,1430
902.283875,1449
902.400085,1452
902.516418,1440
902.632629,1498
902.74884,1480
902.865112,1447
902.981384,1478
903.097595,1499
903.213867,1458
903.330017,1420
903.446289,1455
903.5625,1459
903.67865,1495
903.794922,1475
903.911072,1461
904.027344,1477
904.143494,1468
904.259705,1470
904.375916,1484
904.492065,1449
904.608215,1392
904.724426,1420
904.840576,1396
904.956726,1449
905.072876,1442
905.189087,1471
905.305176,1439
905.421387,1442
905.537537,1438
905.653687,1440
905.769775,1418
905.885925,1403
906.002014,1438
906.118164,1425
906.234314,1455
906.350403,1429
906.466492,1436
906.582642,1425
906.69873,1475
906.814758,1377
906.930908,1425
907.046936,1419
907.163086,1445
907.279175,1423
907.395264,1484
907.511353,1451
907.62738,1427
907.743408,1446
907.859497,1438
907.975525,1460
908.091553,1437
908.207703,1421
908.32373,1440
908.439758,1451
908.555786,1414
908.671814,1446
908.787842,1412
908.90387,1429
909.019775,1435
909.135864,1447
909.251892,1440
909.367859,1461
909.483826,1434
909.599854,1452
909.715881,1456
909.831848,1395
909.947815,1442
910.063782,1478
910.179749,1425
910.295776,1446
910.411743,1424
910.527649,1441
910.643616,1477
910.759583,1461
910.875488,1463
910.991455,1447
911.107361,1408
911.223267,1482
911.339294,1450
911.4552,1439
911.571106,1450
911.687073,1423
911.802979,1445
911.918823,1414
912.034729,1460
912.150635,1434
912.266602,1472
912.382446,1447
912.498352,1438
912.614197,1446
912.730103,1420
912.846008,1461
