792.44574,2254
792.56488,2296
792.68396,2284
792.80304,2199
792.92218,2104
793.041199,2124
793.160339,2097
793.279419,2153
793.398499,2119
793.517578,2089
793.636658,2130
793.755737,2088
793.874817,2097
793.993896,2079
794.112976,2054
794.232056,2045
794.351074,2083
794.470215,2101
794.589233,2040
794.708313,2001
794.827393,1991
794.946411,1981
795.065552,1969
795.18457,1992
795.303589,2001
795.422668,1990
795.541687,1996
795.660767,1973
795.779846,1983
795.898865,1954
796.017883,1950
796.136963,1931
796.255981,1949
796.375061,1943
796.49408,1969
796.613037,1966
796.732117,1945
796.851135,1937
796.970154,1981
797.089233,1934
797.208191,1947
797.327271,1951
797.446228,1907
797.565186,1920
797.684265,1935
797.803223,1962
797.922241,1904
798.04126,1932
798.160278,1929
798.279297,1928
798.398315,1922
798.517273,1941
798.636292,1937
798.75531,1892
798.874268,1937
798.993286,1913
799.112244,1931
799.231323,1908
799.350281,1925
799.469238,1901
799.588257,1945
799.707153,1956
799.826111,1898
799.945129,1948
800.064087,1884
800.183044,1945
800.302063,1949
800.421021,1978
800.539978,1968
800.658936,1915
800.777893,1943
800.896912,1915
801.015747,1947
801.134705,1929
801.253723,1962
801.37262,1901
801.491638,1962
801.610535,1943
801.729492,1917
801.84845,1944
801.967407,1973
802.086243,1966
802.205261,1949
802.324158,1917
802.443115,1994
802.562073,1972
802.680969,1992
802.799927,1979
802.918762,2040
803.037659,2016
803.156677,2002
803.275574,2013
803.39447,1967
803.513428,1966
803.632263,2019
803.751221,2007
803.870117,2000
803.989014,2054
804.107971,2015
804.226746,2041
804.345642,2084
804.4646,2004
804.583496,2039
804.702393,2018
804.821228,2070
804.940125,2097
805.059021,2042
805.177917,2092
805.296814,2079
805.415649,2087
805.534546,2074
805.653442,2087
805.772278,2065
805.891113,2073
806.01001,2099
806.128906,2110
806.247742,2098
806.366577,2071
806.485413,2064
806.604309,2107
806.723145,2120
806.84198,2093
806.960876,2058
807.079712,2122
807.198486,2109
807.317383,2064
807.436218,2079
807.554993,2109
807.673889,2150
807.792725,2100
807.91156,2106
808.030396,2074
808.14917,2079
808.268005,2090
808.386841,2163
808.505676,2136
808.624451,2137
808.743286,2144
808.862122,2152
808.980896,2147
809.099731,2246
809.218506,2121
809.337341,2156
809.456116,2119
809.57489,2151
809.693726,2228
809.8125,2203
809.931274,2160
810.050049,2180
810.168884,2157
810.287659,2234
810.406372,2171
810.525269,2216
810.643982,2183
810.762756,2212
810.881531,2168
811.000305,2177
811.11908,2196
811.237854,2190
811.356567,2175
811.475403,2234
811.594116,2180
811.71283,2182
811.831604,2167
811.950378,2164
812.069153,2174
812.187927,2222
812.30658,2173
812.425415,2140
812.544128,2220
812.662781,2162
812.781616,2189
812.900269,2213
813.019043,2167
813.137756,2206
813.256531,2144
813.375244,2145
813.493896,2224
813.612671,2198
813.731384,2218
813.850037,2226
813.96875,2141
814.087524,2173
814.206238,2091
814.324951,2166
814.443604,2144
814.562256,2142
814.68103,2143
814.799683,2146
814.918335,2164
815.037109,2213
815.155762,2151
815.274475,2129
815.393188,2170
815.511841,2132
815.630554,2085
815.749146,2138
815.867859,2071
815.986572,2058
816.105164,2100
816.223877,2052
816.342529,2106
816.461182,2095
816.579895,2176
816.698486,2114
816.817139,2140
816.935791,2126
817.054504,2190
817.173096,2103
817.291748,2096
817.4104,2106
817.529053,2012
817.647644,2016
817.766235,1971
817.884949,1923
818.00354,1906
818.122192,1874
818.240845,1794
818.359436,1820
818.478088,1796
818.59668,1705
818.715271,1719
818.833923,1693
818.952515,1652
819.071106,1667
819.189758,1594
819.30835,1597
819.426941,1614
819.545532,1596
819.664124,1581
819.782715,1596
819.901306,1566
820.019897,1498
820.138489,1553
820.25708,1537
820.375671,1535
820.494202,1528
820.612732,1491
820.731384,1515
820.849915,1494
820.968506,1474
821.087097,1456
821.205627,1500
821.324158,1496
821.442749,1490
821.561279,1503
821.679871,1449
821.798401,1497
821.916931,1384
822.035461,1502
822.154053,1452
822.272583,1476
822.391174,1428
822.509583,1482
822.628174,1438
822.746704,1451
822.865234,1401
822.983765,1477
823.102295,1473
823.220825,1430
823.339294,1432
823.457825,1457
823.576355,1461
823.694824,1460
823.813354,1437
823.931885,1468
824.050354,1482
824.168884,1496
824.287354,1464
824.405823,1498
824.524353,1467
824.642822,1533
824.761353,1496
824.879822,1475
824.998291,1482
825.116699,1445
825.235291,1459
825.353699,1432
825.472168,1425
825.590637,1433
825.709106,1410
825.827576,1439
825.946045,1411
826.064453,1386
826.182983,1424
826.301392,1409
826.4198,1375
826.53833,1382
826.656738,1375
826.775208,1425
826.893677,1367
827.012024,1379
827.130493,1363
827.248962,1404
827.36731,1368
827.485779,1385
827.604248,1335
827.722595,1355
827.841064,1346
827.959412,1374
828.077942,1322
828.196289,1372
828.314636,1315
828.433105,1359
828.551514,1350
828.669861,1321
828.78833,1362
828.906677,1321
829.025085,1358
829.143433,1357
829.261841,1335
829.38031,1338
829.498657,1339
829.617004,1335
829.735413,1369
829.85376,1339
829.972107,1327
830.090515,1329
830.208862,1337
830.327209,1325
830.445557,1327
830.563904,1354
830.682312,1306
830.800659,1338
830.919006,1318
831.037354,1336
831.155701,1368
831.274048,1323
831.392395,1333
831.51062,1332
831.629028,1324
831.747314,1353
831.865662,1338
831.984009,1351
832.102356,1345
832.220642,1293
832.338928,1312
832.457275,1319
832.575623,1331
832.693909,1352
832.812134,1355
832.930481,1346
833.048828,1300
833.167114,1297
833.2854,1340
833.403687,1320
833.521973,1316
833.640259,1308
833.758545,1325
833.876831,1338
833.995056,1327
834.113281,1343
834.231628,1312
834.349915,1311
834.468201,1335
834.586426,1277
834.704651,1314
834.822998,1349
834.941162,1329
835.059448,1319
835.177673,1316
835.295959,1358
835.414246,1289
835.53241,1304
835.650635,1317
835.768921,1307
835.887146,1360
836.005371,1327
836.123596,1370
836.241821,1352
836.360046,1351
836.478271,1362
836.596497,1384
836.714722,1406
836.832886,1381
836.95105,1383
837.069336,1406
837.1875,1427
837.305725,1390
837.423889,1439
837.542053,1384
837.660339,1411
837.778503,1438
837.896667,1443
838.014832,1415
838.132996,1444
838.25116,1349
838.369385,1427
838.487488,1403
838.605713,1370
838.723877,1397
838.84198,1395
838.960205,1377
839.078308,1401
839.196472,1412
839.314636,1416
839.4328,1376
839.550964,1394
839.669067,1374
839.787231,1360
839.905396,1363
840.023499,1363
840.141602,1382
840.259766,1390
840.377869,1340
840.495972,1408
840.614136,1368
840.732239,1361
840.850342,1362
840.968445,1338
841.086548,1339
841.204651,1383
841.322754,1325
841.440918,1351
841.55896,1351
841.677002,1325
841.795166,1342
841.913208,1354
842.031311,1332
842.149353,1326
842.267456,1339
842.385498,1335
842.503601,1274
842.621643,1323
842.739746,1307
842.857788,1310
842.97583,1264
843.093933,1268
843.211975,1313
843.330017,1305
843.44812,1306
843.566101,1304
843.684204,1310
843.802246,1245
843.920227,1287
844.038269,1319
844.156311,1272
844.274292,1298
844.392395,1312
844.510376,1300
844.628357,1259
844.74646,1285
844.864441,1300
844.982422,1326
845.100403,1273
845.218384,1280
845.336426,1279
845.454468,1279
845.572449,1263
845.69043,1315
845.808411,1295
845.926453,1286
846.044373,1303
846.162354,1292
846.280396,1255
846.398315,1277
846.516296,1346
846.634216,1282
846.752197,1275
846.870178,1279
846.988098,1255
847.106079,1303
847.22406,1274
847.34198,1266
847.4599,1289
847.577881,1267
847.695801,1312
847.813782,1277
847.931641,1239
848.049561,1268
848.167603,1276
848.285461,1293
848.403381,1277
848.521362,1292
848.639221,1277
848.75708,1255
848.875,1240
848.99292,1275
849.110901,1279
849.22876,1269
849.34668,1278
849.464539,1288
849.582458,1277
849.700317,1248
849.818176,1232
849.936096,1250
850.053955,1301
850.171875,1267
850.289673,1290
850.407593,1312
850.525452,1255
850.643311,1248
850.761169,1281
850.878967,1268
850.996887,1285
851.114746,1265
851.232544,1296
851.350403,1301
851.468262,1264
851.58606,1309
851.703979,1301
851.821777,1276
851.939636,1255
852.057434,1285
852.175232,1283
852.293091,1279
852.410889,1288
852.528687,1246
852.646545,1234
852.764343,1296
852.88208,1298
852.999939,1329
853.117676,1301
853.235535,1334
853.353271,1321
853.471069,1262
853.588928,1295
853.706604,1289
853.824402,1308
853.9422,1289
854.059998,1276
854.177734,1327
854.295532,1268
854.413269,1312
854.531006,1302
854.648804,1296
854.766541,1316
854.884277,1331
855.002014,1306
855.119751,1306
855.237549,1324
855.355225,1336
855.473022,1320
855.590698,1316
855.708435,1321
855.826172,1287
855.943848,1359
856.061646,1349
856.179321,1309
856.296997,1325
856.414795,1296
856.53241,1301
856.650085,1307
856.767822,1335
856.885559,1353
857.003174,1333
857.120911,1321
857.238586,1326
857.356201,1358
857.473938,1279
857.591614,1283
857.709351,1297
857.826965,1350
857.944641,1296
858.062317,1289
858.179993,1350
858.297668,1309
858.415283,1282
858.532959,1302
858.650574,1312
858.768188,1269
858.885803,1298
859.003479,1285
859.121094,1327
859.23877,1357
859.356384,1285
859.473999,1281
859.591675,1289
859.709229,1274
859.826843,1296
859.944458,1296
860.062012,1296
860.179626,1295
860.297302,1338
860.414856,1322
860.532471,1295
860.650024,1282
860.767639,1296
860.885193,1313
861.002808,1261
861.120361,1267
861.237976,1326
861.35553,1303
861.473022,1294
861.590698,1284
861.708191,1289
861.825745,1286
861.943298,1326
862.060852,1296
862.178406,1229
862.295959,1261
862.413513,1302
862.531006,1271
862.64856,1276
862.766113,1298
862.883667,1301
863.00116,1314
863.118713,1282
863.236206,1282
863.353699,1271
863.471252,1283
863.588745,1305
863.706177,1281
863.82373,1292
863.941162,1297
864.058716,1307
864.176208,1306
864.29364,1324
864.411194,1321
864.528687,1280
864.646118,1309
864.763611,1262
864.881042,1327
864.998535,1297
865.116028,1296
865.233459,1309
865.350891,1306
865.468384,1298
865.585754,1320
865.703308,1260
865.820679,1275
865.938171,1321
866.055542,1313
866.173035,1321
866.290466,1280
866.407837,1305
866.52533,1316
866.6427,1310
866.760071,1306
866.877563,1294
866.994934,1300
867.112305,1338
867.229736,1300
867.347107,1325
867.464539,1288
867.58197,1331
867.699341,1281
867.81665,1303
867.934082,1317
868.051453,1292
868.168823,1330
868.286194,1319
868.403564,1308
868.520935,1312
868.638306,1238
868.755676,1290
868.872986,1292
868.990295,1321
869.107727,1322
869.225037,1301
869.342346,1313
869.459717,1320
869.577026,1306
869.694336,1268
869.811707,1300
869.929016,1297
870.046326,1288
870.163635,1281
870.280945,1323
870.398254,1303
870.515564,1292
870.632812,1315
870.750183,1325
870.867432,1347
870.984741,1302
871.102051,1307
871.219299,1269
871.336609,1348
871.453918,1338
871.571106,1346
871.688416,1333
871.805664,1311
871.922852,1288
872.040222,1310
872.157471,1304
872.274719,1329
872.391968,1333
872.509155,1349
872.626465,1308
872.743652,1328
872.860962,1330
872.978149,1310
873.095337,1327
873.212646,1297
873.329834,1265
873.44696,1292
873.564209,1303
873.681396,1321
873.798645,1294
873.915894,1343
874.03302,1320
874.150208,1342
874.267456,1286
874.384583,1284
874.501831,1266
874.618958,1301
874.736145,1302
874.853333,1289
874.970459,1299
875.087646,1306
875.204834,1265
875.32196,1296
875.439148,1337
875.556274,1303
875.673401,1332
875.790527,1286
875.907715,1300
876.024841,1309
876.141968,1300
876.259094,1317
876.376282,1301
876.493347,1318
876.610474,1311
876.7276,1309
876.844727,1279
876.961853,1341
877.078918,1295
877.195984,1321
877.313171,1344
877.430237,1297
877.547302,1304
877.664368,1274
877.781433,1326
877.898499,1307
878.015625,1318
878.13269,1305
878.249695,1365
878.366821,1313
878.483887,1311
878.600952,1304
878.717957,1355
878.834961,1272
878.952087,1301
879.069092,1280
879.186157,1317
879.303162,1336
879.420227,1287
879.537231,1322
879.654236,1273
879.77124,1293
879.888306,1301
880.005249,1319
880.122314,1308
880.239319,1296
880.356323,1315
880.473328,1306
880.590271,1295
880.707275,1305
880.824341,1308
880.941284,1295
881.058228,1302
881.175232,1258
881.292236,1300
881.40918,1314
881.526123,1290
881.643066,1290
881.760071,1302
881.877014,1307
881.993958,1321
882.11084,1248
882.227783,1355
882.344727,1332
882.46167,1305
882.578613,1316
882.695618,1324
882.812439,1298
882.929382,1352
883.046326,1318
883.163208,1315
883.280151,1344
883.397034,1306
883.513916,1317
883.630798,1314
883.747742,1343
883.864563,1322
883.981506,1322
884.098389,1347
884.21521,1356
884.332153,1302
884.448975,1348
884.565796,1299
884.682678,1351
884.7995,1315
884.916443,1315
885.033264,1312
885.150085,1331
885.266968,1344
885.383789,1358
885.500671,1316
885.617493,1341
885.734314,1349
885.851196,1361
885.967896,1322
886.084717,1402
886.201599,1347
886.318359,1337
886.435181,1335
886.552002,1354
886.668762,1350
886.785645,1368
886.902344,1332
887.019165,1383
887.135925,1343
887.252747,1329
887.369446,1303
887.486267,1353
887.603027,1361
887.719788,1333
887.836548,1334
887.953247,1331
888.070068,1354
888.186829,1336
888.303528,1376
888.420288,1333
888.536987,1325
888.653687,1325
888.770447,1316
888.887146,1312
889.003967,1346
889.120667,1316
889.237305,1310
889.354065,1328
889.470703,1384
889.587463,1295
889.704163,1349
889.820862,1319
889.937561,1342
890.054199,1403
890.170837,1352
890.287598,1321
890.404236,1309
890.520874,1358
890.637634,1329
890.754211,1344
890.87085,1323
890.987549,1323
891.104187,1361
891.220886,1366
891.337463,1354
891.454102,1370
891.57074,1364
891.687378,1352
891.804077,1331
891.920654,1330
892.037231,1320
892.15387,1391
892.270447,1359
892.387085,1373
892.503723,1351
892.6203,1382
892.736877,1356
892.853516,1378
892.970032,1365
893.08667,1365
893.203186,1359
893.319763,1343
893.43634,1352
893.552917,1341
893.669556,1375
893.786011,1348
893.902588,1312
894.019165,1378
894.135681,1343
894.252197,1380
894.368835,1348
894.485291,1342
894.601868,1385
894.718384,1426
894.8349,1368
894.951355,1391
895.067932,1338
895.184448,1353
895.300964,1360
895.417419,1416
895.533936,1401
895.650452,1379
895.766907,1363
895.883423,1381
895.999878,1328
896.116333,1399
896.232849,1342
896.349304,1386
896.465759,1387
896.582214,1353
896.698669,1365
896.815125,1380
896.931641,1390
897.048035,1364
897.164551,1375
897.280884,1358
897.397339,1336
897.513794,1343
897.630249,1352
897.746582,1332
897.863098,1362
897.979431,1357
898.095886,1373
898.212341,1352
898.328674,1359
898.445129,1359
898.561462,1366
898.677795,1398
898.794312,1435
898.910645,1324
899.026978,1388
899.143433,1380
899.259766,1362
899.37616,1359
899.492493,1405
899.608765,1349
899.725159,1366
899.841553,1374
899.957947,1340
900.07428,1398
900.190552,1373
900.306946,1364
900.423157,1355
900.53949,1373
900.655884,1352
900.772156,1399
900.888489,1375
901.004822,1376
901.121033,1316
901.237366,1380
901.353699,1357
901.46991,1427
901.586304,1428
901.702515,1395
901.818787,1396
901.93512,1350
902.051331,1367
902.167603,1407
902.283875,1421
902.400085,1386
902.516418,1379
902.632629,1397
902.74884,1379
902.865112,1412
902.981384,1381
903.097595,1401
903.213867,1417
903.330017,1402
903.446289,1399
903.5625,1395
903.67865,1385
903.794922,1431
903.911072,1377
904.027344,1406
904.143494,1385
904.259705,1457
904.375916,1378
904.492065,1416
904.608215,1378
904.724426,1410
904.840576,1351
904.956726,1425
905.072876,1413
905.189087,1376
905.305176,1401
905.421387,1386
905.537537,1403
905.653687,1473
905.769775,1394
905.885925,1421
906.002014,1384
906.118164,1364
906.234314,1377
906.350403,1409
906.466492,1381
906.582642,1406
906.69873,1402
906.814758,1422
906.930908,1413
907.046936,1433
907.163086,1361
907.279175,1388
907.395264,1376
907.511353,1370
907.62738,1384
907.743408,1362
907.859497,1400
907.975525,1415
908.091553,1408
908.207703,1364
908.32373,1375
908.439758,1423
908.555786,1390
908.671814,1411
908.787842,1409
908.90387,1406
909.019775,1406
909.135864,1408
909.251892,1374
909.367859,1421
909.483826,1389
909.599854,1406
909.715881,1470
909.831848,1390
909.947815,1405
910.063782,1437
910.179749,1409
910.295776,1424
910.411743,1370
910.527649,1434
910.643616,1412
910.759583,1411
910.875488,1377
910.991455,1396
911.107361,1377
911.223267,1394
911.339294,1391
911.4552,1398
911.571106,1410
911.687073,1428
911.802979,1404
911.918823,1438
912.034729,1420
912.150635,1404
912.266602,1406
912.382446,1374
912.498352,1397
912.614197,1350
912.730103,1394
912.846008,1378
792.44574,2283
792.56488,2280
792.68396,2276
792.80304,2237
792.92218,2142
793.041199,2174
793.160339,2189
793.279419,2142
793.398499,2179
793.517578,2123
793.636658,2136
793.755737,2147
793.874817,2126
793.993896,2112
794.112976,2082
794.232056,2087
794.351074,2028
794.470215,2050
794.589233,2116
794.708313,2044
794.827393,2067
794.946411,2037
795.065552,2040
795.18457,2024
795.303589,2019
795.422668,2067
795.541687,2000
795.660767,2037
795.779846,1974
795.898865,1985
796.017883,1996
796.136963,2003
796.255981,2028
796.375061,2050
796.49408,1977
796.613037,2002
796.732117,1975
796.851135,1960
796.970154,1978
797.089233,1995
797.208191,1957
797.327271,1977
797.446228,1974
797.565186,1979
797.684265,1984
797.803223,2015
797.922241,1964
798.04126,1974
798.160278,2008
798.279297,1984
798.398315,1942
798.517273,2006
798.636292,1978
798.75531,1982
798.874268,1958
798.993286,1964
799.112244,1942
799.231323,1918
799.350281,2012
799.469238,1972
799.588257,1949
799.707153,1965
799.826111,1983
799.945129,2013
800.064087,1955
800.183044,2015
800.302063,1973
800.421021,2014
800.539978,2003
800.658936,1970
800.777893,1956
800.896912,2003
801.015747,1956
801.134705,1964
801.253723,1956
801.37262,1962
801.491638,2011
801.610535,1942
801.729492,1958
801.84845,1979
801.967407,1991
802.086243,2016
802.205261,2042
802.324158,2062
802.443115,2021
802.562073,2067
802.680969,2045
802.799927,2016
802.918762,2009
803.037659,2015
803.156677,1983
803.275574,2060
803.39447,2055
803.513428,2107
803.632263,2102
803.751221,2040
803.870117,2038
803.989014,2064
804.107971,2009
804.226746,2066
804.345642,2064
804.4646,2084
804.583496,2120
804.702393,2044
804.821228,2082
804.940125,2105
805.059021,2117
805.177917,2105
805.296814,2090
805.415649,2098
805.534546,2087
805.653442,2154
805.772278,2092
805.891113,2045
806.01001,2094
806.128906,2171
806.247742,2124
806.366577,2085
806.485413,2137
806.604309,2129
806.723145,2143
806.84198,2096
806.960876,2128
807.079712,2160
807.198486,2120
807.317383,2151
807.436218,2112
807.554993,2104
807.673889,2111
807.792725,2133
807.91156,2138
808.030396,2179
808.14917,2153
808.268005,2152
808.386841,2129
808.505676,2213
808.624451,2174
808.743286,2224
808.862122,2150
808.980896,2201
809.099731,2171
809.218506,2196
809.337341,2185
809.456116,2215
809.57489,2219
809.693726,2203
809.8125,2227
809.931274,2174
810.050049,2220
810.168884,2195
810.287659,2193
810.406372,2174
810.525269,2175
810.643982,2221
810.762756,2196
810.881531,2232
811.000305,2181
811.11908,2193
811.237854,2195
811.356567,2200
811.475403,2213
811.594116,2167
811.71283,2234
811.831604,2165
811.950378,2231
812.069153,2221
812.187927,2236
812.30658,2181
812.425415,2187
812.544128,2235
812.662781,2239
812.781616,2210
812.900269,2278
813.019043,2173
813.137756,2199
813.256531,2224
813.375244,2201
813.493896,2228
813.612671,2244
813.731384,2231
813.850037,2206
813.96875,2248
814.087524,2190
814.206238,2159
814.324951,2158
814.443604,2191
814.562256,2224
814.68103,2116
814.799683,2185
814.918335,2203
815.037109,2182
815.155762,2170
815.274475,2190
815.393188,2178
815.511841,2127
815.630554,2162
815.749146,2078
815.867859,2098
815.986572,2092
816.105164,2118
816.223877,2128
816.342529,2121
816.461182,2089
816.579895,2156
816.698486,2169
816.817139,2168
816.935791,2136
817.054504,2182
817.173096,2121
817.291748,2113
817.4104,2113
817.529053,2081
817.647644,2003
817.766235,2024
817.884949,1973
818.00354,1942
818.122192,1884
818.240845,1866
818.359436,1810
818.478088,1791
818.59668,1752
818.715271,1766
818.833923,1718
818.952515,1692
819.071106,1669
819.189758,1678
819.30835,1641
819.426941,1583
819.545532,1600
819.664124,1630
819.782715,1557
819.901306,1625
820.019897,1541
820.138489,1607
820.25708,1572
820.375671,1564
820.494202,1549
820.612732,1562
820.731384,1564
820.849915,1484
820.968506,1510
821.087097,1500
821.205627,1544
821.324158,1476
821.442749,1541
821.561279,1456
821.679871,1483
821.798401,1482
821.916931,1505
822.035461,1527
822.154053,1487
822.272583,1513
822.391174,1466
822.509583,1459
822.628174,1478
822.746704,1460
822.865234,1436
822.983765,1493
823.102295,1456
823.220825,1451
823.339294,1422
823.457825,1522
823.576355,1443
823.694824,1506
823.813354,1500
823.931885,1531
824.050354,1520
824.168884,1510
824.287354,1497
824.405823,1485
824.524353,1567
824.642822,1491
824.761353,1498
824.879822,1489
824.998291,1513
825.116699,1462
825.235291,1500
825.353699,1482
825.472168,1499
825.590637,1453
825.709106,1458
825.827576,1472
825.946045,1451
826.064453,1427
826.182983,1444
826.301392,1438
826.4198,1392
826.53833,1411
826.656738,1422
826.775208,1409
826.893677,1438
827.012024,1368
827.130493,1406
827.248962,1435
827.36731,1405
827.485779,1404
827.604248,1349
827.722595,1351
827.841064,1395
827.959412,1387
828.077942,1335
828.196289,1380
828.314636,1365
828.433105,1386
828.551514,1374
828.669861,1373
828.78833,1402
828.906677,1393
829.025085,1367
829.143433,1331
829.261841,1361
829.38031,1364
829.498657,1346
829.617004,1403
829.735413,1374
829.85376,1392
829.972107,1372
830.090515,1374
830.208862,1360
830.327209,1395
830.445557,1345
830.563904,1369
830.682312,1370
830.800659,1352
830.919006,1339
831.037354,1343
831.155701,1332
831.274048,1363
831.392395,1347
831.51062,1353
831.629028,1383
831.747314,1366
831.865662,1340
831.984009,1378
832.102356,1371
832.220642,1383
832.338928,1358
832.457275,1364
832.575623,1354
832.693909,1341
832.812134,1382
832.930481,1349
833.048828,1304
833.167114,1313
833.2854,1348
833.403687,1337
833.521973,1356
833.640259,1340
833.758545,1335
833.876831,1329
833.995056,1364
834.113281,1375
834.231628,1315
834.349915,1400
834.468201,1319
834.586426,1362
834.704651,1383
834.822998,1345
834.941162,1347
835.059448,1328
835.177673,1391
835.295959,1367
835.414246,1365
835.53241,1348
835.650635,1358
835.768921,1369
835.887146,1398
836.005371,1366
836.123596,1370
836.241821,1387
836.360046,1407
836.478271,1439
836.596497,1417
836.714722,1378
836.832886,1365
836.95105,1418
837.069336,1422
837.1875,1419
837.305725,1432
837.423889,1439
837.542053,1440
837.660339,1426
837.778503,1447
837.896667,1457
838.014832,1447
838.132996,1453
838.25116,1442
838.369385,1430
838.487488,1451
838.605713,1441
838.723877,1400
838.84198,1432
838.960205,1409
839.078308,1433
839.196472,1394
839.314636,1415
839.4328,1418
839.550964,1433
839.669067,1376
839.787231,1392
839.905396,1470
840.023499,1387
840.141602,1409
840.259766,1402
840.377869,1401
840.495972,1385
840.614136,1428
840.732239,1368
840.850342,1402
840.968445,1373
841.086548,1407
841.204651,1382
841.322754,1377
841.440918,1348
841.55896,1350
841.677002,1351
841.795166,1365
841.913208,1338
842.031311,1343
842.149353,1376
842.267456,1363
842.385498,1314
842.503601,1309
842.621643,1312
842.739746,1325
842.857788,1322
842.97583,1317
843.093933,1347
843.211975,1354
843.330017,1263
843.44812,1364
843.566101,1335
843.684204,1327
843.802246,1323
843.920227,1325
844.038269,1313
844.156311,1303
844.274292,1319
844.392395,1317
844.510376,1328
844.628357,1326
844.74646,1327
844.864441,1312
844.982422,1317
845.100403,1306
845.218384,1285
845.336426,1286
845.454468,1331
845.572449,1308
845.69043,1284
845.808411,1305
845.926453,1298
846.044373,1294
846.162354,1319
846.280396,1311
846.398315,1312
846.516296,1307
846.634216,1299
846.752197,1272
846.870178,1333
846.988098,1308
847.106079,1302
847.22406,1315
847.34198,1300
847.4599,1284
847.577881,1354
847.695801,1272
847.813782,1304
847.931641,1293
848.049561,1319
848.167603,1248
848.285461,1297
848.403381,1331
848.521362,1307
848.639221,1325
848.75708,1262
848.875,1297
848.99292,1302
849.110901,1311
849.22876,1299
849.34668,1302
849.464539,1314
849.582458,1341
849.700317,1261
849.818176,1292
849.936096,1323
850.053955,1271
850.171875,1324
850.289673,1287
850.407593,1260
850.525452,1330
850.643311,1286
850.761169,1261
850.878967,1283
850.996887,1332
851.114746,1278
851.232544,1313
851.350403,1283
851.468262,1271
851.58606,1275
851.703979,1272
851.821777,1310
851.939636,1284
852.057434,1303
852.175232,1310
852.293091,1276
852.410889,1305
852.528687,1362
852.646545,1301
852.764343,1298
852.88208,1288
852.999939,1333
853.117676,1270
853.235535,1304
853.353271,1305
853.471069,1277
853.588928,1308
853.706604,1314
853.824402,1321
853.9422,1346
854.059998,1319
854.177734,1336
854.295532,1303
854.413269,1345
854.531006,1290
854.648804,1344
854.766541,1328
854.884277,1365
855.002014,1332
855.119751,1372
855.237549,1326
855.355225,1357
855.473022,1377
855.590698,1364
855.708435,1339
855.826172,1325
855.943848,1367
856.061646,1339
856.179321,1352
856.296997,1284
856.414795,1318
856.53241,1329
856.650085,1364
856.767822,1337
856.885559,1330
857.003174,1345
857.120911,1359
857.238586,1368
857.356201,1324
857.473938,1345
857.591614,1353
857.709351,1323
857.826965,1337
857.944641,1338
858.062317,1328
858.179993,1390
858.297668,1357
858.415283,1319
858.532959,1281
858.650574,1334
858.768188,1341
858.885803,1361
859.003479,1333
859.121094,1348
859.23877,1314
859.356384,1322
859.473999,1334
859.591675,1324
859.709229,1321
859.826843,1341
859.944458,1328
860.062012,1319
860.179626,1328
860.297302,1328
860.414856,1329
860.532471,1295
860.650024,1354
860.767639,1293
860.885193,1308
861.002808,1317
861.120361,1320
861.237976,1303
861.35553,1327
861.473022,1284
861.590698,1341
861.708191,1309
861.825745,1364
861.943298,1295
862.060852,1294
862.178406,1303
862.295959,1320
862.413513,1330
862.531006,1289
862.64856,1335
862.766113,1339
862.883667,1345
863.00116,1343
863.118713,1329
863.236206,1305
863.353699,1317
863.471252,1285
863.588745,1315
863.706177,1323
863.82373,1324
863.941162,1279
864.058716,1300
864.176208,1311
864.29364,1355
864.411194,1338
864.528687,1329
864.646118,1352
864.763611,1355
864.881042,1301
864.998535,1325
865.116028,1362
865.233459,1306
865.350891,1358
865.468384,1351
865.585754,1344
865.703308,1333
865.820679,1332
865.938171,1298
866.055542,1315
866.173035,1316
866.290466,1268
866.407837,1366
866.52533,1364
866.6427,1306
866.760071,1319
866.877563,1351
866.994934,1327
867.112305,1338
867.229736,1338
867.347107,1292
867.464539,1350
867.58197,1339
867.699341,1334
867.81665,1317
867.934082,1358
868.051453,1334
868.168823,1315
868.286194,1321
868.403564,1352
868.520935,1312
868.638306,1364
868.755676,1331
868.872986,1313
868.990295,1341
869.107727,1336
869.225037,1344
869.342346,1350
869.459717,1329
869.577026,1315
869.694336,1356
869.811707,1337
869.929016,1324
870.046326,1365
870.163635,1328
870.280945,1353
870.398254,1326
870.515564,1308
870.632812,1319
870.750183,1332
870.867432,1341
870.984741,1339
871.102051,1331
871.219299,1312
871.336609,1317
871.453918,1320
871.571106,1375
871.688416,1325
871.805664,1340
871.922852,1361
872.040222,1339
872.157471,1343
872.274719,1350
872.391968,1307
872.509155,1322
872.626465,1313
872.743652,1358
872.860962,1335
872.978149,1327
873.095337,1284
873.212646,1307
873.329834,1302
873.44696,1287
873.564209,1348
873.681396,1326
873.798645,1331
873.915894,1321
874.03302,1342
874.150208,1322
874.267456,1334
874.384583,1304
874.501831,1357
874.618958,1350
874.736145,1294
874.853333,1354
874.970459,1335
875.087646,1354
875.204834,1320
875.32196,1299
875.439148,1307
875.556274,1334
875.673401,1332
875.790527,1368
875.907715,1303
876.024841,1355
876.141968,1325
876.259094,1387
876.376282,1329
876.493347,1327
876.610474,1335
876.7276,1320
876.844727,1363
876.961853,1342
877.078918,1376
877.195984,1295
877.313171,1357
877.430237,1322
877.547302,1283
877.664368,1310
877.781433,1344
877.898499,1349
878.015625,1350
878.13269,1328
878.249695,1351
878.366821,1328
878.483887,1328
878.600952,1334
878.717957,1297
878.834961,1373
878.952087,1321
879.069092,1337
879.186157,1360
879.303162,1324
879.420227,1320
879.537231,1333
879.654236,1342
879.77124,1301
879.888306,1327
880.005249,1307
880.122314,1350
880.239319,1311
880.356323,1368
880.473328,1315
880.590271,1329
880.707275,1342
880.824341,1329
880.941284,1351
881.058228,1324
881.175232,1390
881.292236,1302
881.40918,1353
881.526123,1309
881.643066,1345
881.760071,1369
881.877014,1351
881.993958,1344
882.11084,1342
882.227783,1337
882.344727,1352
882.46167,1327
882.578613,1370
882.695618,1347
882.812439,1320
882.929382,1330
883.046326,1327
883.163208,1350
883.280151,1367
883.397034,1292
883.513916,1351
883.630798,1343
883.747742,1340
883.864563,1326
883.981506,1356
884.098389,1319
884.21521,1370
884.332153,1335
884.448975,1356
884.565796,1350
884.682678,1394
884.7995,1364
884.916443,1377
885.033264,1374
885.150085,1348
885.266968,1385
885.383789,1367
885.500671,1361
885.617493,1360
885.734314,1332
885.851196,1398
885.967896,1334
886.084717,1403
886.201599,1356
886.318359,1370
886.435181,1311
886.552002,1407
886.668762,1383
886.785645,1369
886.902344,1347
887.019165,1418
887.135925,1348
887.252747,1392
887.369446,1361
887.486267,1332
887.603027,1377
887.719788,1374
887.836548,1397
887.953247,1398
888.070068,1330
888.186829,1388
888.303528,1362
888.420288,1356
888.536987,1326
888.653687,1378
888.770447,1373
888.887146,1371
889.003967,1361
889.120667,1367
889.237305,1354
889.354065,1347
889.470703,1357
889.587463,1367
889.704163,1347
889.820862,1372
889.937561,1315
890.054199,1382
890.170837,1365
890.287598,1357
890.404236,1396
890.520874,1399
890.637634,1403
890.754211,1382
890.87085,1330
890.987549,1345
891.104187,1378
891.220886,1357
891.337463,1408
891.454102,1363
891.57074,1365
891.687378,1337
891.804077,1348
891.920654,1385
892.037231,1384
892.15387,1406
892.270447,1392
892.387085,1360
892.503723,1353
892.6203,1373
892.736877,1339
892.853516,1373
892.970032,1344
893.08667,1358
893.203186,1381
893.319763,1389
893.43634,1400
893.552917,1384
893.669556,1364
893.786011,1387
893.902588,1429
894.019165,1396
894.135681,1362
894.252197,1376
894.368835,1404
894.485291,1409
894.601868,1332
894.718384,1415
894.8349,1406
894.951355,1404
895.067932,1401
895.184448,1471
895.300964,1418
895.417419,1399
895.533936,1383
895.650452,1386
895.766907,1439
895.883423,1416
895.999878,1394
896.116333,1394
896.232849,1374
896.349304,1398
896.465759,1367
896.582214,1437
896.698669,1391
896.815125,1353
896.931641,1397
897.048035,1389
897.164551,1440
897.280884,1402
897.397339,1409
897.513794,1416
897.630249,1439
897.746582,1368
897.863098,1387
897.979431,1386
898.095886,1377
898.212341,1409
898.328674,1409
898.445129,1426
898.561462,1390
898.677795,1414
898.794312,1387
898.910645,1370
899.026978,1381
899.143433,1423
899.259766,1429
899.37616,1395
899.492493,1429
899.608765,1412
899.725159,1403
899.841553,1445
899.957947,1411
900.07428,1384
900.190552,1431
900.306946,1428
900.423157,1385
900.53949,1407
900.655884,1380
900.772156,1415
900.888489,1407
901.004822,1419
901.121033,1392
901.237366,1407
901.353699,1415
901.46991,1400
901.586304,1457
901.702515,1404
901.818787,1430
901.93512,1435
902.051331,1418
902.167603,1468
902.283875,1441
902.400085,1398
902.516418,1424
902.632629,1447
902.74884,1454
902.865112,1462
902.981384,1387
903.097595,1408
903.213867,1375
903.330017,1467
903.446289,1392
903.5625,1462
903.67865,1426
903.794922,1435
903.911072,1422
904.027344,1452
904.143494,1448
904.259705,1407
904.375916,1399
904.492065,1423
904.608215,1402
904.724426,1448
904.840576,1399
904.956726,1407
905.072876,1379
905.189087,1424
905.305176,1423
905.421387,1427
905.537537,1438
905.653687,1432
905.769775,1464
905.885925,1437
906.002014,1448
906.118164,1389
906.234314,1469
906.350403,1418
906.466492,1396
906.582642,1419
906.69873,1419
906.814758,1469
906.930908,1417
907.046936,1438
907.163086,1472
907.279175,1427
907.395264,1404
907.511353,1465
907.62738,1421
907.743408,1441
907.859497,1424
907.975525,1473
908.091553,1427
908.207703,1479
908.32373,1442
908.439758,1453
908.555786,1455
908.671814,1446
908.787842,1439
908.90387,1411
909.019775,1459
909.135864,1386
909.251892,1436
909.367859,1428
909.483826,1437
909.599854,1442
909.715881,1425
909.831848,1411
909.947815,1468
910.063782,1443
910.179749,1425
910.295776,1401
910.411743,1458
910.527649,1433
910.643616,1469
910.759583,1449
910.875488,1449
910.991455,1477
911.107361,1435
911.223267,1418
911.339294,1463
911.4552,1406
911.571106,1467
911.687073,1428
911.802979,1449
911.918823,1397
912.034729,1463
912.150635,1446
912.266602,1468
912.382446,1418
912.498352,1409
912.614197,1426
912.730103,1476
912.846008,1455
792.44574,2270
792.56488,2278
792.68396,2321
792.80304,2272
792.92218,2196
793.041199,2151
793.160339,2206
793.279419,2213
793.398499,2171
793.517578,2146
793.636658,2119
793.755737,2156
793.874817,2157
793.993896,2195
794.112976,2127
794.232056,2172
794.351074,2088
794.470215,2075
794.589233,2069
794.708313,2083
794.827393,2101
794.946411,2029
795.065552,2068
795.18457,2008
795.303589,1986
795.422668,2085
795.541687,2062
795.660767,2028
795.779846,2034
795.898865,1992
796.017883,2056
796.136963,2046
796.255981,2047
796.375061,2013
796.49408,1981
796.613037,1996
796.732117,2000
796.851135,2044
796.970154,1991
797.089233,1959
797.208191,1994
797.327271,1967
797.446228,1956
797.565186,2004
797.684265,1966
797.803223,1984
797.922241,1982
798.04126,1983
798.160278,1982
798.279297,2028
798.398315,1938
798.517273,1972
798.636292,1935
798.75531,1949
798.874268,1963
798.993286,1982
799.112244,1936
799.231323,1980
799.350281,1957
799.469238,2017
799.588257,1959
799.707153,1980
799.826111,2005
799.945129,1972
800.064087,1970
800.183044,1967
800.302063,1968
800.421021,1912
800.539978,1984
800.658936,2029
800.777893,1991
800.896912,2014
801.015747,1966
801.134705,1951
801.253723,1982
801.37262,1984
801.491638,2019
801.610535,2017
801.729492,2016
801.84845,1951
801.967407,2024
802.086243,2030
802.205261,2047
802.324158,2026
802.443115,2056
802.562073,2105
802.680969,2037
802.799927,2032
802.918762,1995
803.037659,1992
803.156677,2026
803.275574,2060
803.39447,2079
803.513428,2030
803.632263,2057
803.751221,2047
803.870117,2061
803.989014,2044
804.107971,2037
804.226746,2068
804.345642,2054
804.4646,2118
804.583496,2113
804.702393,2056
804.821228,2068
804.940125,2078
805.059021,2126
805.177917,2073
805.296814,2120
805.415649,2145
805.534546,2139
805.653442,2103
805.772278,2148
805.891113,2128
806.01001,2172
806.128906,2149
806.247742,2142
806.366577,2146
806.485413,2112
806.604309,2172
806.723145,2127
806.84198,2174
806.960876,2136
807.079712,2163
807.198486,2112
807.317383,2119
807.436218,2161
807.554993,2158
807.673889,2173
807.792725,2189
807.91156,2181
808.030396,2194
808.14917,2147
808.268005,2184
808.386841,2172
808.505676,2171
808.624451,2178
808.743286,2211
808.862122,2203
808.980896,2171
809.099731,2158
809.218506,2191
809.337341,2192
809.456116,2156
809.57489,2296
809.693726,2182
809.8125,2213
809.931274,2170
810.050049,2245
810.168884,2231
810.287659,2218
810.406372,2227
810.525269,2197
810.643982,2192
810.762756,2219
810.881531,2246
811.000305,2203
811.11908,2215
811.237854,2162
811.356567,2182
811.475403,2173
811.594116,2264
811.71283,2207
811.831604,2195
811.950378,2235
812.069153,2243
812.187927,2215
812.30658,2247
812.425415,2173
812.544128,2258
812.662781,2250
812.781616,2236
812.900269,2226
813.019043,2211
813.137756,2200
813.256531,2242
813.375244,2215
813.493896,2208
813.612671,2202
813.731384,2267
813.850037,2205
813.96875,2191
814.087524,2250
814.206238,2143
814.324951,2191
814.443604,2142
814.562256,2224
814.68103,2197
814.799683,2238
814.918335,2181
815.037109,2192
815.155762,2203
815.274475,2161
815.393188,2203
815.511841,2171
815.630554,2163
815.749146,2148
815.867859,2146
815.986572,2175
816.105164,2110
816.223877,2096
816.342529,2149
816.461182,2136
816.579895,2135
816.698486,2156
816.817139,2151
816.935791,2145
817.054504,2189
817.173096,2130
817.291748,2126
817.4104,2126
817.529053,2059
817.647644,2044
817.766235,2022
817.884949,1948
818.00354,1948
818.122192,1895
818.240845,1927
818.359436,1885
818.478088,1798
818.59668,1805
818.715271,1758
818.833923,1722
818.952515,1690
819.071106,1693
819.189758,1645
819.30835,1664
819.426941,1628
819.545532,1608
819.664124,1568
819.782715,1592
819.901306,1633
820.019897,1568
820.138489,1593
820.25708,1564
820.375671,1586
820.494202,1528
820.612732,1539
820.731384,1559
820.849915,1528
820.968506,1530
821.087097,1500
821.205627,1511
821.324158,1541
821.442749,1513
821.561279,1514
821.679871,1523
821.798401,1515
821.916931,1504
822.035461,1498
822.154053,1493
822.272583,1488
822.391174,1480
822.509583,1452
822.628174,1484
822.746704,1480
822.865234,1500
822.983765,1444
823.102295,1468
823.220825,1440
823.339294,1493
823.457825,1531
823.576355,1506
823.694824,1485
823.813354,1522
823.931885,1475
824.050354,1512
824.168884,1499
824.287354,1510
824.405823,1498
824.524353,1505
824.642822,1535
824.761353,1521
824.879822,1517
824.998291,1542
825.116699,1475
825.235291,1489
825.353699,1492
825.472168,1421
825.590637,1473
825.709106,1414
825.827576,1434
825.946045,1449
826.064453,1478
826.182983,1429
826.301392,1444
826.4198,1397
826.53833,1412
826.656738,1424
826.775208,1419
826.893677,1415
827.012024,1405
827.130493,1433
827.248962,1407
827.36731,1395
827.485779,1412
827.604248,1404
827.722595,1434
827.841064,1391
827.959412,1397
828.077942,1373
828.196289,1397
828.314636,1384
828.433105,1390
828.551514,1393
828.669861,1371
828.78833,1350
828.906677,1373
829.025085,1369
829.143433,1391
829.261841,1380
829.38031,1367
829.498657,1421
829.617004,1362
829.735413,1399
829.85376,1340
829.972107,1373
830.090515,1375
830.208862,1379
830.327209,1384
830.445557,1365
830.563904,1356
830.682312,1387
830.800659,1371
830.919006,1378
831.037354,1385
831.155701,1377
831.274048,1380
831.392395,1369
831.51062,1398
831.629028,1375
831.747314,1359
831.865662,1346
831.984009,1361
832.102356,1369
832.220642,1325
832.338928,1352
832.457275,1322
832.575623,1364
832.693909,1330
832.812134,1367
832.930481,1369
833.048828,1374
833.167114,1354
833.2854,1325
833.403687,1401
833.521973,1350
833.640259,1392
833.758545,1333
833.876831,1346
833.995056,1391
834.113281,1322
834.231628,1379
834.349915,1340
834.468201,1338
834.586426,1385
834.704651,1348
834.822998,1360
834.941162,1339
835.059448,1309
835.177673,1351
835.295959,1326
835.414246,1389
835.53241,1372
835.650635,1383
835.768921,1351
835.887146,1366
836.005371,1395
836.123596,1389
836.241821,1397
836.360046,1339
836.478271,1420
836.596497,1415
836.714722,1420
836.832886,1452
836.95105,1448
837.069336,1429
837.1875,1464
837.305725,1434
837.423889,1444
837.542053,1433
837.660339,1460
837.778503,1432
837.896667,1442
838.014832,1456
838.132996,1389
838.25116,1440
838.369385,1443
838.487488,1419
838.605713,1452
838.723877,1464
838.84198,1392
838.960205,1418
839.078308,1447
839.196472,1476
839.314636,1441
839.4328,1462
839.550964,1427
839.669067,1434
839.787231,1394
839.905396,1440
840.023499,1412
840.141602,1436
840.259766,1429
840.377869,1421
840.495972,1389
840.614136,1406
840.732239,1392
840.850342,1381
840.968445,1407
841.086548,1426
841.204651,1366
841.322754,1430
841.440918,1375
841.55896,1405
841.677002,1395
841.795166,1374
841.913208,1387
842.031311,1322
842.149353,1354
842.267456,1365
842.385498,1359
842.503601,1338
842.621643,1295
842.739746,1346
842.857788,1363
842.97583,1291
843.093933,1367
843.211975,1323
843.330017,1338
843.44812,1311
843.566101,1306
843.684204,1332
843.802246,1297
843.920227,1354
844.038269,1339
844.156311,1327
844.274292,1359
844.392395,1331
844.510376,1311
844.628357,1301
844.74646,1326
844.864441,1326
844.982422,1351
845.100403,1367
845.218384,1332
845.336426,1331
845.454468,1296
845.572449,1315
845.69043,1340
845.808411,1291
845.926453,1319
846.044373,1311
846.162354,1303
846.280396,1337
846.398315,1317
846.516296,1286
846.634216,1330
846.752197,1314
846.870178,1267
846.988098,1323
847.106079,1352
847.22406,1320
847.34198,1297
847.4599,1326
847.577881,1331
847.695801,1329
847.813782,1313
847.931641,1315
848.049561,1288
848.167603,1286
848.285461,1321
848.403381,1326
848.521362,1327
848.639221,1290
848.75708,1337
848.875,1314
848.99292,1311
849.110901,1310
849.22876,1322
849.34668,1300
849.464539,1307
849.582458,1327
849.700317,1313
849.818176,1280
849.936096,1317
850.053955,1330
850.171875,1300
850.289673,1300
850.407593,1279
850.525452,1341
850.643311,1295
850.761169,1294
850.878967,1353
850.996887,1326
851.114746,1317
851.232544,1314
851.350403,1308
851.468262,1317
851.58606,1302
851.703979,1342
851.821777,1318
851.939636,1338
852.057434,1305
852.175232,1241
852.293091,1308
852.410889,1311
852.528687,1314
852.646545,1335
852.764343,1332
852.88208,1355
852.999939,1316
853.117676,1347
853.235535,1323
853.353271,1333
853.471069,1348
853.588928,1301
853.706604,1328
853.824402,1305
853.9422,1353
854.059998,1297
854.177734,1337
854.295532,1309
854.413269,1355
854.531006,1333
854.648804,1349
854.766541,1350
854.884277,1375
855.002014,1311
855.119751,1313
855.237549,1349
855.355225,1371
855.473022,1328
855.590698,1352
855.708435,1316
855.826172,1353
855.943848,1334
856.061646,1303
856.179321,1346
856.296997,1374
856.414795,1338
856.53241,1319
856.650085,1384
856.767822,1379
856.885559,1345
857.003174,1357
857.120911,1370
857.238586,1371
857.356201,1352
857.473938,1383
857.591614,1359
857.709351,1332
857.826965,1336
857.944641,1350
858.062317,1354
858.179993,1339
858.297668,1340
858.415283,1345
858.532959,1317
858.650574,1363
858.768188,1349
858.885803,1382
859.003479,1314
859.121094,1343
859.23877,1329
859.356384,1355
859.473999,1342
859.591675,1349
859.709229,1374
859.826843,1336
859.944458,1297
860.062012,1286
860.179626,1334
860.297302,1330
860.414856,1300
860.532471,1307
860.650024,1305
860.767639,1321
860.885193,1319
861.002808,1301
861.120361,1318
861.237976,1342
861.35553,1353
861.473022,1302
861.590698,1312
861.708191,1312
861.825745,1319
861.943298,1317
862.060852,1284
862.178406,1340
862.295959,1338
862.413513,1306
862.531006,1343
862.64856,1339
862.766113,1320
862.883667,1321
863.00116,1339
863.118713,1319
863.236206,1334
863.353699,1349
863.471252,1345
863.588745,1351
863.706177,1361
863.82373,1305
863.941162,1315
864.058716,1338
864.176208,1351
864.29364,1335
864.411194,1341
864.528687,1371
864.646118,1349
864.763611,1343
864.881042,1340
864.998535,1359
865.116028,1346
865.233459,1344
865.350891,1353
865.468384,1352
865.585754,1361
865.703308,1300
865.820679,1372
865.938171,1376
866.055542,1358
866.173035,1303
866.290466,1362
866.407837,1367
866.52533,1356
866.6427,1348
866.760071,1346
866.877563,1332
866.994934,1353
867.112305,1372
867.229736,1340
867.347107,1329
867.464539,1344
867.58197,1360
867.699341,1335
867.81665,1361
867.934082,1368
868.051453,1384
868.168823,1324
868.286194,1324
868.403564,1359
868.520935,1370
868.638306,1348
868.755676,1347
868.872986,1353
868.990295,1358
869.107727,1379
869.225037,1328
869.342346,1359
869.459717,1343
869.577026,1392
869.694336,1337
869.811707,1356
869.929016,1346
870.046326,1331
870.163635,1348
870.280945,1333
870.398254,1316
870.515564,1335
870.632812,1341
870.750183,1353
870.867432,1333
870.984741,1283
871.102051,1354
871.219299,1305
871.336609,1336
871.453918,1361
871.571106,1321
871.688416,1353
871.805664,1372
871.922852,1346
872.040222,1339
872.157471,1358
872.274719,1340
872.391968,1335
872.509155,1333
872.626465,1379
872.743652,1346
872.860962,1348
872.978149,1346
873.095337,1351
873.212646,1366
873.329834,1344
873.44696,1385
873.564209,1354
873.681396,1297
873.798645,1324
873.915894,1386
874.03302,1396
874.150208,1323
874.267456,1322
874.384583,1311
874.501831,1359
874.618958,1352
874.736145,1314
874.853333,1352
874.970459,1355
875.087646,1350
875.204834,1349
875.32196,1342
875.439148,1316
875.556274,1346
875.673401,1371
875.790527,1323
875.907715,1305
876.024841,1303
876.141968,1338
876.259094,1361
876.376282,1331
876.493347,1333
876.610474,1305
876.7276,1335
876.844727,1374
876.961853,1364
877.078918,1369
877.195984,1354
877.313171,1335
877.430237,1337
877.547302,1355
877.664368,1366
877.781433,1329
877.898499,1341
878.015625,1329
878.13269,1271
878.249695,1308
878.366821,1289
878.483887,1346
878.600952,1372
878.717957,1320
878.834961,1348
878.952087,1352
879.069092,1337
879.186157,1362
879.303162,1327
879.420227,1334
879.537231,1327
879.654236,1320
879.77124,1343
879.888306,1345
880.005249,1316
880.122314,1356
880.239319,1370
880.356323,1319
880.473328,1360
880.590271,1362
880.707275,1342
880.824341,1351
880.941284,1356
881.058228,1343
881.175232,1382
881.292236,1339
881.40918,1361
881.526123,1365
881.643066,1376
881.760071,1362
881.877014,1368
881.993958,1403
882.11084,1360
882.227783,1303
882.344727,1341
882.46167,1352
882.578613,1363
882.695618,1353
882.812439,1379
882.929382,1350
883.046326,1379
883.163208,1357
883.280151,1340
883.397034,1363
883.513916,1386
883.630798,1345
883.747742,1373
883.864563,1339
883.981506,1366
884.098389,1342
884.21521,1403
884.332153,1385
884.448975,1369
884.565796,1384
884.682678,1403
884.7995,1343
884.916443,1403
885.033264,1345
885.150085,1392
885.266968,1332
885.383789,1390
885.500671,1387
885.617493,1399
885.734314,1407
885.851196,1409
885.967896,1371
886.084717,1396
886.201599,1353
886.318359,1420
886.435181,1363
886.552002,1392
886.668762,1382
886.785645,1400
886.902344,1356
887.019165,1429
887.135925,1386
887.252747,1391
887.369446,1432
887.486267,1331
887.603027,1351
887.719788,1404
887.836548,1400
887.953247,1383
888.070068,1357
888.186829,1398
888.303528,1382
888.420288,1391
888.536987,1337
888.653687,1360
888.770447,1388
888.887146,1418
889.003967,1372
889.120667,1388
889.237305,1385
889.354065,1417
889.470703,1392
889.587463,1347
889.704163,1397
889.820862,1378
889.937561,1389
890.054199,1352
890.170837,1382
890.287598,1398
890.404236,1355
890.520874,1356
890.637634,1369
890.754211,1384
890.87085,1390
890.987549,1395
891.104187,1401
891.220886,1371
891.337463,1424
891.454102,1383
891.57074,1402
891.687378,1360
891.804077,1370
891.920654,1423
892.037231,1433
892.15387,1389
892.270447,1377
892.387085,1420
892.503723,1379
892.6203,1407
892.736877,1370
892.853516,1398
892.970032,1406
893.08667,1444
893.203186,1422
893.319763,1390
893.43634,1407
893.552917,1411
893.669556,1395
893.786011,1381
893.902588,1395
894.019165,1388
894.135681,1420
894.252197,1422
894.368835,1431
894.485291,1378
894.601868,1386
894.718384,1374
894.8349,1388
894.951355,1396
895.067932,1343
895.184448,1431
895.300964,1396
895.417419,1413
895.533936,1381
895.650452,1406
895.766907,1433
895.883423,1417
895.999878,1372
896.116333,1384
896.232849,1376
896.349304,1397
896.465759,1429
896.582214,1397
896.698669,1411
896.815125,1398
896.931641,1399
897.048035,1430
897.164551,1408
897.280884,1427
897.397339,1366
897.513794,1398
897.630249,1358
897.746582,1383
897.863098,1406
897.979431,1406
898.095886,1396
898.212341,1454
898.328674,1428
898.445129,1430
898.561462,1389
898.677795,1405
898.794312,1406
898.910645,1428
899.026978,1392
899.143433,1456
899.259766,1426
899.37616,1412
899.492493,1404
899.608765,1470
899.725159,1399
899.841553,1420
899.957947,1400
900.07428,1402
900.190552,1423
900.306946,1459
900.423157,1395
900.53949,1392
900.655884,1475
900.772156,1442
900.888489,1391
901.004822,1414
901.121033,1420
901.237366,1431
901.353699,1437
901.46991,1426
901.586304,1460
901.702515,1429
901.818787,1436
901.93512,1470
902.051331,1407
902.167603,1407
902.283875,1448
902.400085,1417
902.516418,1427
902.632629,1438
902.74884,1443
902.865112,1440
902.981384,1472
903.097595,1468
903.213867,1418
903.330017,1422
903.446289,1406
903.5625,1458
903.67865,1437
903.794922,1446
903.911072,1425
904.027344,1396
904.143494,1445
904.259705,1459
904.375916,1418
904.492065,1497
904.608215,1442
904.724426,1415
904.840576,1430
904.956726,1470
905.072876,1430
905.189087,1478
905.305176,1440
905.421387,1462
905.537537,1454
905.653687,1407
905.769775,1446
905.885925,1461
906.002014,1489
906.118164,1448
906.234314,1409
906.350403,1429
906.466492,1463
906.582642,1425
906.69873,1453
906.814758,1408
906.930908,1421
907.046936,1417
907.163086,1470
907.279175,1449
907.395264,1488
907.511353,1444
907.62738,1434
907.743408,1448
907.859497,1459
907.975525,1455
908.091553,1447
908.207703,1441
908.32373,1494
908.439758,1461
908.555786,1441
908.671814,1463
908.787842,1475
908.90387,1422
909.019775,1444
909.135864,1439
909.251892,1442
909.367859,1453
909.483826,1483
909.599854,1490
909.715881,1419
909.831848,1429
909.947815,1445
910.063782,1457
910.179749,1490
910.295776,1504
910.411743,1494
910.527649,1451
910.643616,1422
910.759583,1457
910.875488,1442
910.991455,1463
911.107361,1430
911.223267,1446
911.339294,1456
911.4552,1444
911.571106,1432
911.687073,1439
911.802979,1475
911.918823,1465
912.034729,1463
912.150635,1481
912.266602,1463
912.382446,1493
912.498352,1436
912.614197,1457
912.730103,1445
912.846008,1442
