792.44574,5247
792.56488,4942
792.68396,4830
792.80304,4695
792.92218,4629
793.041199,4482
793.160339,4382
793.279419,4278
793.398499,4150
793.517578,4089
793.636658,3961
793.755737,3925
793.874817,3813
793.993896,3739
794.112976,3561
794.232056,3598
794.351074,3463
794.470215,3460
794.589233,3451
794.708313,3387
794.827393,3274
794.946411,3256
795.065552,3279
795.18457,3209
795.303589,3120
795.422668,3088
795.541687,3072
795.660767,3087
795.779846,2985
795.898865,2988
796.017883,2915
796.136963,2872
796.255981,2830
796.375061,2784
796.49408,2755
796.613037,2754
796.732117,2691
796.851135,2658
796.970154,2666
797.089233,2642
797.208191,2634
797.327271,2645
797.446228,2552
797.565186,2521
797.684265,2562
797.803223,2542
797.922241,2510
798.04126,2506
798.160278,2408
798.279297,2426
798.398315,2451
798.517273,2407
798.636292,2386
798.75531,2417
798.874268,2340
798.993286,2398
799.112244,2372
799.231323,2389
799.350281,2392
799.469238,2388
799.588257,2366
799.707153,2323
799.826111,2281
799.945129,2283
800.064087,2259
800.183044,2343
800.302063,2293
800.421021,2295
800.539978,2278
800.658936,2234
800.777893,2221
800.896912,2226
801.015747,2235
801.134705,2178
801.253723,2185
801.37262,2176
801.491638,2225
801.610535,2157
801.729492,2161
801.84845,2140
801.967407,2134
802.086243,2136
802.205261,2067
802.324158,2161
802.443115,2123
802.562073,2083
802.680969,2140
802.799927,2087
802.918762,2026
803.037659,2061
803.156677,2105
803.275574,2085
803.39447,2128
803.513428,2128
803.632263,2088
803.751221,1995
803.870117,2041
803.989014,2014
804.107971,2009
804.226746,2080
804.345642,1991
804.4646,2009
804.583496,2029
804.702393,2018
804.821228,2030
804.940125,2034
805.059021,1987
805.177917,1997
805.296814,2002
805.415649,2002
805.534546,2053
805.653442,1992
805.772278,2034
805.891113,1958
806.01001,2017
806.128906,1943
806.247742,1924
806.366577,1925
806.485413,1973
806.604309,1997
806.723145,1984
806.84198,1966
806.960876,1934
807.079712,1943
807.198486,1964
807.317383,1975
807.436218,1908
807.554993,1943
807.673889,1941
807.792725,1888
807.91156,1950
808.030396,1915
808.14917,1895
808.268005,1874
808.386841,1910
808.505676,1893
808.624451,1914
808.743286,1892
808.862122,1870
808.980896,1844
809.099731,1861
809.218506,1886
809.337341,1898
809.456116,1899
809.57489,1910
809.693726,1895
809.8125,1896
809.931274,1911
810.050049,1914
810.168884,1917
810.287659,1873
810.406372,1875
810.525269,1867
810.643982,1863
810.762756,1897
810.881531,1875
811.000305,1890
811.11908,1896
811.237854,1869
811.356567,1894
811.475403,1908
811.594116,1855
811.71283,1918
811.831604,1925
811.950378,1915
812.069153,1938
812.187927,1934
812.30658,1960
812.425415,1837
812.544128,1908
812.662781,1930
812.781616,1925
812.900269,1915
813.019043,1927
813.137756,1913
813.256531,1892
813.375244,1875
813.493896,1902
813.612671,1887
813.731384,1861
813.850037,1862
813.96875,1844
814.087524,1904
814.206238,1854
814.324951,1857
814.443604,1849
814.562256,1799
814.68103,1847
814.799683,1886
814.918335,1799
815.037109,1876
815.155762,1812
815.274475,1847
815.393188,1861
815.511841,1806
815.630554,1837
815.749146,1814
815.867859,1852
815.986572,1839
816.105164,1806
816.223877,1859
816.342529,1867
816.461182,1845
816.579895,1874
816.698486,1814
816.817139,1847
816.935791,1884
817.054504,1893
817.173096,1900
817.291748,1884
817.4104,1887
817.529053,1802
817.647644,1792
817.766235,1777
817.884949,1768
818.00354,1772
818.122192,1793
818.240845,1799
818.359436,1764
818.478088,1754
818.59668,1775
818.715271,1732
818.833923,1747
818.952515,1734
819.071106,1690
819.189758,1706
819.30835,1691
819.426941,1668
819.545532,1640
819.664124,1651
819.782715,1685
819.901306,1661
820.019897,1621
820.138489,1698
820.25708,1666
820.375671,1653
820.494202,1633
820.612732,1668
820.731384,1641
820.849915,1665
820.968506,1675
821.087097,1636
821.205627,1644
821.324158,1640
821.442749,1653
821.561279,1576
821.679871,1604
821.798401,1660
821.916931,1637
822.035461,1620
822.154053,1605
822.272583,1597
822.391174,1585
822.509583,1649
822.628174,1589
822.746704,1609
822.865234,1614
822.983765,1562
823.102295,1576
823.220825,1586
823.339294,1563
823.457825,1578
823.576355,1634
823.694824,1590
823.813354,1572
823.931885,1644
824.050354,1617
824.168884,1624
824.287354,1561
824.405823,1614
824.524353,1580
824.642822,1591
824.761353,1578
824.879822,1644
824.998291,1617
825.116699,1606
825.235291,1627
825.353699,1625
825.472168,1585
825.590637,1589
825.709106,1610
825.827576,1576
825.946045,1621
826.064453,1626
826.182983,1565
826.301392,1629
826.4198,1608
826.53833,1545
826.656738,1530
826.775208,1537
826.893677,1568
827.012024,1522
827.130493,1554
827.248962,1605
827.36731,1556
827.485779,1639
827.604248,1575
827.722595,1569
827.841064,1475
827.959412,1518
828.077942,1576
828.196289,1522
828.314636,1564
828.433105,1549
828.551514,1562
828.669861,1563
828.78833,1535
828.906677,1553
829.025085,1514
829.143433,1520
829.261841,1557
829.38031,1522
829.498657,1549
829.617004,1553
829.735413,1558
829.85376,1526
829.972107,1534
830.090515,1512
830.208862,1543
830.327209,1528
830.445557,1522
830.563904,1527
830.682312,1589
830.800659,1524
830.919006,1557
831.037354,1598
831.155701,1595
831.274048,1598
831.392395,1598
831.51062,1579
831.629028,1572
831.747314,1590
831.865662,1555
831.984009,1592
832.102356,1544
832.220642,1599
832.338928,1622
832.457275,1596
832.575623,1631
832.693909,1602
832.812134,1573
832.930481,1598
833.048828,1574
833.167114,1561
833.2854,1583
833.403687,1578
833.521973,1551
833.640259,1594
833.758545,1584
833.876831,1523
833.995056,1593
834.113281,1576
834.231628,1596
834.349915,1563
834.468201,1579
834.586426,1616
834.704651,1552
834.822998,1564
834.941162,1573
835.059448,1610
835.177673,1581
835.295959,1630
835.414246,1571
835.53241,1623
835.650635,1638
835.768921,1589
835.887146,1580
836.005371,1579
836.123596,1570
836.241821,1573
836.360046,1551
836.478271,1557
836.596497,1536
836.714722,1548
836.832886,1550
836.95105,1573
837.069336,1558
837.1875,1575
837.305725,1515
837.423889,1542
837.542053,1538
837.660339,1522
837.778503,1595
837.896667,1589
838.014832,1563
838.132996,1575
838.25116,1593
838.369385,1528
838.487488,1526
838.605713,1576
838.723877,1581
838.84198,1628
838.960205,1565
839.078308,1595
839.196472,1606
839.314636,1626
839.4328,1613
839.550964,1608
839.669067,1650
839.787231,1626
839.905396,1680
840.023499,1725
840.141602,1689
840.259766,1697
840.377869,1689
840.495972,1729
840.614136,1751
840.732239,1721
840.850342,1738
840.968445,1738
841.086548,1724
841.204651,1773
841.322754,1777
841.440918,1780
841.55896,1759
841.677002,1780
841.795166,1811
841.913208,1840
842.031311,1825
842.149353,1772
842.267456,1824
842.385498,1803
842.503601,1742
842.621643,1753
842.739746,1770
842.857788,1760
842.97583,1769
843.093933,1726
843.211975,1767
843.330017,1775
843.44812,1746
843.566101,1777
843.684204,1807
843.802246,1724
843.920227,1752
844.038269,1776
844.156311,1703
844.274292,1762
844.392395,1743
844.510376,1738
844.628357,1771
844.74646,1733
844.864441,1737
844.982422,1705
845.100403,1746
845.218384,1690
845.336426,1697
845.454468,1722
845.572449,1684
845.69043,1668
845.808411,1670
845.926453,1669
846.044373,1708
846.162354,1691
846.280396,1706
846.398315,1715
846.516296,1706
846.634216,1721
846.752197,1674
846.870178,1729
846.988098,1724
847.106079,1712
847.22406,1747
847.34198,1749
847.4599,1740
847.577881,1690
847.695801,1717
847.813782,1737
847.931641,1719
848.049561,1698
848.167603,1736
848.285461,1685
848.403381,1702
848.521362,1708
848.639221,1693
848.75708,1727
848.875,1743
848.99292,1733
849.110901,1760
849.22876,1756
849.34668,1755
849.464539,1744
849.582458,1736
849.700317,1758
849.818176,1714
849.936096,1729
850.053955,1687
850.171875,1732
850.289673,1721
850.407593,1751
850.525452,1707
850.643311,1752
850.761169,1703
850.878967,1696
850.996887,1703
851.114746,1707
851.232544,1660
851.350403,1673
851.468262,1648
851.58606,1682
851.703979,1705
851.821777,1734
851.939636,1673
852.057434,1699
852.175232,1694
852.293091,1739
852.410889,1776
852.528687,1849
852.646545,1917
852.764343,1910
852.88208,1871
852.999939,1828
853.117676,1784
853.235535,1783
853.353271,1739
853.471069,1766
853.588928,1717
853.706604,1689
853.824402,1734
853.9422,1683
854.059998,1719
854.177734,1699
854.295532,1676
854.413269,1743
854.531006,1754
854.648804,1733
854.766541,1742
854.884277,1800
855.002014,1724
855.119751,1721
855.237549,1759
855.355225,1773
855.473022,1726
855.590698,1748
855.708435,1708
855.826172,1777
855.943848,1751
856.061646,1736
856.179321,1723
856.296997,1765
856.414795,1766
856.53241,1745
856.650085,1803
856.767822,1760
856.885559,1844
857.003174,1853
857.120911,1854
857.238586,1841
857.356201,1841
857.473938,1811
857.591614,1831
857.709351,1855
857.826965,1800
857.944641,1817
858.062317,1803
858.179993,1799
858.297668,1856
858.415283,1817
858.532959,1818
858.650574,1793
858.768188,1852
858.885803,1823
859.003479,1788
859.121094,1786
859.23877,1786
859.356384,1759
859.473999,1767
859.591675,1707
859.709229,1786
859.826843,1733
859.944458,1689
860.062012,1769
860.179626,1688
860.297302,1677
860.414856,1686
860.532471,1696
860.650024,1709
860.767639,1716
860.885193,1671
861.002808,1708
861.120361,1713
861.237976,1683
861.35553,1784
861.473022,1736
861.590698,1698
861.708191,1727
861.825745,1642
861.943298,1707
862.060852,1682
862.178406,1699
862.295959,1654
862.413513,1606
862.531006,1605
862.64856,1616
862.766113,1582
862.883667,1576
863.00116,1595
863.118713,1592
863.236206,1579
863.353699,1625
863.471252,1646
863.588745,1615
863.706177,1670
863.82373,1696
863.941162,1684
864.058716,1659
864.176208,1694
864.29364,1597
864.411194,1559
864.528687,1631
864.646118,1635
864.763611,1593
864.881042,1645
864.998535,1573
865.116028,1605
865.233459,1608
865.350891,1600
865.468384,1577
865.585754,1623
865.703308,1615
865.820679,1593
865.938171,1581
866.055542,1600
866.173035,1597
866.290466,1583
866.407837,1620
866.52533,1595
866.6427,1632
866.760071,1636
866.877563,1623
866.994934,1626
867.112305,1641
867.229736,1625
867.347107,1648
867.464539,1595
867.58197,1644
867.699341,1666
867.81665,1654
867.934082,1681
868.051453,1677
868.168823,1688
868.286194,1656
868.403564,1650
868.520935,1609
868.638306,1639
868.755676,1644
868.872986,1634
868.990295,1701
869.107727,1653
869.225037,1675
869.342346,1696
869.459717,1678
869.577026,1682
869.694336,1701
869.811707,1698
869.929016,1738
870.046326,1750
870.163635,1743
870.280945,1755
870.398254,1779
870.515564,1745
870.632812,1775
870.750183,1827
870.867432,1798
870.984741,1820
871.102051,1816
871.219299,1847
871.336609,1852
871.453918,1838
871.571106,1876
871.688416,1880
871.805664,1867
871.922852,1891
872.040222,1855
872.157471,1909
872.274719,1887
872.391968,1884
872.509155,1868
872.626465,1817
872.743652,1862
872.860962,1834
872.978149,1881
873.095337,1844
873.212646,1801
873.329834,1830
873.44696,1882
873.564209,1780
873.681396,1865
873.798645,1769
873.915894,1792
874.03302,1760
874.150208,1794
874.267456,1862
874.384583,1851
874.501831,1883
874.618958,1876
874.736145,1923
874.853333,1922
874.970459,1938
875.087646,1919
875.204834,1890
875.32196,1870
875.439148,1835
875.556274,1807
875.673401,1821
875.790527,1812
875.907715,1792
876.024841,1838
876.141968,1818
876.259094,1759
876.376282,1737
876.493347,1777
876.610474,1753
876.7276,1750
876.844727,1724
876.961853,1759
877.078918,1775
877.195984,1731
877.313171,1705
877.430237,1698
877.547302,1746
877.664368,1744
877.781433,1702
877.898499,1751
878.015625,1711
878.13269,1714
878.249695,1688
878.366821,1655
878.483887,1689
878.600952,1663
878.717957,1619
878.834961,1656
878.952087,1624
879.069092,1658
879.186157,1638
879.303162,1610
879.420227,1616
879.537231,1610
879.654236,1592
879.77124,1573
879.888306,1586
880.005249,1582
880.122314,1581
880.239319,1605
880.356323,1603
880.473328,1550
880.590271,1558
880.707275,1567
880.824341,1542
880.941284,1564
881.058228,1535
881.175232,1530
881.292236,1535
881.40918,1577
881.526123,1509
881.643066,1543
881.760071,1579
881.877014,1527
881.993958,1576
882.11084,1547
882.227783,1577
882.344727,1535
882.46167,1550
882.578613,1579
882.695618,1553
882.812439,1563
882.929382,1547
883.046326,1605
883.163208,1541
883.280151,1553
883.397034,1573
883.513916,1593
883.630798,1584
883.747742,1592
883.864563,1612
883.981506,1582
884.098389,1606
884.21521,1678
884.332153,1677
884.448975,1630
884.565796,1712
884.682678,1755
884.7995,1762
884.916443,1895
885.033264,1908
885.150085,2001
885.266968,2088
885.383789,2179
885.500671,2174
885.617493,2241
885.734314,2174
885.851196,2164
885.967896,2152
886.084717,2194
886.201599,2208
886.318359,2089
886.435181,2078
886.552002,2107
886.668762,2071
886.785645,2040
886.902344,2077
887.019165,1976
887.135925,1941
887.252747,1965
887.369446,1953
887.486267,1882
887.603027,1894
887.719788,1844
887.836548,1810
887.953247,1756
888.070068,1703
888.186829,1689
888.303528,1678
888.420288,1625
888.536987,1570
888.653687,1616
888.770447,1523
888.887146,1553
889.003967,1496
889.120667,1475
889.237305,1508
889.354065,1488
889.470703,1494
889.587463,1431
889.704163,1517
889.820862,1466
889.937561,1474
890.054199,1467
890.170837,1461
890.287598,1471
890.404236,1457
890.520874,1516
890.637634,1455
890.754211,1501
890.87085,1447
890.987549,1486
891.104187,1492
891.220886,1496
891.337463,1465
891.454102,1475
891.57074,1501
891.687378,1500
891.804077,1516
891.920654,1510
892.037231,1490
892.15387,1519
892.270447,1471
892.387085,1484
892.503723,1526
892.6203,1462
892.736877,1473
892.853516,1444
892.970032,1495
893.08667,1474
893.203186,1486
893.319763,1430
893.43634,1494
893.552917,1479
893.669556,1481
893.786011,1468
893.902588,1470
894.019165,1465
894.135681,1487
894.252197,1480
894.368835,1467
894.485291,1501
894.601868,1485
894.718384,1490
894.8349,1490
894.951355,1489
895.067932,1436
895.184448,1423
895.300964,1465
895.417419,1488
895.533936,1454
895.650452,1468
895.766907,1488
895.883423,1468
895.999878,1418
896.116333,1457
896.232849,1476
896.349304,1461
896.465759,1481
896.582214,1435
896.698669,1496
896.815125,1474
896.931641,1439
897.048035,1469
897.164551,1499
897.280884,1471
897.397339,1463
897.513794,1458
897.630249,1479
897.746582,1497
897.863098,1480
897.979431,1493
898.095886,1484
898.212341,1488
898.328674,1481
898.445129,1495
898.561462,1519
898.677795,1503
898.794312,1534
898.910645,1476
899.026978,1484
899.143433,1472
899.259766,1542
899.37616,1528
899.492493,1532
899.608765,1509
899.725159,1487
899.841553,1507
899.957947,1510
900.07428,1490
900.190552,1490
900.306946,1497
900.423157,1537
900.53949,1499
900.655884,1530
900.772156,1495
900.888489,1506
901.004822,1534
901.121033,1515
901.237366,1528
901.353699,1511
901.46991,1543
901.586304,1589
901.702515,1540
901.818787,1618
901.93512,1605
902.051331,1633
902.167603,1690
902.283875,1686
902.400085,1759
902.516418,1785
902.632629,1739
902.74884,1863
902.865112,1859
902.981384,1843
903.097595,1838
903.213867,1861
903.330017,1816
903.446289,1793
903.5625,1798
903.67865,1792
903.794922,1752
903.911072,1698
904.027344,1695
904.143494,1663
904.259705,1655
904.375916,1650
904.492065,1638
904.608215,1583
904.724426,1573
904.840576,1574
904.956726,1577
905.072876,1552
905.189087,1575
905.305176,1539
905.421387,1500
905.537537,1506
905.653687,1530
905.769775,1537
905.885925,1479
906.002014,1506
906.118164,1436
906.234314,1465
906.350403,1483
906.466492,1462
906.582642,1444
906.69873,1474
906.814758,1472
906.930908,1465
907.046936,1438
907.163086,1421
907.279175,1450
907.395264,1455
907.511353,1480
907.62738,1464
907.743408,1425
907.859497,1421
907.975525,1452
908.091553,1419
908.207703,1443
908.32373,1411
908.439758,1457
908.555786,1453
908.671814,1468
908.787842,1432
908.90387,1481
909.019775,1436
909.135864,1481
909.251892,1444
909.367859,1439
909.483826,1489
909.599854,1457
909.715881,1491
909.831848,1444
909.947815,1452
910.063782,1470
910.179749,1454
910.295776,1486
910.411743,1482
910.527649,1468
910.643616,1509
910.759583,1466
910.875488,1443
910.991455,1477
911.107361,1379
911.223267,1454
911.339294,1489
911.4552,1422
911.571106,1426
911.687073,1398
911.802979,1403
911.918823,1458
912.034729,1463
912.150635,1429
912.266602,1460
912.382446,1413
912.498352,1442
912.614197,1369
912.730103,1418
912.846008,1414
792.44574,5182
792.56488,5056
792.68396,4937
792.80304,4751
792.92218,4641
793.041199,4545
793.160339,4351
793.279419,4305
793.398499,4218
793.517578,4068
793.636658,4021
793.755737,3923
793.874817,3835
793.993896,3801
794.112976,3702
794.232056,3624
794.351074,3567
794.470215,3495
794.589233,3399
794.708313,3374
794.827393,3325
794.946411,3259
795.065552,3223
795.18457,3176
795.303589,3141
795.422668,3098
795.541687,3096
795.660767,3031
795.779846,3052
795.898865,2902
796.017883,2955
796.136963,2867
796.255981,2857
796.375061,2825
796.49408,2886
796.613037,2809
796.732117,2729
796.851135,2691
796.970154,2721
797.089233,2586
797.208191,2615
797.327271,2627
797.446228,2604
797.565186,2554
797.684265,2577
797.803223,2509
797.922241,2470
798.04126,2480
798.160278,2449
798.279297,2475
798.398315,2433
798.517273,2454
798.636292,2399
798.75531,2428
798.874268,2440
798.993286,2389
799.112244,2390
799.231323,2354
799.350281,2399
799.469238,2333
799.588257,2319
799.707153,2350
799.826111,2339
799.945129,2294
800.064087,2313
800.183044,2336
800.302063,2242
800.421021,2246
800.539978,2274
800.658936,2309
800.777893,2262
800.896912,2204
801.015747,2229
801.134705,2197
801.253723,2189
801.37262,2127
801.491638,2221
801.610535,2247
801.729492,2186
801.84845,2148
801.967407,2180
802.086243,2173
802.205261,2192
802.324158,2139
802.443115,2128
802.562073,2126
802.680969,2073
802.799927,2129
802.918762,2069
803.037659,2151
803.156677,2076
803.275574,2094
803.39447,2091
803.513428,2108
803.632263,2094
803.751221,2042
803.870117,2038
803.989014,2047
804.107971,2092
804.226746,2120
804.345642,2016
804.4646,2057
804.583496,2052
804.702393,1994
804.821228,2026
804.940125,2000
805.059021,2022
805.177917,2007
805.296814,2009
805.415649,2076
805.534546,2039
805.653442,2002
805.772278,2012
805.891113,2026
806.01001,2016
806.128906,2006
806.247742,2042
806.366577,1980
806.485413,1988
806.604309,1987
806.723145,2055
806.84198,2036
806.960876,1974
807.079712,1953
807.198486,2007
807.317383,1955
807.436218,1951
807.554993,1948
807.673889,1890
807.792725,1948
807.91156,1935
808.030396,1952
808.14917,1972
808.268005,1907
808.386841,1924
808.505676,1925
808.624451,1952
808.743286,1869
808.862122,1902
808.980896,1890
809.099731,1894
809.218506,1871
809.337341,1913
809.456116,1921
809.57489,1937
809.693726,1919
809.8125,1929
809.931274,1902
810.050049,1937
810.168884,1879
810.287659,1896
810.406372,1904
810.525269,1899
810.643982,1899
810.762756,1877
810.881531,1887
811.000305,1921
811.11908,1890
811.237854,1883
811.356567,1887
811.475403,1942
811.594116,1888
811.71283,1965
811.831604,1915
811.950378,1918
812.069153,1897
812.187927,1964
812.30658,1924
812.425415,1966
812.544128,1993
812.662781,1946
812.781616,1922
812.900269,1934
813.019043,1905
813.137756,1956
813.256531,1918
813.375244,1896
813.493896,1849
813.612671,1836
813.731384,1880
813.850037,1888
813.96875,1862
814.087524,1872
814.206238,1844
814.324951,1856
814.443604,1799
814.562256,1846
814.68103,1881
814.799683,1846
814.918335,1821
815.037109,1845
815.155762,1870
815.274475,1846
815.393188,1884
815.511841,1815
815.630554,1872
815.749146,1867
815.867859,1821
815.986572,1826
816.105164,1815
816.223877,1862
816.342529,1827
816.461182,1872
816.579895,1842
816.698486,1856
816.817139,1896
816.935791,1884
817.054504,1898
817.173096,1857
817.291748,1865
817.4104,1877
817.529053,1865
817.647644,1814
817.766235,1788
817.884949,1821
818.00354,1785
818.122192,1787
818.240845,1783
818.359436,1798
818.478088,1781
818.59668,1744
818.715271,1718
818.833923,1752
818.952515,1682
819.071106,1706
819.189758,1737
819.30835,1706
819.426941,1654
819.545532,1731
819.664124,1629
819.782715,1652
819.901306,1693
820.019897,1631
820.138489,1663
820.25708,1682
820.375671,1678
820.494202,1652
820.612732,1751
820.731384,1692
820.849915,1675
820.968506,1676
821.087097,1687
821.205627,1678
821.324158,1657
821.442749,1643
821.561279,1654
821.679871,1658
821.798401,1664
821.916931,1648
822.035461,1649
822.154053,1646
822.272583,1570
822.391174,1609
822.509583,1609
822.628174,1638
822.746704,1592
822.865234,1607
822.983765,1622
823.102295,1581
823.220825,1590
823.339294,1625
823.457825,1597
823.576355,1594
823.694824,1641
823.813354,1626
823.931885,1645
824.050354,1590
824.168884,1616
824.287354,1613
824.405823,1628
824.524353,1632
824.642822,1628
824.761353,1637
824.879822,1623
824.998291,1644
825.116699,1647
825.235291,1597
825.353699,1613
825.472168,1607
825.590637,1585
825.709106,1603
825.827576,1590
825.946045,1577
826.064453,1601
826.182983,1582
826.301392,1567
826.4198,1581
826.53833,1586
826.656738,1528
826.775208,1558
826.893677,1564
827.012024,1569
827.130493,1598
827.248962,1625
827.36731,1631
827.485779,1612
827.604248,1596
827.722595,1597
827.841064,1565
827.959412,1559
828.077942,1574
828.196289,1556
828.314636,1559
828.433105,1550
828.551514,1538
828.669861,1560
828.78833,1544
828.906677,1590
829.025085,1581
829.143433,1583
829.261841,1537
829.38031,1577
829.498657,1543
829.617004,1556
829.735413,1505
829.85376,1535
829.972107,1519
830.090515,1555
830.208862,1548
830.327209,1530
830.445557,1552
830.563904,1524
830.682312,1525
830.800659,1543
830.919006,1591
831.037354,1555
831.155701,1607
831.274048,1596
831.392395,1597
831.51062,1608
831.629028,1582
831.747314,1587
831.865662,1547
831.984009,1579
832.102356,1620
832.220642,1607
832.338928,1601
832.457275,1599
832.575623,1627
832.693909,1611
832.812134,1594
832.930481,1587
833.048828,1589
833.167114,1591
833.2854,1602
833.403687,1586
833.521973,1555
833.640259,1594
833.758545,1558
833.876831,1576
833.995056,1589
834.113281,1596
834.231628,1617
834.349915,1621
834.468201,1633
834.586426,1608
834.704651,1584
834.822998,1625
834.941162,1636
835.059448,1609
835.177673,1628
835.295959,1557
835.414246,1636
835.53241,1586
835.650635,1617
835.768921,1600
835.887146,1576
836.005371,1538
836.123596,1557
836.241821,1532
836.360046,1537
836.478271,1547
836.596497,1549
836.714722,1570
836.832886,1579
836.95105,1508
837.069336,1532
837.1875,1545
837.305725,1572
837.423889,1554
837.542053,1567
837.660339,1567
837.778503,1593
837.896667,1568
838.014832,1563
838.132996,1600
838.25116,1594
838.369385,1576
838.487488,1585
838.605713,1636
838.723877,1632
838.84198,1593
838.960205,1609
839.078308,1598
839.196472,1617
839.314636,1659
839.4328,1683
839.550964,1686
839.669067,1663
839.787231,1673
839.905396,1662
840.023499,1662
840.141602,1727
840.259766,1714
840.377869,1717
840.495972,1747
840.614136,1732
840.732239,1704
840.850342,1727
840.968445,1728
841.086548,1764
841.204651,1793
841.322754,1729
841.440918,1760
841.55896,1791
841.677002,1787
841.795166,1784
841.913208,1797
842.031311,1800
842.149353,1768
842.267456,1781
842.385498,1783
842.503601,1783
842.621643,1740
842.739746,1790
842.857788,1754
842.97583,1751
843.093933,1731
843.211975,1782
843.330017,1777
843.44812,1821
843.566101,1796
843.684204,1791
843.802246,1788
843.920227,1759
844.038269,1789
844.156311,1785
844.274292,1802
844.392395,1789
844.510376,1701
844.628357,1728
844.74646,1721
844.864441,1725
844.982422,1766
845.100403,1755
845.218384,1748
845.336426,1692
845.454468,1732
845.572449,1687
845.69043,1695
845.808411,1735
845.926453,1709
846.044373,1687
846.162354,1707
846.280396,1702
846.398315,1720
846.516296,1743
846.634216,1736
846.752197,1740
846.870178,1700
846.988098,1723
847.106079,1731
847.22406,1726
847.34198,1729
847.4599,1769
847.577881,1731
847.695801,1740
847.813782,1766
847.931641,1772
848.049561,1752
848.167603,1767
848.285461,1704
848.403381,1748
848.521362,1713
848.639221,1708
848.75708,1722
848.875,1720
848.99292,1775
849.110901,1755
849.22876,1761
849.34668,1740
849.464539,1746
849.582458,1807
849.700317,1754
849.818176,1727
849.936096,1706
850.053955,1733
850.171875,1743
850.289673,1727
850.407593,1738
850.525452,1784
850.643311,1761
850.761169,1709
850.878967,1746
850.996887,1739
851.114746,1713
851.232544,1735
851.350403,1714
851.468262,1722
851.58606,1696
851.703979,1716
851.821777,1749
851.939636,1693
852.057434,1724
852.175232,1737
852.293091,1755
852.410889,1780
852.528687,1873
852.646545,1916
852.764343,1926
852.88208,1917
852.999939,1824
853.117676,1818
853.235535,1738
853.353271,1698
853.471069,1788
853.588928,1747
853.706604,1727
853.824402,1766
853.9422,1724
854.059998,1665
854.177734,1747
854.295532,1775
854.413269,1752
854.531006,1786
854.648804,1728
854.766541,1784
854.884277,1741
855.002014,1746
855.119751,1734
855.237549,1767
855.355225,1723
855.473022,1707
855.590698,1743
855.708435,1801
855.826172,1741
855.943848,1748
856.061646,1741
856.179321,1730
856.296997,1792
856.414795,1817
856.53241,1813
856.650085,1824
856.767822,1869
856.885559,1832
857.003174,1864
857.120911,1860
857.238586,1806
857.356201,1857
857.473938,1810
857.591614,1789
857.709351,1857
857.826965,1821
857.944641,1813
858.062317,1855
858.179993,1782
858.297668,1841
858.415283,1865
858.532959,1828
858.650574,1831
858.768188,1840
858.885803,1817
859.003479,1830
859.121094,1765
859.23877,1780
859.356384,1798
859.473999,1788
859.591675,1713
859.709229,1774
859.826843,1752
859.944458,1707
860.062012,1691
860.179626,1742
860.297302,1709
860.414856,1682
860.532471,1704
860.650024,1697
860.767639,1720
860.885193,1693
861.002808,1712
861.120361,1750
861.237976,1721
861.35553,1750
861.473022,1694
861.590698,1714
861.708191,1680
861.825745,1705
861.943298,1730
862.060852,1666
862.178406,1651
862.295959,1615
862.413513,1585
862.531006,1633
862.64856,1562
862.766113,1654
862.883667,1599
863.00116,1610
863.118713,1608
863.236206,1597
863.353699,1623
863.471252,1635
863.588745,1650
863.706177,1721
863.82373,1644
863.941162,1721
864.058716,1650
864.176208,1675
864.29364,1646
864.411194,1639
864.528687,1606
864.646118,1633
864.763611,1612
864.881042,1583
864.998535,1648
865.116028,1621
865.233459,1616
865.350891,1640
865.468384,1614
865.585754,1583
865.703308,1605
865.820679,1624
865.938171,1619
866.055542,1638
866.173035,1625
866.290466,1638
866.407837,1591
866.52533,1576
866.6427,1613
866.760071,1597
866.877563,1626
866.994934,1640
867.112305,1671
867.229736,1594
867.347107,1673
867.464539,1675
867.58197,1644
867.699341,1683
867.81665,1724
867.934082,1658
868.051453,1673
868.168823,1659
868.286194,1683
868.403564,1643
868.520935,1657
868.638306,1693
868.755676,1624
868.872986,1654
868.990295,1687
869.107727,1689
869.225037,1702
869.342346,1645
869.459717,1740
869.577026,1724
869.694336,1722
869.811707,1712
869.929016,1781
870.046326,1760
870.163635,1785
870.280945,1772
870.398254,1783
870.515564,1821
870.632812,1808
870.750183,1828
870.867432,1826
870.984741,1877
871.102051,1858
871.219299,1846
871.336609,1895
871.453918,1897
871.571106,1837
871.688416,1930
871.805664,1876
871.922852,1884
872.040222,1917
872.157471,1889
872.274719,1927
872.391968,1833
872.509155,1829
872.626465,1918
872.743652,1886
872.860962,1853
872.978149,1847
873.095337,1826
873.212646,1870
873.329834,1790
873.44696,1849
873.564209,1803
873.681396,1795
873.798645,1788
873.915894,1771
874.03302,1789
874.150208,1844
874.267456,1836
874.384583,1856
874.501831,1892
874.618958,1927
874.736145,1956
874.853333,1906
874.970459,1958
875.087646,1924
875.204834,1873
875.32196,1897
875.439148,1901
875.556274,1870
875.673401,1858
875.790527,1853
875.907715,1811
876.024841,1778
876.141968,1792
876.259094,1783
876.376282,1701
876.493347,1756
876.610474,1760
876.7276,1740
876.844727,1764
876.961853,1752
877.078918,1746
877.195984,1695
877.313171,1724
877.430237,1768
877.547302,1740
877.664368,1733
877.781433,1759
877.898499,1752
878.015625,1697
878.13269,1656
878.249695,1724
878.366821,1682
878.483887,1691
878.600952,1677
878.717957,1665
878.834961,1673
878.952087,1652
879.069092,1676
879.186157,1664
879.303162,1654
879.420227,1601
879.537231,1592
879.654236,1615
879.77124,1615
879.888306,1634
880.005249,1623
880.122314,1601
880.239319,1584
880.356323,1610
880.473328,1556
880.590271,1586
880.707275,1564
880.824341,1598
880.941284,1539
881.058228,1581
881.175232,1589
881.292236,1612
881.40918,1553
881.526123,1566
881.643066,1576
881.760071,1519
881.877014,1591
881.993958,1612
882.11084,1599
882.227783,1576
882.344727,1601
882.46167,1606
882.578613,1609
882.695618,1594
882.812439,1573
882.929382,1625
883.046326,1601
883.163208,1541
883.280151,1617
883.397034,1600
883.513916,1580
883.630798,1642
883.747742,1633
883.864563,1651
883.981506,1662
884.098389,1672
884.21521,1642
884.332153,1712
884.448975,1693
884.565796,1781
884.682678,1781
884.7995,1860
884.916443,1873
885.033264,2033
885.150085,2031
885.266968,2169
885.383789,2121
885.500671,2226
885.617493,2249
885.734314,2178
885.851196,2181
885.967896,2204
886.084717,2197
886.201599,2169
886.318359,2185
886.435181,2112
886.552002,2128
886.668762,2125
886.785645,2083
886.902344,2066
887.019165,2067
887.135925,2013
887.252747,2041
887.369446,1914
887.486267,1901
887.603027,1946
887.719788,1832
887.836548,1793
887.953247,1809
888.070068,1691
888.186829,1689
888.303528,1700
888.420288,1664
888.536987,1677
888.653687,1604
888.770447,1583
888.887146,1546
889.003967,1580
889.120667,1511
889.237305,1529
889.354065,1529
889.470703,1512
889.587463,1497
889.704163,1507
889.820862,1488
889.937561,1472
890.054199,1482
890.170837,1497
890.287598,1505
890.404236,1507
890.520874,1479
890.637634,1503
890.754211,1504
890.87085,1487
890.987549,1475
891.104187,1513
891.220886,1526
891.337463,1566
891.454102,1562
891.57074,1557
891.687378,1528
891.804077,1528
891.920654,1550
892.037231,1554
892.15387,1554
892.270447,1562
892.387085,1570
892.503723,1559
892.6203,1493
892.736877,1509
892.853516,1507
892.970032,1529
893.08667,1490
893.203186,1502
893.319763,1446
893.43634,1480
893.552917,1496
893.669556,1488
893.786011,1488
893.902588,1509
894.019165,1507
894.135681,1465
894.252197,1544
894.368835,1500
894.485291,1518
894.601868,1497
894.718384,1519
894.8349,1488
894.951355,1475
895.067932,1500
895.184448,1486
895.300964,1530
895.417419,1486
895.533936,1470
895.650452,1480
895.766907,1493
895.883423,1462
895.999878,1470
896.116333,1510
896.232849,1482
896.349304,1478
896.465759,1514
896.582214,1449
896.698669,1488
896.815125,1475
896.931641,1501
897.048035,1496
897.164551,1501
897.280884,1489
897.397339,1481
897.513794,1460
897.630249,1501
897.746582,1487
897.863098,1513
897.979431,1470
898.095886,1508
898.212341,1521
898.328674,1528
898.445129,1517
898.561462,1539
898.677795,1546
898.794312,1540
898.910645,1526
899.026978,1509
899.143433,1493
899.259766,1530
899.37616,1488
899.492493,1531
899.608765,1551
899.725159,1590
899.841553,1558
899.957947,1523
900.07428,1529
900.190552,1551
900.306946,1556
900.423157,1540
900.53949,1542
900.655884,1531
900.772156,1545
900.888489,1520
901.004822,1567
901.121033,1631
901.237366,1536
901.353699,1607
901.46991,1550
901.586304,1609
901.702515,1567
901.818787,1622
901.93512,1632
902.051331,1710
902.167603,1731
902.283875,1742
902.400085,1803
902.516418,1795
902.632629,1850
902.74884,1893
902.865112,1853
902.981384,1871
903.097595,1839
903.213867,1916
903.330017,1825
903.446289,1875
903.5625,1751
903.67865,1795
903.794922,1775
903.911072,1759
904.027344,1737
904.143494,1728
904.259705,1688
904.375916,1689
904.492065,1615
904.608215,1646
904.724426,1597
904.840576,1596
904.956726,1528
905.072876,1554
905.189087,1546
905.305176,1506
905.421387,1567
905.537537,1588
905.653687,1509
905.769775,1520
905.885925,1536
906.002014,1528
906.118164,1469
906.234314,1527
906.350403,1508
906.466492,1544
906.582642,1449
906.69873,1500
906.814758,1458
906.930908,1528
907.046936,1467
907.163086,1475
907.279175,1471
907.395264,1500
907.511353,1522
907.62738,1440
907.743408,1482
907.859497,1511
907.975525,1482
908.091553,1480
908.207703,1535
908.32373,1438
908.439758,1509
908.555786,1442
908.671814,1499
908.787842,1466
908.90387,1510
909.019775,1495
909.135864,1467
909.251892,1454
909.367859,1512
909.483826,1513
909.599854,1496
909.715881,1505
909.831848,1498
909.947815,1514
910.063782,1492
910.179749,1535
910.295776,1523
910.411743,1499
910.527649,1483
910.643616,1484
910.759583,1467
910.875488,1514
910.991455,1491
911.107361,1496
911.223267,1466
911.339294,1456
911.4552,1474
911.571106,1462
911.687073,1473
911.802979,1486
911.918823,1453
912.034729,1441
912.150635,1439
912.266602,1442
912.382446,1489
912.498352,1413
912.614197,1467
912.730103,1449
912.846008,1446
792.44574,5217
792.56488,5082
792.68396,4934
792.80304,4737
792.92218,4552
793.041199,4521
793.160339,4383
793.279419,4325
793.398499,4225
793.517578,4091
793.636658,4020
793.755737,3960
793.874817,3834
793.993896,3775
794.112976,3673
794.232056,3610
794.351074,3513
794.470215,3477
794.589233,3444
794.708313,3327
794.827393,3257
794.946411,3336
795.065552,3260
795.18457,3203
795.303589,3196
795.422668,3099
795.541687,3086
795.660767,3115
795.779846,3007
795.898865,2967
796.017883,2919
796.136963,2851
796.255981,2861
796.375061,2833
796.49408,2799
796.613037,2783
796.732117,2772
796.851135,2701
796.970154,2696
797.089233,2636
797.208191,2604
797.327271,2590
797.446228,2582
797.565186,2505
797.684265,2565
797.803223,2527
797.922241,2520
798.04126,2528
798.160278,2468
798.279297,2507
798.398315,2442
798.517273,2434
798.636292,2472
798.75531,2411
798.874268,2443
798.993286,2415
799.112244,2334
799.231323,2397
799.350281,2417
799.469238,2358
799.588257,2366
799.707153,2349
799.826111,2324
799.945129,2349
800.064087,2361
800.183044,2327
800.302063,2281
800.421021,2290
800.539978,2315
800.658936,2254
800.777893,2252
800.896912,2218
801.015747,2224
801.134705,2211
801.253723,2228
801.37262,2208
801.491638,2128
801.610535,2214
801.729492,2170
801.84845,2153
801.967407,2166
802.086243,2190
802.205261,2141
802.324158,2200
802.443115,2131
802.562073,2148
802.680969,2110
802.799927,2129
802.918762,2085
803.037659,2118
803.156677,2078
803.275574,2112
803.39447,2092
803.513428,2055
803.632263,2135
803.751221,2097
803.870117,2040
803.989014,2082
804.107971,2028
804.226746,2073
804.345642,2033
804.4646,2019
804.583496,2064
804.702393,2031
804.821228,2027
804.940125,2063
805.059021,2027
805.177917,2027
805.296814,1978
805.415649,1990
805.534546,1953
805.653442,1988
805.772278,2053
805.891113,1982
806.01001,2037
806.128906,2004
806.247742,1992
806.366577,2031
806.485413,1981
806.604309,1992
806.723145,1984
806.84198,1957
806.960876,1953
807.079712,1960
807.198486,1975
807.317383,1947
807.436218,1933
807.554993,1920
807.673889,1896
807.792725,1929
807.91156,1948
808.030396,1933
808.14917,1907
808.268005,1940
808.386841,1824
808.505676,1908
808.624451,1927
808.743286,1900
808.862122,1853
808.980896,1889
809.099731,1910
809.218506,1922
809.337341,1898
809.456116,1956
809.57489,1909
809.693726,1901
809.8125,1959
809.931274,1922
810.050049,1910
810.168884,1907
810.287659,1931
810.406372,1917
810.525269,1906
810.643982,1942
810.762756,1869
810.881531,1919
811.000305,1878
811.11908,1907
811.237854,1909
811.356567,1902
811.475403,1962
811.594116,1927
811.71283,1860
811.831604,1894
811.950378,1924
812.069153,1913
812.187927,1932
812.30658,1888
812.425415,1909
812.544128,1917
812.662781,1980
812.781616,1928
812.900269,1925
813.019043,1948
813.137756,1909
813.256531,1956
813.375244,1869
813.493896,1919
813.612671,1924
813.731384,1846
813.850037,1840
813.96875,1851
814.087524,1866
814.206238,1858
814.324951,1827
814.443604,1881
814.562256,1912
814.68103,1827
814.799683,1881
814.918335,1862
815.037109,1862
815.155762,1883
815.274475,1890
815.393188,1906
815.511841,1854
815.630554,1827
815.749146,1802
815.867859,1816
815.986572,1882
816.105164,1830
816.223877,1846
816.342529,1835
816.461182,1854
816.579895,1857
816.698486,1864
816.817139,1904
816.935791,1888
817.054504,1901
817.173096,1912
817.291748,1878
817.4104,1825
817.529053,1854
817.647644,1829
817.766235,1805
817.884949,1838
818.00354,1830
818.122192,1851
818.240845,1761
818.359436,1773
818.478088,1798
818.59668,1732
818.715271,1797
818.833923,1734
818.952515,1734
819.071106,1736
819.189758,1740
819.30835,1682
819.426941,1729
819.545532,1701
819.664124,1710
819.782715,1682
819.901306,1650
820.019897,1707
820.138489,1678
820.25708,1706
820.375671,1679
820.494202,1667
820.612732,1738
820.731384,1741
820.849915,1676
820.968506,1676
821.087097,1671
821.205627,1676
821.324158,1695
821.442749,1621
821.561279,1641
821.679871,1631
821.798401,1639
821.916931,1656
822.035461,1640
822.154053,1678
822.272583,1634
822.391174,1619
822.509583,1657
822.628174,1618
822.746704,1654
822.865234,1587
822.983765,1631
823.102295,1635
823.220825,1594
823.339294,1607
823.457825,1562
823.576355,1535
823.694824,1574
823.813354,1674
823.931885,1619
824.050354,1601
824.168884,1641
824.287354,1584
824.405823,1656
824.524353,1658
824.642822,1643
824.761353,1634
824.879822,1603
824.998291,1615
825.116699,1597
825.235291,1602
825.353699,1632
825.472168,1601
825.590637,1578
825.709106,1590
825.827576,1609
825.946045,1589
826.064453,1619
826.182983,1592
826.301392,1559
826.4198,1571
826.53833,1523
826.656738,1555
826.775208,1547
826.893677,1555
827.012024,1570
827.130493,1535
827.248962,1606
827.36731,1575
827.485779,1565
827.604248,1604
827.722595,1608
827.841064,1551
827.959412,1546
828.077942,1556
828.196289,1554
828.314636,1598
828.433105,1602
828.551514,1565
828.669861,1597
828.78833,1550
828.906677,1535
829.025085,1577
829.143433,1540
829.261841,1566
829.38031,1523
829.498657,1544
829.617004,1539
829.735413,1559
829.85376,1525
829.972107,1529
830.090515,1531
830.208862,1532
830.327209,1556
830.445557,1540
830.563904,1555
830.682312,1567
830.800659,1551
830.919006,1630
831.037354,1601
831.155701,1616
831.274048,1631
831.392395,1650
831.51062,1626
831.629028,1567
831.747314,1620
831.865662,1568
831.984009,1591
832.102356,1583
832.220642,1601
832.338928,1576
832.457275,1649
832.575623,1635
832.693909,1608
832.812134,1628
832.930481,1638
833.048828,1616
833.167114,1554
833.2854,1551
833.403687,1556
833.521973,1597
833.640259,1659
833.758545,1546
833.876831,1581
833.995056,1599
834.113281,1562
834.231628,1601
834.349915,1629
834.468201,1636
834.586426,1598
834.704651,1591
834.822998,1573
834.941162,1589
835.059448,1546
835.177673,1578
835.295959,1598
835.414246,1623
835.53241,1600
835.650635,1558
835.768921,1576
835.887146,1617
836.005371,1559
836.123596,1548
836.241821,1546
836.360046,1608
836.478271,1558
836.596497,1530
836.714722,1532
836.832886,1493
836.95105,1515
837.069336,1518
837.1875,1566
837.305725,1571
837.423889,1556
837.542053,1548
837.660339,1549
837.778503,1531
837.896667,1548
838.014832,1586
838.132996,1564
838.25116,1569
838.369385,1602
838.487488,1622
838.605713,1578
838.723877,1614
838.84198,1605
838.960205,1588
839.078308,1647
839.196472,1583
839.314636,1627
839.4328,1663
839.550964,1688
839.669067,1665
839.787231,1664
839.905396,1714
840.023499,1705
840.141602,1728
840.259766,1782
840.377869,1768
840.495972,1733
840.614136,1735
840.732239,1722
840.850342,1747
840.968445,1715
841.086548,1707
841.204651,1732
841.322754,1800
841.440918,1781
841.55896,1771
841.677002,1797
841.795166,1815
841.913208,1827
842.031311,1825
842.149353,1790
842.267456,1771
842.385498,1807
842.503601,1758
842.621643,1771
842.739746,1822
842.857788,1771
842.97583,1782
843.093933,1766
843.211975,1788
843.330017,1761
843.44812,1788
843.566101,1744
843.684204,1765
843.802246,1771
843.920227,1784
844.038269,1735
844.156311,1753
844.274292,1770
844.392395,1767
844.510376,1719
844.628357,1700
844.74646,1728
844.864441,1690
844.982422,1722
845.100403,1687
845.218384,1733
845.336426,1717
845.454468,1746
845.572449,1687
845.69043,1685
845.808411,1703
845.926453,1728
846.044373,1694
846.162354,1701
846.280396,1713
846.398315,1718
846.516296,1786
846.634216,1720
846.752197,1712
846.870178,1768
846.988098,1746
847.106079,1785
847.22406,1753
847.34198,1764
847.4599,1755
847.577881,1729
847.695801,1744
847.813782,1716
847.931641,1771
848.049561,1758
848.167603,1709
848.285461,1755
848.403381,1729
848.521362,1734
848.639221,1774
848.75708,1771
848.875,1765
848.99292,1725
849.110901,1753
849.22876,1790
849.34668,1771
849.464539,1713
849.582458,1778
849.700317,1742
849.818176,1717
849.936096,1759
850.053955,1770
850.171875,1729
850.289673,1742
850.407593,1777
850.525452,1724
850.643311,1694
850.761169,1727
850.878967,1695
850.996887,1718
851.114746,1677
851.232544,1706
851.350403,1748
851.468262,1677
851.58606,1752
851.703979,1704
851.821777,1697
851.939636,1711
852.057434,1696
852.175232,1790
852.293091,1751
852.410889,1840
852.528687,1879
852.646545,1918
852.764343,1885
852.88208,1919
852.999939,1812
853.117676,1841
853.235535,1775
853.353271,1777
853.471069,1717
853.588928,1716
853.706604,1754
853.824402,1737
853.9422,1649
854.059998,1736
854.177734,1702
854.295532,1767
854.413269,1795
854.531006,1777
854.648804,1790
854.766541,1812
854.884277,1777
855.002014,1816
855.119751,1762
855.237549,1743
855.355225,1787
855.473022,1737
855.590698,1729
855.708435,1745
855.826172,1750
855.943848,1817
856.061646,1759
856.179321,1764
856.296997,1745
856.414795,1766
856.53241,1771
856.650085,1805
856.767822,1797
856.885559,1810
857.003174,1869
857.120911,1849
857.238586,1908
857.356201,1883
857.473938,1852
857.591614,1831
857.709351,1832
857.826965,1901
857.944641,1842
858.062317,1817
858.179993,1840
858.297668,1823
858.415283,1872
858.532959,1858
858.650574,1859
858.768188,1823
858.885803,1798
859.003479,1786
859.121094,1835
859.23877,1786
859.356384,1761
859.473999,1821
859.591675,1821
859.709229,1761
859.826843,1746
859.944458,1723
860.062012,1760
860.179626,1743
860.297302,1672
860.414856,1684
860.532471,1710
860.650024,1727
860.767639,1718
860.885193,1721
861.002808,1653
861.120361,1718
861.237976,1725
861.35553,1732
861.473022,1686
861.590698,1725
861.708191,1698
861.825745,1688
861.943298,1686
862.060852,1705
862.178406,1663
862.295959,1601
862.413513,1608
862.531006,1600
862.64856,1646
862.766113,1605
862.883667,1602
863.00116,1601
863.118713,1581
863.236206,1603
863.353699,1601
863.471252,1647
863.588745,1684
863.706177,1625
863.82373,1663
863.941162,1678
864.058716,1650
864.176208,1612
864.29364,1648
864.411194,1679
864.528687,1646
864.646118,1633
864.763611,1586
864.881042,1580
864.998535,1613
865.116028,1643
865.233459,1627
865.350891,1584
865.468384,1599
865.585754,1627
865.703308,1652
865.820679,1625
865.938171,1641
866.055542,1648
866.173035,1610
866.290466,1596
866.407837,1589
866.52533,1621
866.6427,1634
866.760071,1569
866.877563,1637
866.994934,1574
867.112305,1570
867.229736,1638
867.347107,1662
867.464539,1639
867.58197,1616
867.699341,1676
867.81665,1666
867.934082,1690
868.051453,1667
868.168823,1673
868.286194,1645
868.403564,1697
868.520935,1627
868.638306,1662
868.755676,1686
868.872986,1657
868.990295,1731
869.107727,1758
869.225037,1658
869.342346,1706
869.459717,1745
869.577026,1677
869.694336,1740
869.811707,1692
869.929016,1753
870.046326,1756
870.163635,1761
870.280945,1813
870.398254,1777
870.515564,1739
870.632812,1801
870.750183,1810
870.867432,1868
870.984741,1837
871.102051,1820
871.219299,1859
871.336609,1899
871.453918,1794
871.571106,1898
871.688416,1852
871.805664,1890
871.922852,1910
872.040222,1875
872.157471,1889
872.274719,1899
872.391968,1872
872.509155,1863
872.626465,1857
872.743652,1871
872.860962,1865
872.978149,1856
873.095337,1830
873.212646,1886
873.329834,1769
873.44696,1841
873.564209,1787
873.681396,1799
873.798645,1836
873.915894,1822
874.03302,1812
874.150208,1842
874.267456,1804
874.384583,1878
874.501831,1917
874.618958,1896
874.736145,1915
874.853333,1923
874.970459,1952
875.087646,1919
875.204834,1925
875.32196,1910
875.439148,1866
875.556274,1835
875.673401,1822
875.790527,1831
875.907715,1824
876.024841,1764
876.141968,1720
876.259094,1819
876.376282,1781
876.493347,1743
876.610474,1767
876.7276,1725
876.844727,1697
876.961853,1745
877.078918,1702
877.195984,1697
877.313171,1744
877.430237,1767
877.547302,1710
877.664368,1763
877.781433,1754
877.898499,1735
878.015625,1725
878.13269,1745
878.249695,1691
878.366821,1690
878.483887,1698
878.600952,1667
878.717957,1729
878.834961,1674
878.952087,1674
879.069092,1683
879.186157,1643
879.303162,1696
879.420227,1645
879.537231,1618
879.654236,1659
879.77124,1639
879.888306,1616
880.005249,1631
880.122314,1583
880.239319,1581
880.356323,1580
880.473328,1555
880.590271,1603
880.707275,1572
880.824341,1574
880.941284,1610
881.058228,1557
881.175232,1556
881.292236,1591
881.40918,1552
881.526123,1565
881.643066,1586
881.760071,1566
881.877014,1549
881.993958,1565
882.11084,1556
882.227783,1584
882.344727,1590
882.46167,1609
882.578613,1608
882.695618,1519
882.812439,1560
882.929382,1537
883.046326,1563
883.163208,1575
883.280151,1612
883.397034,1557
883.513916,1587
883.630798,1658
883.747742,1637
883.864563,1596
883.981506,1649
884.098389,1652
884.21521,1645
884.332153,1681
884.448975,1692
884.565796,1689
884.682678,1777
884.7995,1838
884.916443,1915
885.033264,2027
885.150085,2032
885.266968,2120
885.383789,2170
885.500671,2189
885.617493,2231
885.734314,2187
885.851196,2179
885.967896,2157
886.084717,2184
886.201599,2173
886.318359,2132
886.435181,2089
886.552002,2073
886.668762,2074
886.785645,2066
886.902344,2021
887.019165,2008
887.135925,2034
887.252747,1941
887.369446,1933
887.486267,1902
887.603027,1897
887.719788,1824
887.836548,1815
887.953247,1771
888.070068,1743
888.186829,1683
888.303528,1685
888.420288,1669
888.536987,1648
888.653687,1621
888.770447,1593
888.887146,1599
889.003967,1508
889.120667,1547
889.237305,1547
889.354065,1560
889.470703,1528
889.587463,1497
889.704163,1495
889.820862,1498
889.937561,1484
890.054199,1474
890.170837,1448
890.287598,1450
890.404236,1517
890.520874,1497
890.637634,1510
890.754211,1486
890.87085,1504
890.987549,1530
891.104187,1500
891.220886,1526
891.337463,1516
891.454102,1548
891.57074,1521
891.687378,1559
891.804077,1500
891.920654,1508
892.037231,1508
892.15387,1566
892.270447,1529
892.387085,1545
892.503723,1593
892.6203,1531
892.736877,1498
892.853516,1534
892.970032,1505
893.08667,1494
893.203186,1501
893.319763,1484
893.43634,1477
893.552917,1520
893.669556,1525
893.786011,1500
893.902588,1494
894.019165,1488
894.135681,1499
894.252197,1501
894.368835,1548
894.485291,1520
894.601868,1522
894.718384,1512
894.8349,1516
894.951355,1492
895.067932,1477
895.184448,1476
895.300964,1490
895.417419,1464
895.533936,1523
895.650452,1440
895.766907,1513
895.883423,1471
895.999878,1491
896.116333,1485
896.232849,1484
896.349304,1459
896.465759,1464
896.582214,1467
896.698669,1453
896.815125,1517
896.931641,1503
897.048035,1505
897.164551,1508
897.280884,1487
897.397339,1454
897.513794,1531
897.630249,1497
897.746582,1493
897.863098,1505
897.979431,1517
898.095886,1524
898.212341,1532
898.328674,1507
898.445129,1529
898.561462,1486
898.677795,1540
898.794312,1559
898.910645,1563
899.026978,1507
899.143433,1490
899.259766,1519
899.37616,1554
899.492493,1543
899.608765,1528
899.725159,1531
899.841553,1520
899.957947,1559
900.07428,1554
900.190552,1559
900.306946,1532
900.423157,1542
900.53949,1515
900.655884,1571
900.772156,1545
900.888489,1539
901.004822,1565
901.121033,1525
901.237366,1556
901.353699,1528
901.46991,1579
901.586304,1585
901.702515,1617
901.818787,1671
901.93512,1626
902.051331,1648
902.167603,1714
902.283875,1745
902.400085,1754
902.516418,1836
902.632629,1875
902.74884,1850
902.865112,1947
902.981384,1839
903.097595,1894
903.213867,1810
903.330017,1860
903.446289,1840
903.5625,1789
903.67865,1768
903.794922,1765
903.911072,1777
904.027344,1774
904.143494,1684
904.259705,1739
904.375916,1649
904.492065,1661
904.608215,1666
904.724426,1632
904.840576,1643
904.956726,1597
905.072876,1595
905.189087,1557
905.305176,1541
905.421387,1547
905.537537,1544
905.653687,1531
905.769775,1525
905.885925,1528
906.002014,1521
906.118164,1524
906.234314,1471
906.350403,1522
906.466492,1485
906.582642,1478
906.69873,1484
906.814758,1499
906.930908,1518
907.046936,1491
907.163086,1426
907.279175,1479
907.395264,1414
907.511353,1488
907.62738,1484
907.743408,1457
907.859497,1501
907.975525,1471
908.091553,1490
908.207703,1484
908.32373,1475
908.439758,1500
908.555786,1453
908.671814,1472
908.787842,1497
908.90387,1465
909.019775,1499
909.135864,1450
909.251892,1509
909.367859,1531
909.483826,1519
909.599854,1548
909.715881,1529
909.831848,1541
909.947815,1529
910.063782,1489
910.179749,1502
910.295776,1488
910.411743,1495
910.527649,1465
910.643616,1476
910.759583,1501
910.875488,1511
910.991455,1485
911.107361,1493
911.223267,1485
911.339294,1474
911.4552,1449
911.571106,1442
911.687073,1495
911.802979,1480
911.918823,1446
912.034729,1492
912.150635,1474
912.266602,1478
912.382446,1470
912.498352,1443
912.614197,1486
912.730103,1481
912.846008,1477
