792.44574,4928
792.56488,4881
792.68396,4647
792.80304,4570
792.92218,4399
793.041199,4265
793.160339,4239
793.279419,4060
793.398499,4017
793.517578,3921
793.636658,3839
793.755737,3813
793.874817,3683
793.993896,3591
794.112976,3556
794.232056,3476
794.351074,3427
794.470215,3322
794.589233,3269
794.708313,3247
794.827393,3269
794.946411,3142
795.065552,3184
795.18457,3046
795.303589,3033
795.422668,3013
795.541687,2984
795.660767,2984
795.779846,2878
795.898865,2882
796.017883,2841
796.136963,2739
796.255981,2707
796.375061,2767
796.49408,2729
796.613037,2724
796.732117,2650
796.851135,2616
796.970154,2596
797.089233,2651
797.208191,2502
797.327271,2596
797.446228,2494
797.565186,2511
797.684265,2454
797.803223,2418
797.922241,2463
798.04126,2444
798.160278,2437
798.279297,2461
798.398315,2398
798.517273,2367
798.636292,2329
798.75531,2381
798.874268,2375
798.993286,2346
799.112244,2371
799.231323,2328
799.350281,2322
799.469238,2335
799.588257,2337
799.707153,2381
799.826111,2262
799.945129,2199
800.064087,2215
800.183044,2250
800.302063,2211
800.421021,2256
800.539978,2240
800.658936,2191
800.777893,2281
800.896912,2192
801.015747,2238
801.134705,2091
801.253723,2152
801.37262,2141
801.491638,2127
801.610535,2127
801.729492,2200
801.84845,2119
801.967407,2126
802.086243,2143
802.205261,2159
802.324158,2125
802.443115,2128
802.562073,2053
802.680969,2066
802.799927,2072
802.918762,2015
803.037659,2010
803.156677,2017
803.275574,2039
803.39447,2035
803.513428,2000
803.632263,2008
803.751221,1987
803.870117,1983
803.989014,2043
804.107971,1973
804.226746,1962
804.345642,1991
804.4646,2001
804.583496,1990
804.702393,2017
804.821228,1978
804.940125,1986
805.059021,1923
805.177917,1919
805.296814,1971
805.415649,2017
805.534546,1974
805.653442,1927
805.772278,1958
805.891113,1937
806.01001,1924
806.128906,1960
806.247742,1894
806.366577,1955
806.485413,1984
806.604309,1930
806.723145,1927
806.84198,1918
806.960876,1901
807.079712,1931
807.198486,1873
807.317383,1909
807.436218,1938
807.554993,1909
807.673889,1873
807.792725,1878
807.91156,1883
808.030396,1912
808.14917,1856
808.268005,1896
808.386841,1844
808.505676,1851
808.624451,1860
808.743286,1850
808.862122,1883
808.980896,1880
809.099731,1869
809.218506,1851
809.337341,1867
809.456116,1878
809.57489,1860
809.693726,1886
809.8125,1850
809.931274,1852
810.050049,1892
810.168884,1859
810.287659,1852
810.406372,1829
810.525269,1904
810.643982,1855
810.762756,1862
810.881531,1804
811.000305,1883
811.11908,1844
811.237854,1856
811.356567,1878
811.475403,1866
811.594116,1861
811.71283,1883
811.831604,1876
811.950378,1861
812.069153,1915
812.187927,1885
812.30658,1884
812.425415,1953
812.544128,1888
812.662781,1895
812.781616,1911
812.900269,1943
813.019043,1929
813.137756,1857
813.256531,1898
813.375244,1868
813.493896,1895
813.612671,1877
813.731384,1845
813.850037,1818
813.96875,1838
814.087524,1800
814.206238,1855
814.324951,1832
814.443604,1832
814.562256,1815
814.68103,1865
814.799683,1826
814.918335,1868
815.037109,1794
815.155762,1790
815.274475,1881
815.393188,1815
815.511841,1801
815.630554,1822
815.749146,1774
815.867859,1823
815.986572,1793
816.105164,1790
816.223877,1837
816.342529,1830
816.461182,1848
816.579895,1796
816.698486,1815
816.817139,1884
816.935791,1855
817.054504,1856
817.173096,1822
817.291748,1841
817.4104,1828
817.529053,1849
817.647644,1844
817.766235,1803
817.884949,1781
818.00354,1779
818.122192,1807
818.240845,1739
818.359436,1740
818.478088,1792
818.59668,1759
818.715271,1734
818.833923,1698
818.952515,1695
819.071106,1697
819.189758,1706
819.30835,1648
819.426941,1612
819.545532,1711
819.664124,1685
819.782715,1695
819.901306,1698
820.019897,1650
820.138489,1694
820.25708,1671
820.375671,1669
820.494202,1594
820.612732,1680
820.731384,1689
820.849915,1671
820.968506,1667
821.087097,1649
821.205627,1652
821.324158,1615
821.442749,1685
821.561279,1638
821.679871,1654
821.798401,1612
821.916931,1601
822.035461,1615
822.154053,1666
822.272583,1625
822.391174,1579
822.509583,1621
822.628174,1646
822.746704,1570
822.865234,1573
822.983765,1560
823.102295,1555
823.220825,1575
823.339294,1602
823.457825,1609
823.576355,1656
823.694824,1593
823.813354,1592
823.931885,1581
824.050354,1646
824.168884,1640
824.287354,1632
824.405823,1580
824.524353,1611
824.642822,1655
824.761353,1602
824.879822,1600
824.998291,1675
825.116699,1603
825.235291,1589
825.353699,1593
825.472168,1533
825.590637,1552
825.709106,1608
825.827576,1586
825.946045,1563
826.064453,1579
826.182983,1597
826.301392,1579
826.4198,1580
826.53833,1568
826.656738,1574
826.775208,1571
826.893677,1567
827.012024,1520
827.130493,1586
827.248962,1569
827.36731,1597
827.485779,1616
827.604248,1594
827.722595,1569
827.841064,1584
827.959412,1564
828.077942,1522
828.196289,1508
828.314636,1606
828.433105,1531
828.551514,1518
828.669861,1519
828.78833,1530
828.906677,1547
829.025085,1502
829.143433,1617
829.261841,1556
829.38031,1576
829.498657,1491
829.617004,1556
829.735413,1585
829.85376,1517
829.972107,1528
830.090515,1501
830.208862,1535
830.327209,1529
830.445557,1535
830.563904,1534
830.682312,1531
830.800659,1484
830.919006,1540
831.037354,1559
831.155701,1562
831.274048,1607
831.392395,1564
831.51062,1598
831.629028,1542
831.747314,1565
831.865662,1567
831.984009,1611
832.102356,1547
832.220642,1547
832.338928,1576
832.457275,1626
832.575623,1626
832.693909,1563
832.812134,1608
832.930481,1547
833.048828,1517
833.167114,1546
833.2854,1570
833.403687,1527
833.521973,1514
833.640259,1517
833.758545,1576
833.876831,1523
833.995056,1579
834.113281,1532
834.231628,1614
834.349915,1559
834.468201,1603
834.586426,1591
834.704651,1567
834.822998,1540
834.941162,1598
835.059448,1583
835.177673,1574
835.295959,1573
835.414246,1570
835.53241,1592
835.650635,1592
835.768921,1538
835.887146,1536
836.005371,1542
836.123596,1535
836.241821,1512
836.360046,1534
836.478271,1536
836.596497,1510
836.714722,1550
836.832886,1575
836.95105,1557
837.069336,1535
837.1875,1574
837.305725,1546
837.423889,1508
837.542053,1556
837.660339,1508
837.778503,1571
837.896667,1565
838.014832,1505
838.132996,1536
838.25116,1582
838.369385,1571
838.487488,1606
838.605713,1614
838.723877,1614
838.84198,1595
838.960205,1590
839.078308,1634
839.196472,1598
839.314636,1599
839.4328,1622
839.550964,1628
839.669067,1624
839.787231,1668
839.905396,1641
840.023499,1704
840.141602,1686
840.259766,1711
840.377869,1697
840.495972,1668
840.614136,1721
840.732239,1756
840.850342,1714
840.968445,1766
841.086548,1743
841.204651,1743
841.322754,1811
841.440918,1766
841.55896,1709
841.677002,1777
841.795166,1774
841.913208,1814
842.031311,1794
842.149353,1761
842.267456,1786
842.385498,1748
842.503601,1793
842.621643,1731
842.739746,1775
842.857788,1744
842.97583,1747
843.093933,1707
843.211975,1752
843.330017,1700
843.44812,1752
843.566101,1767
843.684204,1763
843.802246,1748
843.920227,1722
844.038269,1776
844.156311,1718
844.274292,1754
844.392395,1705
844.510376,1720
844.628357,1754
844.74646,1713
844.864441,1724
844.982422,1683
845.100403,1656
845.218384,1640
845.336426,1689
845.454468,1706
845.572449,1714
845.69043,1701
845.808411,1694
845.926453,1724
846.044373,1689
846.162354,1647
846.280396,1683
846.398315,1648
846.516296,1690
846.634216,1686
846.752197,1695
846.870178,1749
846.988098,1717
847.106079,1718
847.22406,1728
847.34198,1718
847.4599,1711
847.577881,1698
847.695801,1755
847.813782,1662
847.931641,1694
848.049561,1704
848.167603,1691
848.285461,1666
848.403381,1720
848.521362,1698
848.639221,1687
848.75708,1679
848.875,1737
848.99292,1757
849.110901,1694
849.22876,1689
849.34668,1727
849.464539,1716
849.582458,1729
849.700317,1680
849.818176,1715
849.936096,1671
850.053955,1711
850.171875,1713
850.289673,1735
850.407593,1700
850.525452,1715
850.643311,1687
850.761169,1695
850.878967,1729
850.996887,1691
851.114746,1681
851.232544,1677
851.350403,1678
851.468262,1727
851.58606,1677
851.703979,1713
851.821777,1675
851.939636,1668
852.057434,1668
852.175232,1684
852.293091,1717
852.410889,1754
852.528687,1802
852.646545,1859
852.764343,1887
852.88208,1810
852.999939,1778
853.117676,1774
853.235535,1725
853.353271,1741
853.471069,1696
853.588928,1672
853.706604,1691
853.824402,1656
853.9422,1738
854.059998,1694
854.177734,1682
854.295532,1720
854.413269,1713
854.531006,1725
854.648804,1727
854.766541,1725
854.884277,1738
855.002014,1748
855.119751,1756
855.237549,1709
855.355225,1709
855.473022,1663
855.590698,1707
855.708435,1735
855.826172,1725
855.943848,1747
856.061646,1746
856.179321,1750
856.296997,1763
856.414795,1737
856.53241,1759
856.650085,1800
856.767822,1823
856.885559,1811
857.003174,1817
857.120911,1849
857.238586,1837
857.356201,1828
857.473938,1831
857.591614,1829
857.709351,1806
857.826965,1828
857.944641,1764
858.062317,1843
858.179993,1749
858.297668,1798
858.415283,1777
858.532959,1765
858.650574,1798
858.768188,1779
858.885803,1760
859.003479,1768
859.121094,1778
859.23877,1748
859.356384,1747
859.473999,1701
859.591675,1720
859.709229,1710
859.826843,1741
859.944458,1662
860.062012,1713
860.179626,1665
860.297302,1703
860.414856,1701
860.532471,1702
860.650024,1692
860.767639,1679
860.885193,1693
861.002808,1654
861.120361,1677
861.237976,1691
861.35553,1743
861.473022,1705
861.590698,1683
861.708191,1691
861.825745,1703
861.943298,1712
862.060852,1640
862.178406,1650
862.295959,1626
862.413513,1595
862.531006,1561
862.64856,1591
862.766113,1605
862.883667,1571
863.00116,1560
863.118713,1523
863.236206,1520
863.353699,1584
863.471252,1605
863.588745,1593
863.706177,1641
863.82373,1656
863.941162,1660
864.058716,1634
864.176208,1612
864.29364,1612
864.411194,1580
864.528687,1601
864.646118,1590
864.763611,1534
864.881042,1596
864.998535,1617
865.116028,1542
865.233459,1592
865.350891,1577
865.468384,1578
865.585754,1598
865.703308,1590
865.820679,1569
865.938171,1596
866.055542,1586
866.173035,1581
866.290466,1580
866.407837,1529
866.52533,1551
866.6427,1593
866.760071,1628
866.877563,1620
866.994934,1649
867.112305,1602
867.229736,1662
867.347107,1578
867.464539,1615
867.58197,1635
867.699341,1633
867.81665,1566
867.934082,1642
868.051453,1624
868.168823,1669
868.286194,1621
868.403564,1631
868.520935,1622
868.638306,1616
868.755676,1648
868.872986,1624
868.990295,1640
869.107727,1660
869.225037,1630
869.342346,1691
869.459717,1698
869.577026,1657
869.694336,1688
869.811707,1701
869.929016,1667
870.046326,1702
870.163635,1683
870.280945,1749
870.398254,1770
870.515564,1795
870.632812,1735
870.750183,1754
870.867432,1756
870.984741,1765
871.102051,1730
871.219299,1812
871.336609,1804
871.453918,1877
871.571106,1881
871.688416,1840
871.805664,1877
871.922852,1808
872.040222,1816
872.157471,1856
872.274719,1827
872.391968,1833
872.509155,1861
872.626465,1856
872.743652,1842
872.860962,1832
872.978149,1838
873.095337,1785
873.212646,1795
873.329834,1809
873.44696,1754
873.564209,1765
873.681396,1787
873.798645,1768
873.915894,1766
874.03302,1786
874.150208,1799
874.267456,1812
874.384583,1839
874.501831,1817
874.618958,1842
874.736145,1861
874.853333,1898
874.970459,1855
875.087646,1843
875.204834,1831
875.32196,1817
875.439148,1807
875.556274,1757
875.673401,1807
875.790527,1807
875.907715,1737
876.024841,1765
876.141968,1732
876.259094,1765
876.376282,2679
876.493347,2642
876.610474,1848
876.7276,1733
876.844727,1732
876.961853,1709
877.078918,1722
877.195984,1715
877.313171,1699
877.430237,1735
877.547302,1740
877.664368,1676
877.781433,1663
877.898499,1711
878.015625,1736
878.13269,1699
878.249695,1684
878.366821,1654
878.483887,1632
878.600952,1599
878.717957,1622
878.834961,1635
878.952087,1614
879.069092,1623
879.186157,1606
879.303162,1591
879.420227,1631
879.537231,1603
879.654236,1615
879.77124,1568
879.888306,1550
880.005249,1574
880.122314,1561
880.239319,1579
880.356323,1567
880.473328,1540
880.590271,1524
880.707275,1564
880.824341,1541
880.941284,1537
881.058228,1572
881.175232,1597
881.292236,1518
881.40918,1555
881.526123,1563
881.643066,1544
881.760071,1549
881.877014,1545
881.993958,1536
882.11084,1548
882.227783,1538
882.344727,1536
882.46167,1580
882.578613,1539
882.695618,1479
882.812439,1515
882.929382,1578
883.046326,1587
883.163208,1572
883.280151,1516
883.397034,1553
883.513916,1590
883.630798,1584
883.747742,1586
883.864563,1620
883.981506,1616
884.098389,1622
884.21521,1597
884.332153,1647
884.448975,1702
884.565796,1717
884.682678,1692
884.7995,1729
884.916443,1868
885.033264,1915
885.150085,1983
885.266968,2041
885.383789,2014
885.500671,2107
885.617493,2161
885.734314,2208
885.851196,2102
885.967896,2106
886.084717,2116
886.201599,2137
886.318359,2072
886.435181,2075
886.552002,1986
886.668762,2000
886.785645,1997
886.902344,2000
887.019165,1984
887.135925,1936
887.252747,1918
887.369446,1918
887.486267,1896
887.603027,1831
887.719788,1774
887.836548,1749
887.953247,1736
888.070068,1672
888.186829,1681
888.303528,1654
888.420288,1602
888.536987,1628
888.653687,1560
888.770447,1609
888.887146,1527
889.003967,1567
889.120667,1564
889.237305,1523
889.354065,1463
889.470703,1486
889.587463,1440
889.704163,1509
889.820862,1477
889.937561,1471
890.054199,1467
890.170837,1474
890.287598,1454
890.404236,1510
890.520874,1429
890.637634,1466
890.754211,1483
890.87085,1450
890.987549,1490
891.104187,1489
891.220886,1512
891.337463,1501
891.454102,1516
891.57074,1485
891.687378,1478
891.804077,1522
891.920654,1511
892.037231,1496
892.15387,1536
892.270447,1463
892.387085,1462
892.503723,1461
892.6203,1437
892.736877,1490
892.853516,1490
892.970032,1450
893.08667,1469
893.203186,1497
893.319763,1430
893.43634,1468
893.552917,1474
893.669556,1446
893.786011,1418
893.902588,1462
894.019165,1480
894.135681,1494
894.252197,1461
894.368835,1484
894.485291,1471
894.601868,1476
894.718384,1487
894.8349,1475
894.951355,1456
895.067932,1460
895.184448,1479
895.300964,1477
895.417419,1441
895.533936,1441
895.650452,1454
895.766907,1471
895.883423,1471
895.999878,1418
896.116333,1470
896.232849,1453
896.349304,1492
896.465759,1485
896.582214,1479
896.698669,1437
896.815125,1471
896.931641,1441
897.048035,1477
897.164551,1470
897.280884,1445
897.397339,1462
897.513794,1432
897.630249,1477
897.746582,1414
897.863098,1458
897.979431,1425
898.095886,1456
898.212341,1496
898.328674,1497
898.445129,1478
898.561462,1460
898.677795,1493
898.794312,1461
898.910645,1475
899.026978,1514
899.143433,1445
899.259766,1471
899.37616,1480
899.492493,1461
899.608765,1517
899.725159,1498
899.841553,1506
899.957947,1459
900.07428,1521
900.190552,1516
900.306946,1466
900.423157,1472
900.53949,1451
900.655884,1547
900.772156,1524
900.888489,1519
901.004822,1520
901.121033,1554
901.237366,1516
901.353699,1547
901.46991,1512
901.586304,1589
901.702515,1572
901.818787,1580
901.93512,1604
902.051331,1680
902.167603,1594
902.283875,1690
902.400085,1683
902.516418,1792
902.632629,1748
902.74884,1775
902.865112,1744
902.981384,1804
903.097595,1790
903.213867,1816
903.330017,1755
903.446289,1756
903.5625,1732
903.67865,1719
903.794922,1696
903.911072,1720
904.027344,1638
904.143494,1712
904.259705,1644
904.375916,1617
904.492065,1604
904.608215,1552
904.724426,1570
904.840576,1556
904.956726,1550
905.072876,1564
905.189087,1492
905.305176,1524
905.421387,1512
905.537537,1519
905.653687,1459
905.769775,1475
905.885925,1480
906.002014,1472
906.118164,1452
906.234314,1443
906.350403,1450
906.466492,1439
906.582642,1457
906.69873,1471
906.814758,1484
906.930908,1508
907.046936,1445
907.163086,1443
907.279175,1466
907.395264,1437
907.511353,1422
907.62738,1401
907.743408,1439
907.859497,1443
907.975525,1433
908.091553,1433
908.207703,1455
908.32373,1422
908.439758,1445
908.555786,1468
908.671814,1398
908.787842,1478
908.90387,1420
909.019775,1467
909.135864,1450
909.251892,1441
909.367859,1457
909.483826,1450
909.599854,1415
909.715881,1468
909.831848,1445
909.947815,1481
910.063782,1425
910.179749,1449
910.295776,1485
910.411743,1442
910.527649,1453
910.643616,1427
910.759583,1481
910.875488,1444
910.991455,1404
911.107361,1466
911.223267,1448
911.339294,1437
911.4552,1468
911.571106,1421
911.687073,1424
911.802979,1413
911.918823,1445
912.034729,1449
912.150635,1396
912.266602,1439
912.382446,1452
912.498352,1394
912.614197,1407
912.730103,1422
912.846008,1382
792.44574,5034
792.56488,4793
792.68396,4723
792.80304,4547
792.92218,4512
793.041199,4290
793.160339,4242
793.279419,4183
793.398499,4115
793.517578,3878
793.636658,3863
793.755737,3778
793.874817,3749
793.993896,3585
794.112976,3503
794.232056,3473
794.351074,3450
794.470215,3426
794.589233,3261
794.708313,3284
794.827393,3222
794.946411,3201
795.065552,3175
795.18457,3106
795.303589,3047
795.422668,2998
795.541687,3025
795.660767,2910
795.779846,2934
795.898865,2853
796.017883,2810
796.136963,2797
796.255981,2783
796.375061,2794
796.49408,2773
796.613037,2746
796.732117,2668
796.851135,2664
796.970154,2653
797.089233,2559
797.208191,2593
797.327271,2481
797.446228,2527
797.565186,2509
797.684265,2468
797.803223,2514
797.922241,2439
798.04126,2494
798.160278,2485
798.279297,2370
798.398315,2406
798.517273,2387
798.636292,2351
798.75531,2363
798.874268,2349
798.993286,2352
799.112244,2305
799.231323,2329
799.350281,2330
799.469238,2346
799.588257,2302
799.707153,2341
799.826111,2330
799.945129,2305
800.064087,2236
800.183044,2287
800.302063,2207
800.421021,2259
800.539978,2240
800.658936,2214
800.777893,2212
800.896912,2184
801.015747,2192
801.134705,2187
801.253723,2211
801.37262,2122
801.491638,2100
801.610535,2119
801.729492,2149
801.84845,2155
801.967407,2159
802.086243,2128
802.205261,2143
802.324158,2124
802.443115,2077
802.562073,2106
802.680969,2068
802.799927,2095
802.918762,2053
803.037659,2022
803.156677,2088
803.275574,2022
803.39447,2031
803.513428,2028
803.632263,2044
803.751221,1991
803.870117,2028
803.989014,2006
804.107971,1995
804.226746,2007
804.345642,2014
804.4646,2037
804.583496,1986
804.702393,1973
804.821228,1983
804.940125,2004
805.059021,1986
805.177917,1982
805.296814,1952
805.415649,1991
805.534546,1948
805.653442,2006
805.772278,2020
805.891113,1965
806.01001,1941
806.128906,1941
806.247742,1961
806.366577,1959
806.485413,1957
806.604309,1916
806.723145,1969
806.84198,1945
806.960876,1981
807.079712,1951
807.198486,1937
807.317383,1881
807.436218,1900
807.554993,1858
807.673889,1925
807.792725,1897
807.91156,1867
808.030396,1914
808.14917,1884
808.268005,1882
808.386841,1895
808.505676,1890
808.624451,1862
808.743286,1843
808.862122,1870
808.980896,1910
809.099731,1853
809.218506,1892
809.337341,1879
809.456116,1854
809.57489,1872
809.693726,1877
809.8125,1895
809.931274,1861
810.050049,1844
810.168884,1835
810.287659,1887
810.406372,1847
810.525269,1857
810.643982,1857
810.762756,1840
810.881531,1852
811.000305,1906
811.11908,1904
811.237854,1880
811.356567,1868
811.475403,1895
811.594116,1864
811.71283,1948
811.831604,1921
811.950378,1935
812.069153,1938
812.187927,1911
812.30658,1965
812.425415,1923
812.544128,1945
812.662781,1916
812.781616,1925
812.900269,1953
813.019043,1912
813.137756,1831
813.256531,1936
813.375244,1909
813.493896,1835
813.612671,1838
813.731384,1854
813.850037,1879
813.96875,1874
814.087524,1878
814.206238,1861
814.324951,1791
814.443604,1825
814.562256,1816
814.68103,1859
814.799683,1819
814.918335,1863
815.037109,1858
815.155762,1828
815.274475,1890
815.393188,1784
815.511841,1823
815.630554,1783
815.749146,1839
815.867859,1815
815.986572,1799
816.105164,1830
816.223877,1835
816.342529,1835
816.461182,1830
816.579895,1857
816.698486,1842
816.817139,1837
816.935791,1864
817.054504,1899
817.173096,1863
817.291748,1884
817.4104,1892
817.529053,1779
817.647644,1836
817.766235,1775
817.884949,1753
818.00354,1824
818.122192,1767
818.240845,1721
818.359436,1769
818.478088,1742
818.59668,1714
818.715271,1786
818.833923,1730
818.952515,1754
819.071106,1713
819.189758,1713
819.30835,1674
819.426941,1673
819.545532,1691
819.664124,1662
819.782715,1689
819.901306,1714
820.019897,1646
820.138489,1692
820.25708,1713
820.375671,1664
820.494202,1621
820.612732,1686
820.731384,1683
820.849915,1680
820.968506,1653
821.087097,1642
821.205627,1651
821.324158,1613
821.442749,1616
821.561279,1638
821.679871,1661
821.798401,1601
821.916931,1662
822.035461,1649
822.154053,1655
822.272583,1615
822.391174,1605
822.509583,1629
822.628174,1645
822.746704,1695
822.865234,1622
822.983765,1596
823.102295,1614
823.220825,1556
823.339294,1566
823.457825,1579
823.576355,1566
823.694824,1625
823.813354,1619
823.931885,1576
824.050354,1606
824.168884,1602
824.287354,1591
824.405823,1602
824.524353,1646
824.642822,1618
824.761353,1607
824.879822,1674
824.998291,1608
825.116699,1601
825.235291,1576
825.353699,1610
825.472168,1603
825.590637,1587
825.709106,1601
825.827576,1560
825.946045,1581
826.064453,1586
826.182983,1571
826.301392,1548
826.4198,1553
826.53833,1553
826.656738,1549
826.775208,1537
826.893677,1557
827.012024,1581
827.130493,1550
827.248962,1566
827.36731,1563
827.485779,1616
827.604248,1585
827.722595,1595
827.841064,1593
827.959412,1551
828.077942,1558
828.196289,1528
828.314636,1529
828.433105,1582
828.551514,1553
828.669861,1506
828.78833,1524
828.906677,1540
829.025085,1554
829.143433,1593
829.261841,1550
829.38031,1571
829.498657,1511
829.617004,1540
829.735413,1576
829.85376,1535
829.972107,1524
830.090515,1536
830.208862,1528
830.327209,1515
830.445557,1503
830.563904,1551
830.682312,1531
830.800659,1530
830.919006,1560
831.037354,1562
831.155701,1560
831.274048,1596
831.392395,1584
831.51062,1609
831.629028,1568
831.747314,1591
831.865662,1573
831.984009,1560
832.102356,1570
832.220642,1613
832.338928,1635
832.457275,1633
832.575623,1606
832.693909,1548
832.812134,1589
832.930481,1611
833.048828,1581
833.167114,1577
833.2854,1569
833.403687,1568
833.521973,1562
833.640259,1572
833.758545,1557
833.876831,1548
833.995056,1604
834.113281,1564
834.231628,1621
834.349915,1579
834.468201,1585
834.586426,1578
834.704651,1610
834.822998,1573
834.941162,1579
835.059448,1572
835.177673,1508
835.295959,1573
835.414246,1639
835.53241,1587
835.650635,1601
835.768921,1568
835.887146,1556
836.005371,1538
836.123596,1566
836.241821,1565
836.360046,1490
836.478271,1535
836.596497,1576
836.714722,1518
836.832886,1565
836.95105,1497
837.069336,1575
837.1875,1511
837.305725,1535
837.423889,1528
837.542053,1542
837.660339,1545
837.778503,1562
837.896667,1572
838.014832,1549
838.132996,1563
838.25116,1535
838.369385,1543
838.487488,1551
838.605713,1583
838.723877,1619
838.84198,1604
838.960205,1654
839.078308,1625
839.196472,1588
839.314636,1612
839.4328,1622
839.550964,1638
839.669067,1596
839.787231,1634
839.905396,1676
840.023499,1684
840.141602,1635
840.259766,1629
840.377869,1707
840.495972,1727
840.614136,1666
840.732239,1700
840.850342,1694
840.968445,1720
841.086548,1731
841.204651,1788
841.322754,1771
841.440918,1792
841.55896,1762
841.677002,1797
841.795166,1808
841.913208,1849
842.031311,1782
842.149353,1800
842.267456,1803
842.385498,1822
842.503601,1764
842.621643,1729
842.739746,1757
842.857788,1752
842.97583,1722
843.093933,1793
843.211975,1750
843.330017,1792
843.44812,1796
843.566101,1807
843.684204,1780
843.802246,1745
843.920227,1727
844.038269,1757
844.156311,1696
844.274292,1717
844.392395,1704
844.510376,1725
844.628357,1678
844.74646,1655
844.864441,1699
844.982422,1686
845.100403,1687
845.218384,1656
845.336426,1704
845.454468,1671
845.572449,1680
845.69043,1676
845.808411,1674
845.926453,1687
846.044373,1685
846.162354,1705
846.280396,1709
846.398315,1686
846.516296,1702
846.634216,1646
846.752197,1700
846.870178,1695
846.988098,1728
847.106079,1710
847.22406,1715
847.34198,1715
847.4599,1701
847.577881,1749
847.695801,1714
847.813782,1756
847.931641,1700
848.049561,1739
848.167603,1671
848.285461,1678
848.403381,1739
848.521362,1682
848.639221,1709
848.75708,1674
848.875,1732
848.99292,1711
849.110901,1710
849.22876,1772
849.34668,1709
849.464539,1785
849.582458,1729
849.700317,1680
849.818176,1708
849.936096,1734
850.053955,1741
850.171875,1694
850.289673,1733
850.407593,1722
850.525452,1748
850.643311,1742
850.761169,1720
850.878967,1721
850.996887,1712
851.114746,1708
851.232544,1668
851.350403,1723
851.468262,1680
851.58606,1681
851.703979,1674
851.821777,1675
851.939636,1720
852.057434,1735
852.175232,1722
852.293091,1719
852.410889,1742
852.528687,1825
852.646545,1867
852.764343,1868
852.88208,1899
852.999939,1800
853.117676,1782
853.235535,1727
853.353271,1667
853.471069,1736
853.588928,1680
853.706604,1698
853.824402,1711
853.9422,1696
854.059998,1696
854.177734,1698
854.295532,1704
854.413269,1691
854.531006,1717
854.648804,1748
854.766541,1763
854.884277,1708
855.002014,1738
855.119751,1762
855.237549,1738
855.355225,1702
855.473022,1757
855.590698,1733
855.708435,1725
855.826172,1748
855.943848,1740
856.061646,1745
856.179321,1774
856.296997,1766
856.414795,1786
856.53241,1794
856.650085,1793
856.767822,1799
856.885559,1836
857.003174,1825
857.120911,1857
857.238586,1841
857.356201,1837
857.473938,1781
857.591614,1794
857.709351,1773
857.826965,1808
857.944641,1856
858.062317,1812
858.179993,1834
858.297668,1775
858.415283,1766
858.532959,1845
858.650574,1836
858.768188,1842
858.885803,1814
859.003479,1791
859.121094,1810
859.23877,1718
859.356384,1745
859.473999,1780
859.591675,1677
859.709229,1693
859.826843,1673
859.944458,1687
860.062012,1697
860.179626,1678
860.297302,1716
860.414856,1707
860.532471,1681
860.650024,1726
860.767639,1709
860.885193,1731
861.002808,1738
861.120361,1700
861.237976,1684
861.35553,1713
861.473022,1718
861.590698,1711
861.708191,1694
861.825745,1692
861.943298,1725
862.060852,1601
862.178406,1662
862.295959,1620
862.413513,1630
862.531006,1589
862.64856,1524
862.766113,1596
862.883667,1583
863.00116,1597
863.118713,1609
863.236206,1606
863.353699,1579
863.471252,1558
863.588745,1591
863.706177,1590
863.82373,1690
863.941162,1641
864.058716,1677
864.176208,1618
864.29364,1596
864.411194,1624
864.528687,1626
864.646118,1660
864.763611,1566
864.881042,1616
864.998535,1544
865.116028,1641
865.233459,1569
865.350891,1593
865.468384,1567
865.585754,1611
865.703308,1574
865.820679,1588
865.938171,1593
866.055542,1602
866.173035,1596
866.290466,1575
866.407837,1576
866.52533,1613
866.6427,1607
866.760071,1590
866.877563,1593
866.994934,1576
867.112305,1566
867.229736,1603
867.347107,1597
867.464539,1643
867.58197,1634
867.699341,1662
867.81665,1605
867.934082,1685
868.051453,1657
868.168823,1577
868.286194,1629
868.403564,1641
868.520935,1649
868.638306,1639
868.755676,1630
868.872986,1638
868.990295,1664
869.107727,1664
869.225037,1658
869.342346,1677
869.459717,1662
869.577026,1702
869.694336,1675
869.811707,1706
869.929016,1740
870.046326,1731
870.163635,1757
870.280945,1773
870.398254,1718
870.515564,1801
870.632812,1789
870.750183,1754
870.867432,1799
870.984741,1789
871.102051,1805
871.219299,1839
871.336609,1879
871.453918,1860
871.571106,1839
871.688416,1851
871.805664,1823
871.922852,1850
872.040222,1848
872.157471,1855
872.274719,1831
872.391968,1845
872.509155,1811
872.626465,1836
872.743652,1799
872.860962,1809
872.978149,1808
873.095337,1851
873.212646,1767
873.329834,1766
873.44696,1772
873.564209,1777
873.681396,1749
873.798645,1749
873.915894,1768
874.03302,1795
874.150208,1773
874.267456,1852
874.384583,1810
874.501831,1898
874.618958,1884
874.736145,1837
874.853333,1895
874.970459,1917
875.087646,1898
875.204834,1867
875.32196,1871
875.439148,1836
875.556274,1793
875.673401,1810
875.790527,1789
875.907715,1731
876.024841,1717
876.141968,1822
876.259094,1739
876.376282,1758
876.493347,1780
876.610474,1709
876.7276,1716
876.844727,1707
876.961853,1751
877.078918,1706
877.195984,1724
877.313171,1733
877.430237,1704
877.547302,1725
877.664368,1702
877.781433,1745
877.898499,1680
878.015625,1686
878.13269,1716
878.249695,1628
878.366821,1696
878.483887,1687
878.600952,1642
878.717957,1659
878.834961,1645
878.952087,1609
879.069092,1672
879.186157,1628
879.303162,1652
879.420227,1637
879.537231,1580
879.654236,1600
879.77124,1621
879.888306,1587
880.005249,1581
880.122314,1577
880.239319,1559
880.356323,1561
880.473328,1546
880.590271,1549
880.707275,1612
880.824341,1532
880.941284,1575
881.058228,1592
881.175232,1579
881.292236,1528
881.40918,1553
881.526123,1581
881.643066,1572
881.760071,1559
881.877014,1561
881.993958,1553
882.11084,1521
882.227783,1586
882.344727,1545
882.46167,1576
882.578613,1550
882.695618,1551
882.812439,1555
882.929382,1570
883.046326,1592
883.163208,1533
883.280151,1597
883.397034,1563
883.513916,1577
883.630798,1624
883.747742,1620
883.864563,1613
883.981506,1625
884.098389,1623
884.21521,1627
884.332153,1666
884.448975,1676
884.565796,1738
884.682678,1755
884.7995,1749
884.916443,1861
885.033264,1928
885.150085,1973
885.266968,2057
885.383789,2071
885.500671,2093
885.617493,2156
885.734314,2146
885.851196,2044
885.967896,2077
886.084717,2126
886.201599,2075
886.318359,2035
886.435181,2079
886.552002,2071
886.668762,2050
886.785645,2064
886.902344,1933
887.019165,1939
887.135925,1970
887.252747,1967
887.369446,1933
887.486267,1901
887.603027,1825
887.719788,1781
887.836548,1788
887.953247,1765
888.070068,1684
888.186829,1669
888.303528,1634
888.420288,1650
888.536987,1592
888.653687,1545
888.770447,1580
888.887146,1582
889.003967,1533
889.120667,1543
889.237305,1501
889.354065,1472
889.470703,1498
889.587463,1484
889.704163,1468
889.820862,1502
889.937561,1442
890.054199,1478
890.170837,1494
890.287598,1470
890.404236,1475
890.520874,1494
890.637634,1485
890.754211,1468
890.87085,1493
890.987549,1456
891.104187,1505
891.220886,1539
891.337463,1507
891.454102,1527
891.57074,1531
891.687378,1561
891.804077,1523
891.920654,1508
892.037231,1479
892.15387,1497
892.270447,1477
892.387085,1472
892.503723,1522
892.6203,1498
892.736877,1497
892.853516,1497
892.970032,1479
893.08667,1477
893.203186,1514
893.319763,1487
893.43634,1470
893.552917,1480
893.669556,1489
893.786011,1481
893.902588,1478
894.019165,1454
894.135681,1481
894.252197,1513
894.368835,1512
894.485291,1490
894.601868,1510
894.718384,1482
894.8349,1497
894.951355,1495
895.067932,1473
895.184448,1516
895.300964,1489
895.417419,1467
895.533936,1501
895.650452,1489
895.766907,1495
895.883423,1504
895.999878,1508
896.116333,1451
896.232849,1456
896.349304,1438
896.465759,1484
896.582214,1505
896.698669,1496
896.815125,1481
896.931641,1468
897.048035,1532
897.164551,1449
897.280884,1468
897.397339,1433
897.513794,1484
897.630249,1457
897.746582,1467
897.863098,1442
897.979431,1530
898.095886,1497
898.212341,1474
898.328674,1467
898.445129,1527
898.561462,1488
898.677795,1515
898.794312,1511
898.910645,1532
899.026978,1512
899.143433,1514
899.259766,1493
899.37616,1500
899.492493,1489
899.608765,1566
899.725159,1511
899.841553,1516
899.957947,1528
900.07428,1528
900.190552,1530
900.306946,1526
900.423157,1508
900.53949,1497
900.655884,1522
900.772156,1588
900.888489,1511
901.004822,1494
901.121033,1522
901.237366,1533
901.353699,1524
901.46991,1547
901.586304,1584
901.702515,1508
901.818787,1595
901.93512,1657
902.051331,1620
902.167603,1635
902.283875,1721
902.400085,1772
902.516418,1777
902.632629,1814
902.74884,1799
902.865112,1855
902.981384,1803
903.097595,1835
903.213867,1805
903.330017,1827
903.446289,1787
903.5625,1766
903.67865,1760
903.794922,1703
903.911072,1728
904.027344,1718
904.143494,1687
904.259705,1685
904.375916,1649
904.492065,1613
904.608215,1557
904.724426,1561
904.840576,1601
904.956726,1556
905.072876,1557
905.189087,1489
905.305176,1528
905.421387,1510
905.537537,1523
905.653687,1499
905.769775,1513
905.885925,1508
906.002014,1487
906.118164,1471
906.234314,1489
906.350403,1533
906.466492,1452
906.582642,1505
906.69873,1471
906.814758,1485
906.930908,1459
907.046936,1421
907.163086,1487
907.279175,1449
907.395264,1448
907.511353,1459
907.62738,1432
907.743408,1495
907.859497,1480
907.975525,1512
908.091553,1505
908.207703,1456
908.32373,1453
908.439758,1431
908.555786,1448
908.671814,1503
908.787842,1465
908.90387,1530
909.019775,1463
909.135864,1453
909.251892,1481
909.367859,1465
909.483826,1478
909.599854,1487
909.715881,1458
909.831848,1458
909.947815,1459
910.063782,1543
910.179749,1467
910.295776,1473
910.411743,1490
910.527649,1476
910.643616,1516
910.759583,1487
910.875488,1499
910.991455,1457
911.107361,1512
911.223267,1494
911.339294,1420
911.4552,1487
911.571106,1469
911.687073,1455
911.802979,1461
911.918823,1454
912.034729,1436
912.150635,1459
912.266602,1451
912.382446,1414
912.498352,1457
912.614197,1484
912.730103,1377
912.846008,1448
792.44574,5002
792.56488,4887
792.68396,4726
792.80304,4625
792.92218,4442
793.041199,4249
793.160339,4159
793.279419,4080
793.398499,4077
793.517578,3949
793.636658,3827
793.755737,3752
793.874817,3753
793.993896,3625
794.112976,3555
794.232056,3496
794.351074,3357
794.470215,3428
794.589233,3323
794.708313,3256
794.827393,3177
794.946411,3133
795.065552,3217
795.18457,3041
795.303589,3071
795.422668,3006
795.541687,3061
795.660767,2969
795.779846,2877
795.898865,2884
796.017883,2860
796.136963,2773
796.255981,2832
796.375061,2734
796.49408,2778
796.613037,2728
796.732117,2680
796.851135,2714
796.970154,2612
797.089233,2584
797.208191,2540
797.327271,2571
797.446228,2598
797.565186,2538
797.684265,2492
797.803223,2441
797.922241,2429
798.04126,2520
798.160278,2430
798.279297,2394
798.398315,2376
798.517273,2383
798.636292,2368
798.75531,2400
798.874268,2335
798.993286,2368
799.112244,2365
799.231323,2386
799.350281,4128
799.469238,2312
799.588257,2334
799.707153,2338
799.826111,2301
799.945129,2285
800.064087,2270
800.183044,2225
800.302063,2206
800.421021,2293
800.539978,2190
800.658936,2248
800.777893,2192
800.896912,2209
801.015747,2214
801.134705,2189
801.253723,2186
801.37262,2135
801.491638,2200
801.610535,2101
801.729492,2175
801.84845,2157
801.967407,2083
802.086243,2151
802.205261,2133
802.324158,2124
802.443115,2084
802.562073,2111
802.680969,2108
802.799927,2035
802.918762,2038
803.037659,2065
803.156677,2070
803.275574,2036
803.39447,2043
803.513428,2081
803.632263,2024
803.751221,2059
803.870117,2025
803.989014,1988
804.107971,1999
804.226746,2044
804.345642,2013
804.4646,2003
804.583496,1974
804.702393,2037
804.821228,2011
804.940125,1951
805.059021,1979
805.177917,1980
805.296814,1980
805.415649,1955
805.534546,1937
805.653442,1961
805.772278,1968
805.891113,2002
806.01001,2022
806.128906,1946
806.247742,1908
806.366577,1970
806.485413,1934
806.604309,1995
806.723145,1995
806.84198,1964
806.960876,1947
807.079712,1940
807.198486,1929
807.317383,1908
807.436218,1959
807.554993,1930
807.673889,1910
807.792725,1925
807.91156,1916
808.030396,1907
808.14917,1887
808.268005,1865
808.386841,1885
808.505676,1908
808.624451,1907
808.743286,1887
808.862122,1859
808.980896,1893
809.099731,1816
809.218506,1846
809.337341,1872
809.456116,1856
809.57489,1897
809.693726,1903
809.8125,1884
809.931274,1912
810.050049,1850
810.168884,1906
810.287659,1813
810.406372,1871
810.525269,1861
810.643982,1860
810.762756,1872
810.881531,1875
811.000305,1858
811.11908,1881
811.237854,1861
811.356567,1892
811.475403,1919
811.594116,1862
811.71283,1918
811.831604,1897
811.950378,1902
812.069153,1916
812.187927,1904
812.30658,1880
812.425415,1931
812.544128,1890
812.662781,1916
812.781616,1909
812.900269,1933
813.019043,1864
813.137756,1892
813.256531,1866
813.375244,1882
813.493896,1841
813.612671,1889
813.731384,1849
813.850037,1817
813.96875,1826
814.087524,1859
814.206238,1810
814.324951,1836
814.443604,1828
814.562256,1784
814.68103,1856
814.799683,1824
814.918335,1846
815.037109,1842
815.155762,1820
815.274475,1785
815.393188,1796
815.511841,1819
815.630554,1821
815.749146,1825
815.867859,1867
815.986572,1854
816.105164,1822
816.223877,1793
816.342529,1878
816.461182,1822
816.579895,1809
816.698486,1823
816.817139,1868
816.935791,1870
817.054504,1845
817.173096,1861
817.291748,1842
817.4104,1830
817.529053,1840
817.647644,1843
817.766235,1828
817.884949,1784
818.00354,1794
818.122192,1800
818.240845,1788
818.359436,1721
818.478088,1771
818.59668,1783
818.715271,1740
818.833923,1720
818.952515,1718
819.071106,1727
819.189758,1695
819.30835,1694
819.426941,1673
819.545532,1654
819.664124,1699
819.782715,1650
819.901306,1683
820.019897,1659
820.138489,1690
820.25708,1672
820.375671,1697
820.494202,1684
820.612732,1688
820.731384,1700
820.849915,1708
820.968506,1687
821.087097,1692
821.205627,1673
821.324158,1634
821.442749,1622
821.561279,1597
821.679871,1670
821.798401,1618
821.916931,1609
822.035461,1643
822.154053,1640
822.272583,1655
822.391174,1672
822.509583,1664
822.628174,1586
822.746704,1580
822.865234,1547
822.983765,1599
823.102295,1617
823.220825,1631
823.339294,1578
823.457825,1599
823.576355,1584
823.694824,1564
823.813354,1616
823.931885,1540
824.050354,1643
824.168884,1593
824.287354,1624
824.405823,1553
824.524353,1627
824.642822,1649
824.761353,1634
824.879822,1616
824.998291,1613
825.116699,1603
825.235291,1640
825.353699,1625
825.472168,1629
825.590637,1553
825.709106,1588
825.827576,1590
825.946045,1528
826.064453,1595
826.182983,1594
826.301392,1551
826.4198,1545
826.53833,1568
826.656738,1558
826.775208,1559
826.893677,1556
827.012024,1582
827.130493,1580
827.248962,1602
827.36731,1607
827.485779,1615
827.604248,1562
827.722595,1577
827.841064,1556
827.959412,1536
828.077942,1534
828.196289,1517
828.314636,1546
828.433105,1572
828.551514,1525
828.669861,1531
828.78833,1547
828.906677,1499
829.025085,1538
829.143433,1565
829.261841,1534
829.38031,1541
829.498657,1559
829.617004,1554
829.735413,1547
829.85376,1512
829.972107,1558
830.090515,1511
830.208862,1494
830.327209,1491
830.445557,1567
830.563904,1532
830.682312,1586
830.800659,1528
830.919006,1543
831.037354,1587
831.155701,1622
831.274048,1599
831.392395,1613
831.51062,1577
831.629028,1534
831.747314,1588
831.865662,1561
831.984009,1583
832.102356,1611
832.220642,1596
832.338928,1556
832.457275,1612
832.575623,1566
832.693909,1617
832.812134,1604
832.930481,1552
833.048828,1582
833.167114,1539
833.2854,1578
833.403687,1625
833.521973,1534
833.640259,1552
833.758545,1533
833.876831,1629
833.995056,1571
834.113281,1603
834.231628,1609
834.349915,1548
834.468201,1552
834.586426,1598
834.704651,1592
834.822998,1548
834.941162,1558
835.059448,1645
835.177673,1583
835.295959,1596
835.414246,1603
835.53241,1610
835.650635,1608
835.768921,1560
835.887146,1518
836.005371,1556
836.123596,1550
836.241821,1527
836.360046,1540
836.478271,1533
836.596497,1514
836.714722,1560
836.832886,1503
836.95105,1492
837.069336,1540
837.1875,1547
837.305725,1539
837.423889,1540
837.542053,1543
837.660339,1558
837.778503,1566
837.896667,1512
838.014832,1525
838.132996,1510
838.25116,1532
838.369385,1570
838.487488,1544
838.605713,1592
838.723877,1630
838.84198,1586
838.960205,1641
839.078308,1611
839.196472,1614
839.314636,1589
839.4328,1630
839.550964,1633
839.669067,1646
839.787231,1655
839.905396,1659
840.023499,1708
840.141602,1713
840.259766,1721
840.377869,1684
840.495972,1713
840.614136,1707
840.732239,1746
840.850342,1688
840.968445,1735
841.086548,1766
841.204651,1715
841.322754,1742
841.440918,1741
841.55896,1780
841.677002,1830
841.795166,1805
841.913208,1792
842.031311,1759
842.149353,1779
842.267456,1777
842.385498,1815
842.503601,1811
842.621643,1749
842.739746,1779
842.857788,1748
842.97583,1785
843.093933,1727
843.211975,1777
843.330017,1734
843.44812,1795
843.566101,1770
843.684204,1734
843.802246,1734
843.920227,1806
844.038269,1727
844.156311,1739
844.274292,1712
844.392395,1703
844.510376,1722
844.628357,1729
844.74646,1702
844.864441,1730
844.982422,1672
845.100403,1677
845.218384,1683
845.336426,1667
845.454468,1671
845.572449,1667
845.69043,1701
845.808411,1750
845.926453,1708
846.044373,1680
846.162354,1711
846.280396,1734
846.398315,1695
846.516296,1704
846.634216,1672
846.752197,1710
846.870178,1697
846.988098,1701
847.106079,1771
847.22406,1702
847.34198,1709
847.4599,1729
847.577881,1694
847.695801,1728
847.813782,1752
847.931641,1727
848.049561,1684
848.167603,1687
848.285461,1710
848.403381,1719
848.521362,1703
848.639221,1695
848.75708,1701
848.875,1715
848.99292,1706
849.110901,1712
849.22876,1717
849.34668,1752
849.464539,1727
849.582458,1731
849.700317,1718
849.818176,1742
849.936096,1702
850.053955,1743
850.171875,1706
850.289673,1700
850.407593,1727
850.525452,1739
850.643311,1741
850.761169,1719
850.878967,1729
850.996887,1688
851.114746,1721
851.232544,1643
851.350403,1670
851.468262,1667
851.58606,1676
851.703979,1675
851.821777,1686
851.939636,1707
852.057434,1718
852.175232,1684
852.293091,1746
852.410889,1783
852.528687,1816
852.646545,1852
852.764343,1859
852.88208,1854
852.999939,1791
853.117676,1767
853.235535,1766
853.353271,1695
853.471069,1713
853.588928,1718
853.706604,1678
853.824402,1726
853.9422,1685
854.059998,1716
854.177734,1706
854.295532,1748
854.413269,1751
854.531006,1727
854.648804,1724
854.766541,1728
854.884277,1771
855.002014,1783
855.119751,1706
855.237549,1761
855.355225,1743
855.473022,1747
855.590698,1764
855.708435,1760
855.826172,1736
855.943848,1728
856.061646,1763
856.179321,1778
856.296997,1737
856.414795,1792
856.53241,1756
856.650085,1823
856.767822,1788
856.885559,1778
857.003174,1830
857.120911,1879
857.238586,1855
857.356201,1831
857.473938,1841
857.591614,1837
857.709351,1813
857.826965,1809
857.944641,1823
858.062317,1794
858.179993,1834
858.297668,1810
858.415283,1772
858.532959,1772
858.650574,1841
858.768188,1840
858.885803,1764
859.003479,1740
859.121094,1746
859.23877,1777
859.356384,1774
859.473999,1762
859.591675,1726
859.709229,1717
859.826843,1754
859.944458,1772
860.062012,1694
860.179626,1720
860.297302,1690
860.414856,1686
860.532471,1707
860.650024,1680
860.767639,1689
860.885193,1681
861.002808,1669
861.120361,1682
861.237976,1695
861.35553,1701
861.473022,1683
861.590698,1674
861.708191,1692
861.825745,1674
861.943298,1712
862.060852,1694
862.178406,1668
862.295959,1603
862.413513,1630
862.531006,1596
862.64856,1577
862.766113,1590
862.883667,1607
863.00116,1568
863.118713,1579
863.236206,1602
863.353699,1592
863.471252,1590
863.588745,1612
863.706177,1606
863.82373,1637
863.941162,1635
864.058716,1628
864.176208,1595
864.29364,1638
864.411194,1596
864.528687,1573
864.646118,1569
864.763611,1557
864.881042,1555
864.998535,1590
865.116028,1614
865.233459,1594
865.350891,1570
865.468384,1599
865.585754,1571
865.703308,1628
865.820679,1599
865.938171,1608
866.055542,1608
866.173035,1559
866.290466,1576
866.407837,1589
866.52533,1558
866.6427,1604
866.760071,1592
866.877563,1608
866.994934,1617
867.112305,1625
867.229736,1631
867.347107,1671
867.464539,1662
867.58197,1636
867.699341,1630
867.81665,1651
867.934082,1640
868.051453,1665
868.168823,1642
868.286194,1636
868.403564,1599
868.520935,1607
868.638306,1638
868.755676,1586
868.872986,1656
868.990295,1674
869.107727,1706
869.225037,1634
869.342346,1661
869.459717,1698
869.577026,1667
869.694336,1715
869.811707,1688
869.929016,1675
870.046326,1757
870.163635,1723
870.280945,1740
870.398254,1738
870.515564,1719
870.632812,1741
870.750183,1767
870.867432,1765
870.984741,1759
871.102051,1831
871.219299,1846
871.336609,1797
871.453918,1851
871.571106,1835
871.688416,1898
871.805664,1829
871.922852,1834
872.040222,1871
872.157471,1850
872.274719,1860
872.391968,1859
872.509155,1848
872.626465,1807
872.743652,1826
872.860962,1793
872.978149,1837
873.095337,1773
873.212646,1840
873.329834,1743
873.44696,1806
873.564209,1780
873.681396,1777
873.798645,1734
873.915894,1755
874.03302,1767
874.150208,1788
874.267456,1804
874.384583,1838
874.501831,1871
874.618958,1872
874.736145,1812
874.853333,1882
874.970459,1846
875.087646,1902
875.204834,1859
875.32196,1862
875.439148,1864
875.556274,1812
875.673401,1838
875.790527,1815
875.907715,1789
876.024841,1769
876.141968,1760
876.259094,1798
876.376282,1718
876.493347,1737
876.610474,1711
876.7276,1713
876.844727,1644
876.961853,1719
877.078918,1688
877.195984,1704
877.313171,1668
877.430237,1703
877.547302,1695
877.664368,1736
877.781433,1665
877.898499,1743
878.015625,1745
878.13269,1674
878.249695,1666
878.366821,1678
878.483887,1688
878.600952,1635
878.717957,1671
878.834961,1717
878.952087,1609
879.069092,1615
879.186157,1669
879.303162,1648
879.420227,1585
879.537231,1593
879.654236,1601
879.77124,1583
879.888306,1594
880.005249,1567
880.122314,1575
880.239319,1557
880.356323,1557
880.473328,1518
880.590271,1565
880.707275,1604
880.824341,1572
880.941284,1551
881.058228,1592
881.175232,1551
881.292236,1520
881.40918,1539
881.526123,1556
881.643066,1606
881.760071,1518
881.877014,1540
881.993958,1584
882.11084,1571
882.227783,1563
882.344727,1561
882.46167,1583
882.578613,1558
882.695618,1547
882.812439,1537
882.929382,1552
883.046326,1582
883.163208,1534
883.280151,1557
883.397034,1597
883.513916,1614
883.630798,1556
883.747742,1581
883.864563,1630
883.981506,1594
884.098389,1580
884.21521,1638
884.332153,1698
884.448975,1670
884.565796,1684
884.682678,1741
884.7995,1777
884.916443,1864
885.033264,1942
885.150085,2022
885.266968,1992
885.383789,2087
885.500671,2140
885.617493,2125
885.734314,2131
885.851196,2166
885.967896,2122
886.084717,2112
886.201599,2115
886.318359,2147
886.435181,2074
886.552002,2054
886.668762,2042
886.785645,1995
886.902344,2005
887.019165,1951
887.135925,1973
887.252747,1957
887.369446,1963
887.486267,1889
887.603027,1884
887.719788,1818
887.836548,1807
887.953247,1765
888.070068,1739
888.186829,1714
888.303528,1715
888.420288,1642
888.536987,1618
888.653687,1644
888.770447,1593
888.887146,1566
889.003967,1527
889.120667,1542
889.237305,1480
889.354065,1542
889.470703,1502
889.587463,1508
889.704163,1485
889.820862,1529
889.937561,1477
890.054199,1469
890.170837,1464
890.287598,1484
890.404236,1500
890.520874,1474
890.637634,1475
890.754211,1503
890.87085,1498
890.987549,1521
891.104187,1532
891.220886,1535
891.337463,1495
891.454102,1526
891.57074,1517
891.687378,1521
891.804077,1514
891.920654,1539
892.037231,1485
892.15387,1571
892.270447,1542
892.387085,1499
892.503723,1503
892.6203,1495
892.736877,1534
892.853516,1523
892.970032,1474
893.08667,1469
893.203186,1523
893.319763,1463
893.43634,1501
893.552917,1526
893.669556,1458
893.786011,1479
893.902588,1469
894.019165,1513
894.135681,1468
894.252197,1492
894.368835,1525
894.485291,1473
894.601868,1488
894.718384,1508
894.8349,1519
894.951355,1494
895.067932,1453
895.184448,1498
895.300964,1520
895.417419,1460
895.533936,1482
895.650452,1453
895.766907,1446
895.883423,1463
895.999878,1447
896.116333,1454
896.232849,1518
896.349304,1513
896.465759,1472
896.582214,1479
896.698669,1474
896.815125,1502
896.931641,1490
897.048035,1458
897.164551,1476
897.280884,1511
897.397339,1471
897.513794,1492
897.630249,1451
897.746582,1495
897.863098,1480
897.979431,1445
898.095886,1500
898.212341,1523
898.328674,1512
898.445129,1514
898.561462,1530
898.677795,1484
898.794312,1493
898.910645,1525
899.026978,1511
899.143433,1500
899.259766,1502
899.37616,1509
899.492493,1512
899.608765,1509
899.725159,1532
899.841553,1517
899.957947,1532
900.07428,1521
900.190552,1533
900.306946,1539
900.423157,1513
900.53949,1547
900.655884,1569
900.772156,1564
900.888489,1547
901.004822,1501
901.121033,1540
901.237366,1535
901.353699,1531
901.46991,1598
901.586304,1549
901.702515,1562
901.818787,1637
901.93512,1639
902.051331,1686
902.167603,1628
902.283875,1708
902.400085,1786
902.516418,1795
902.632629,1779
902.74884,1831
902.865112,1818
902.981384,1815
903.097595,1803
903.213867,1815
903.330017,1823
903.446289,1787
903.5625,1758
903.67865,1769
903.794922,1751
903.911072,1701
904.027344,1692
904.143494,1650
904.259705,1687
904.375916,1682
904.492065,1627
904.608215,1592
904.724426,1599
904.840576,1519
904.956726,1572
905.072876,1557
905.189087,1533
905.305176,1561
905.421387,1544
905.537537,1515
905.653687,1513
905.769775,1519
905.885925,1493
906.002014,1513
906.118164,1490
906.234314,1519
906.350403,1502
906.466492,1530
906.582642,1500
906.69873,1483
906.814758,1487
906.930908,1483
907.046936,1477
907.163086,1522
907.279175,1456
907.395264,1435
907.511353,1485
907.62738,1454
907.743408,1461
907.859497,1509
907.975525,1416
908.091553,1475
908.207703,1489
908.32373,1456
908.439758,1498
908.555786,1457
908.671814,1478
908.787842,1483
908.90387,1479
909.019775,1524
909.135864,1492
909.251892,1485
909.367859,1450
909.483826,1502
909.599854,1480
909.715881,1473
909.831848,1487
909.947815,1507
910.063782,1464
910.179749,1492
910.295776,1497
910.411743,1475
910.527649,1485
910.643616,1516
910.759583,1458
910.875488,1493
910.991455,1475
911.107361,1470
911.223267,1481
911.339294,1449
911.4552,1436
911.571106,1443
911.687073,1479
911.802979,1440
911.918823,1477
912.034729,1484
912.150635,1459
912.266602,1478
912.382446,1430
912.498352,1494
912.614197,1453
912.730103,1452
912.846008,1452
