792.44574,2277
792.56488,2206
792.68396,2216
792.80304,2186
792.92218,2126
793.041199,2118
793.160339,2153
793.279419,2150
793.398499,2053
793.517578,2099
793.636658,2076
793.755737,2114
793.874817,2069
793.993896,2121
794.112976,2051
794.232056,2023
794.351074,1997
794.470215,2045
794.589233,1986
794.708313,2018
794.827393,1983
794.946411,2013
795.065552,2009
795.18457,2023
795.303589,1927
795.422668,1974
795.541687,2043
795.660767,1989
795.779846,1956
795.898865,1989
796.017883,1970
796.136963,1919
796.255981,1966
796.375061,1978
796.49408,1913
796.613037,1977
796.732117,1958
796.851135,1934
796.970154,1943
797.089233,1968
797.208191,1904
797.327271,1928
797.446228,1901
797.565186,1926
797.684265,1926
797.803223,1957
797.922241,1998
798.04126,1956
798.160278,1856
798.279297,1952
798.398315,1866
798.517273,1962
798.636292,1874
798.75531,1939
798.874268,1933
798.993286,1945
799.112244,1904
799.231323,1932
799.350281,1936
799.469238,1966
799.588257,1852
799.707153,1949
799.826111,1924
799.945129,1921
800.064087,1919
800.183044,1961
800.302063,1965
800.421021,1919
800.539978,1843
800.658936,1987
800.777893,1923
800.896912,1944
801.015747,1919
801.134705,1925
801.253723,1909
801.37262,1947
801.491638,1872
801.610535,1962
801.729492,1953
801.84845,1948
801.967407,1950
802.086243,2008
802.205261,1926
802.324158,1978
802.443115,1990
802.562073,1970
802.680969,2021
802.799927,2000
802.918762,2000
803.037659,2010
803.156677,2018
803.275574,1967
803.39447,2042
803.513428,1997
803.632263,2046
803.751221,2044
803.870117,2026
803.989014,1997
804.107971,2018
804.226746,2015
804.345642,1982
804.4646,2021
804.583496,2042
804.702393,2053
804.821228,2005
804.940125,2015
805.059021,2068
805.177917,2078
805.296814,2105
805.415649,2066
805.534546,2090
805.653442,2045
805.772278,2054
805.891113,2092
806.01001,2084
806.128906,2147
806.247742,2091
806.366577,2073
806.485413,2104
806.604309,2054
806.723145,2108
806.84198,2098
806.960876,2094
807.079712,2084
807.198486,2127
807.317383,2122
807.436218,2121
807.554993,2079
807.673889,2126
807.792725,2102
807.91156,2085
808.030396,2123
808.14917,2124
808.268005,2164
808.386841,2100
808.505676,2164
808.624451,2147
808.743286,2122
808.862122,2134
808.980896,2152
809.099731,2156
809.218506,2187
809.337341,2150
809.456116,2184
809.57489,2168
809.693726,2199
809.8125,2155
809.931274,2155
810.050049,2183
810.168884,2155
810.287659,2220
810.406372,2166
810.525269,2174
810.643982,2184
810.762756,2133
810.881531,2199
811.000305,2154
811.11908,2180
811.237854,2150
811.356567,2153
811.475403,2200
811.594116,2160
811.71283,2235
811.831604,2194
811.950378,2144
812.069153,2182
812.187927,2222
812.30658,2174
812.425415,2156
812.544128,2136
812.662781,2179
812.781616,2183
812.900269,2192
813.019043,2156
813.137756,2162
813.256531,2235
813.375244,2214
813.493896,2197
813.612671,2126
813.731384,2196
813.850037,2074
813.96875,2198
814.087524,2169
814.206238,2182
814.324951,2140
814.443604,2185
814.562256,2089
814.68103,2156
814.799683,2141
814.918335,2175
815.037109,2138
815.155762,2143
815.274475,2123
815.393188,2096
815.511841,2130
815.630554,2055
815.749146,2094
815.867859,2056
815.986572,2130
816.105164,2075
816.223877,2073
816.342529,2142
816.461182,2086
816.579895,2048
816.698486,2096
816.817139,2106
816.935791,2114
817.054504,2179
817.173096,2139
817.291748,2129
817.4104,2049
817.529053,2050
817.647644,2061
817.766235,1946
817.884949,1901
818.00354,1942
818.122192,1846
818.240845,1814
818.359436,1805
818.478088,1787
818.59668,1756
818.715271,1722
818.833923,1685
818.952515,1668
819.071106,1652
819.189758,1643
819.30835,1596
819.426941,1611
819.545532,1582
819.664124,1599
819.782715,1541
819.901306,1588
820.019897,1525
820.138489,1546
820.25708,1560
820.375671,1523
820.494202,1545
820.612732,1562
820.731384,1505
820.849915,1504
820.968506,1532
821.087097,1519
821.205627,1466
821.324158,1477
821.442749,1526
821.561279,1466
821.679871,1476
821.798401,1471
821.916931,1476
822.035461,1491
822.154053,1458
822.272583,1497
822.391174,1462
822.509583,1506
822.628174,1464
822.746704,1471
822.865234,1429
822.983765,1457
823.102295,1469
823.220825,1451
823.339294,1460
823.457825,1427
823.576355,1462
823.694824,1474
823.813354,1472
823.931885,1452
824.050354,1525
824.168884,1468
824.287354,1476
824.405823,1440
824.524353,1462
824.642822,1463
824.761353,1521
824.879822,1513
824.998291,1458
825.116699,1467
825.235291,1427
825.353699,1463
825.472168,1436
825.590637,1436
825.709106,1464
825.827576,1412
825.946045,1364
826.064453,1434
826.182983,1395
826.301392,1402
826.4198,1411
826.53833,1440
826.656738,1429
826.775208,1388
826.893677,1362
827.012024,1400
827.130493,1397
827.248962,1392
827.36731,1363
827.485779,1399
827.604248,1397
827.722595,1393
827.841064,1340
827.959412,1362
828.077942,1378
828.196289,1389
828.314636,1372
828.433105,1378
828.551514,1385
828.669861,1353
828.78833,1341
828.906677,1315
829.025085,1357
829.143433,1339
829.261841,1362
829.38031,1355
829.498657,1387
829.617004,1335
829.735413,1327
829.85376,1343
829.972107,1356
830.090515,1325
830.208862,1362
830.327209,1301
830.445557,1310
830.563904,1365
830.682312,1352
830.800659,1313
830.919006,1368
831.037354,1312
831.155701,1317
831.274048,1330
831.392395,1346
831.51062,1349
831.629028,1332
831.747314,1334
831.865662,1372
831.984009,1315
832.102356,1331
832.220642,1358
832.338928,1325
832.457275,1338
832.575623,1324
832.693909,1343
832.812134,1368
832.930481,1319
833.048828,1344
833.167114,1367
833.2854,1381
833.403687,1282
833.521973,1350
833.640259,1357
833.758545,1329
833.876831,1385
833.995056,1309
834.113281,1307
834.231628,1338
834.349915,1343
834.468201,1345
834.586426,1347
834.704651,1339
834.822998,1339
834.941162,1326
835.059448,1357
835.177673,1363
835.295959,1344
835.414246,1339
835.53241,1365
835.650635,1341
835.768921,1358
835.887146,1359
836.005371,1369
836.123596,1368
836.241821,1363
836.360046,1389
836.478271,1392
836.596497,1371
836.714722,1337
836.832886,1368
836.95105,1416
837.069336,1417
837.1875,1410
837.305725,1428
837.423889,1425
837.542053,1413
837.660339,1452
837.778503,1407
837.896667,1414
838.014832,1434
838.132996,1405
838.25116,1420
838.369385,1395
838.487488,1449
838.605713,1406
838.723877,1420
838.84198,1394
838.960205,1398
839.078308,1374
839.196472,1352
839.314636,1407
839.4328,1344
839.550964,1371
839.669067,1372
839.787231,1383
839.905396,1380
840.023499,1397
840.141602,1384
840.259766,1405
840.377869,1349
840.495972,1403
840.614136,1389
840.732239,1396
840.850342,1388
840.968445,1381
841.086548,1382
841.204651,1383
841.322754,1413
841.440918,1377
841.55896,1337
841.677002,1313
841.795166,1331
841.913208,1314
842.031311,1314
842.149353,1341
842.267456,1296
842.385498,1362
842.503601,1322
842.621643,1320
842.739746,1305
842.857788,1256
842.97583,1347
843.093933,1273
843.211975,1286
843.330017,1363
843.44812,1312
843.566101,1275
843.684204,1305
843.802246,1260
843.920227,1302
844.038269,1273
844.156311,1310
844.274292,1275
844.392395,1309
844.510376,1298
844.628357,1304
844.74646,1315
844.864441,1321
844.982422,1254
845.100403,1301
845.218384,1305
845.336426,1320
845.454468,1334
845.572449,1306
845.69043,1275
845.808411,1290
845.926453,1299
846.044373,1282
846.162354,1329
846.280396,1306
846.398315,1302
846.516296,1296
846.634216,1238
846.752197,1258
846.870178,1336
846.988098,1243
847.106079,1306
847.22406,1312
847.34198,1259
847.4599,1286
847.577881,1307
847.695801,1269
847.813782,1279
847.931641,1299
848.049561,1277
848.167603,1277
848.285461,1336
848.403381,1276
848.521362,1302
848.639221,1288
848.75708,1281
848.875,1289
848.99292,1321
849.110901,1281
849.22876,1273
849.34668,1318
849.464539,1300
849.582458,1262
849.700317,1286
849.818176,1286
849.936096,1304
850.053955,1294
850.171875,1262
850.289673,1292
850.407593,1251
850.525452,1261
850.643311,1311
850.761169,1300
850.878967,1269
850.996887,1294
851.114746,1287
851.232544,1309
851.350403,1293
851.468262,1297
851.58606,1268
851.703979,1273
851.821777,1312
851.939636,1290
852.057434,1297
852.175232,1313
852.293091,1321
852.410889,1263
852.528687,1266
852.646545,1290
852.764343,1298
852.88208,1300
852.999939,1289
853.117676,1288
853.235535,1292
853.353271,1312
853.471069,1292
853.588928,1313
853.706604,1268
853.824402,1322
853.9422,1278
854.059998,1299
854.177734,1302
854.295532,1260
854.413269,1325
854.531006,1304
854.648804,1282
854.766541,1288
854.884277,1314
855.002014,1286
855.119751,1375
855.237549,1349
855.355225,1343
855.473022,1315
855.590698,1331
855.708435,1305
855.826172,1299
855.943848,1358
856.061646,1319
856.179321,1320
856.296997,1339
856.414795,1303
856.53241,1281
856.650085,1348
856.767822,1311
856.885559,1318
857.003174,1347
857.120911,1375
857.238586,1317
857.356201,1379
857.473938,1335
857.591614,1294
857.709351,1305
857.826965,1335
857.944641,1321
858.062317,1325
858.179993,1285
858.297668,1330
858.415283,1333
858.532959,1333
858.650574,1302
858.768188,1368
858.885803,1304
859.003479,1334
859.121094,1312
859.23877,1280
859.356384,1315
859.473999,1291
859.591675,1317
859.709229,1341
859.826843,1261
859.944458,1314
860.062012,1282
860.179626,1325
860.297302,1331
860.414856,1311
860.532471,1299
860.650024,1313
860.767639,1295
860.885193,1298
861.002808,1293
861.120361,1249
861.237976,1283
861.35553,1310
861.473022,1232
861.590698,1298
861.708191,1314
861.825745,1296
861.943298,1253
862.060852,1321
862.178406,1293
862.295959,1266
862.413513,1289
862.531006,1278
862.64856,1292
862.766113,1350
862.883667,1276
863.00116,1282
863.118713,1326
863.236206,1316
863.353699,1275
863.471252,1269
863.588745,1288
863.706177,1306
863.82373,1353
863.941162,1293
864.058716,1278
864.176208,1313
864.29364,1240
864.411194,1300
864.528687,1349
864.646118,1313
864.763611,1294
864.881042,1310
864.998535,1327
865.116028,1327
865.233459,1301
865.350891,1254
865.468384,1322
865.585754,1321
865.703308,1285
865.820679,1328
865.938171,1331
866.055542,1270
866.173035,1296
866.290466,1308
866.407837,1317
866.52533,1276
866.6427,1365
866.760071,1297
866.877563,1308
866.994934,1307
867.112305,1341
867.229736,1320
867.347107,1316
867.464539,1328
867.58197,1326
867.699341,1298
867.81665,1356
867.934082,1314
868.051453,1307
868.168823,1337
868.286194,1301
868.403564,1301
868.520935,1322
868.638306,1270
868.755676,1294
868.872986,1304
868.990295,1303
869.107727,1337
869.225037,1336
869.342346,1346
869.459717,1318
869.577026,1311
869.694336,1286
869.811707,1305
869.929016,1320
870.046326,1320
870.163635,1308
870.280945,1287
870.398254,1299
870.515564,1328
870.632812,1287
870.750183,1349
870.867432,1307
870.984741,1319
871.102051,1334
871.219299,1280
871.336609,1296
871.453918,1310
871.571106,1298
871.688416,1290
871.805664,1300
871.922852,1297
872.040222,1349
872.157471,1325
872.274719,1297
872.391968,1361
872.509155,1301
872.626465,1343
872.743652,1330
872.860962,1305
872.978149,1330
873.095337,1296
873.212646,1287
873.329834,1277
873.44696,1295
873.564209,1326
873.681396,1300
873.798645,1278
873.915894,1305
874.03302,1288
874.150208,1321
874.267456,1281
874.384583,1316
874.501831,1311
874.618958,1307
874.736145,1297
874.853333,1327
874.970459,1291
875.087646,1330
875.204834,1310
875.32196,1305
875.439148,1305
875.556274,1286
875.673401,1287
875.790527,1301
875.907715,1322
876.024841,1293
876.141968,1300
876.259094,1298
876.376282,1327
876.493347,1297
876.610474,1301
876.7276,1292
876.844727,1302
876.961853,1311
877.078918,1311
877.195984,1318
877.313171,1321
877.430237,1311
877.547302,1310
877.664368,1355
877.781433,1335
877.898499,1310
878.015625,1292
878.13269,1287
878.249695,1294
878.366821,1279
878.483887,1311
878.600952,1299
878.717957,1297
878.834961,1329
878.952087,1320
879.069092,1295
879.186157,1301
879.303162,1297
879.420227,1294
879.537231,1296
879.654236,1313
879.77124,1310
879.888306,1280
880.005249,1356
880.122314,1320
880.239319,1301
880.356323,1279
880.473328,1314
880.590271,1262
880.707275,1349
880.824341,1296
880.941284,1276
881.058228,1273
881.175232,1318
881.292236,1334
881.40918,1309
881.526123,1314
881.643066,1277
881.760071,1325
881.877014,1291
881.993958,1292
882.11084,1342
882.227783,1313
882.344727,1302
882.46167,1334
882.578613,1290
882.695618,1330
882.812439,1326
882.929382,1337
883.046326,1319
883.163208,1333
883.280151,1351
883.397034,1315
883.513916,1329
883.630798,1317
883.747742,1308
883.864563,1319
883.981506,1337
884.098389,1321
884.21521,1343
884.332153,1354
884.448975,1337
884.565796,1320
884.682678,1326
884.7995,1341
884.916443,1321
885.033264,1347
885.150085,1331
885.266968,1312
885.383789,1335
885.500671,1314
885.617493,1331
885.734314,1351
885.851196,1321
885.967896,1320
886.084717,1304
886.201599,1328
886.318359,1312
886.435181,1315
886.552002,1349
886.668762,1373
886.785645,1358
886.902344,1337
887.019165,1371
887.135925,1369
887.252747,1347
887.369446,1320
887.486267,1305
887.603027,1313
887.719788,1392
887.836548,1330
887.953247,1321
888.070068,1336
888.186829,1353
888.303528,1377
888.420288,1348
888.536987,1366
888.653687,1357
888.770447,1359
888.887146,1351
889.003967,1305
889.120667,1346
889.237305,1329
889.354065,1358
889.470703,1317
889.587463,1353
889.704163,1315
889.820862,1318
889.937561,1311
890.054199,1304
890.170837,1374
890.287598,1336
890.404236,1375
890.520874,1317
890.637634,1333
890.754211,1358
890.87085,1366
890.987549,1384
891.104187,1378
891.220886,1364
891.337463,1362
891.454102,1327
891.57074,1364
891.687378,1325
891.804077,1375
891.920654,1361
892.037231,1340
892.15387,1397
892.270447,1358
892.387085,1379
892.503723,1315
892.6203,1371
892.736877,1356
892.853516,1348
892.970032,1353
893.08667,1347
893.203186,1335
893.319763,1398
893.43634,1343
893.552917,1365
893.669556,1385
893.786011,1372
893.902588,1344
894.019165,1358
894.135681,1373
894.252197,1378
894.368835,1394
894.485291,1361
894.601868,1374
894.718384,1347
894.8349,1385
894.951355,1374
895.067932,1389
895.184448,1332
895.300964,1339
895.417419,1347
895.533936,1391
895.650452,1360
895.766907,1362
895.883423,1384
895.999878,1381
896.116333,1375
896.232849,1381
896.349304,1365
896.465759,1359
896.582214,1344
896.698669,1358
896.815125,1377
896.931641,1377
897.048035,1396
897.164551,1397
897.280884,1389
897.397339,1354
897.513794,1405
897.630249,1356
897.746582,1384
897.863098,1377
897.979431,1359
898.095886,1360
898.212341,1349
898.328674,1364
898.445129,1388
898.561462,1408
898.677795,1401
898.794312,1372
898.910645,1378
899.026978,1324
899.143433,1433
899.259766,1374
899.37616,1366
899.492493,1363
899.608765,1390
899.725159,1400
899.841553,1370
899.957947,1392
900.07428,1403
900.190552,1377
900.306946,1392
900.423157,1372
900.53949,1349
900.655884,1430
900.772156,1371
900.888489,1365
901.004822,1409
901.121033,1369
901.237366,1379
901.353699,1401
901.46991,1354
901.586304,1378
901.702515,1389
901.818787,1413
901.93512,1379
902.051331,1386
902.167603,1355
902.283875,1415
902.400085,1371
902.516418,1373
902.632629,1385
902.74884,1372
902.865112,1420
902.981384,1384
903.097595,1421
903.213867,1407
903.330017,1374
903.446289,1398
903.5625,1401
903.67865,1400
903.794922,1367
903.911072,1397
904.027344,1370
904.143494,1429
904.259705,1397
904.375916,1401
904.492065,1377
904.608215,1356
904.724426,1431
904.840576,1370
904.956726,1413
905.072876,1389
905.189087,1413
905.305176,1407
905.421387,1402
905.537537,1419
905.653687,1388
905.769775,1352
905.885925,1383
906.002014,1403
906.118164,1337
906.234314,1389
906.350403,1409
906.466492,1386
906.582642,1421
906.69873,1405
906.814758,1356
906.930908,1405
907.046936,1386
907.163086,1386
907.279175,1332
907.395264,1361
907.511353,1366
907.62738,1394
907.743408,1382
907.859497,1426
907.975525,1382
908.091553,1421
908.207703,1376
908.32373,1413
908.439758,1414
908.555786,1404
908.671814,1369
908.787842,1355
908.90387,1403
909.019775,1368
909.135864,1400
909.251892,1415
909.367859,1410
909.483826,1396
909.599854,1416
909.715881,1399
909.831848,1388
909.947815,1408
910.063782,1395
910.179749,1434
910.295776,1383
910.411743,1416
910.527649,1358
910.643616,1410
910.759583,1427
910.875488,1364
910.991455,1434
911.107361,1422
911.223267,1438
911.339294,1396
911.4552,1376
911.571106,1408
911.687073,1422
911.802979,1388
911.918823,1406
912.034729,1416
912.150635,1393
912.266602,1409
912.382446,1385
912.498352,1428
912.614197,1353
912.730103,1411
912.846008,1390
792.44574,2238
792.56488,2282
792.68396,2290
792.80304,2205
792.92218,2156
793.041199,2112
793.160339,2142
793.279419,2152
793.398499,2137
793.517578,2164
793.636658,2108
793.755737,2127
793.874817,2163
793.993896,2094
794.112976,2108
794.232056,2073
794.351074,2045
794.470215,2086
794.589233,2083
794.708313,2098
794.827393,2075
794.946411,2043
795.065552,2021
795.18457,1986
795.303589,2060
795.422668,2074
795.541687,2000
795.660767,2015
795.779846,2006
795.898865,2024
796.017883,2027
796.136963,2011
796.255981,1955
796.375061,1965
796.49408,1988
796.613037,1982
796.732117,1984
796.851135,1953
796.970154,1970
797.089233,2001
797.208191,2004
797.327271,1958
797.446228,1973
797.565186,2001
797.684265,1960
797.803223,1962
797.922241,1971
798.04126,2040
798.160278,1992
798.279297,2004
798.398315,2000
798.517273,1956
798.636292,1982
798.75531,2010
798.874268,2012
798.993286,1945
799.112244,1948
799.231323,1911
799.350281,1985
799.469238,1929
799.588257,1972
799.707153,1976
799.826111,2020
799.945129,1988
800.064087,2009
800.183044,1989
800.302063,1948
800.421021,1951
800.539978,2002
800.658936,1971
800.777893,1984
800.896912,1982
801.015747,1978
801.134705,1989
801.253723,2015
801.37262,1974
801.491638,1996
801.610535,2019
801.729492,2002
801.84845,1958
801.967407,1950
802.086243,1979
802.205261,2007
802.324158,2021
802.443115,2048
802.562073,2040
802.680969,2058
802.799927,1989
802.918762,2037
803.037659,2054
803.156677,2012
803.275574,2097
803.39447,2002
803.513428,2016
803.632263,2051
803.751221,2032
803.870117,2067
803.989014,2044
804.107971,2048
804.226746,2015
804.345642,2000
804.4646,1993
804.583496,2046
804.702393,2106
804.821228,2049
804.940125,2059
805.059021,2089
805.177917,2064
805.296814,2056
805.415649,2141
805.534546,2047
805.653442,2126
805.772278,2136
805.891113,2114
806.01001,2117
806.128906,2123
806.247742,2146
806.366577,2093
806.485413,2130
806.604309,2128
806.723145,2139
806.84198,2147
806.960876,2143
807.079712,2162
807.198486,2129
807.317383,2159
807.436218,2156
807.554993,2132
807.673889,2122
807.792725,2104
807.91156,2105
808.030396,2148
808.14917,2176
808.268005,2169
808.386841,2143
808.505676,2206
808.624451,2216
808.743286,2140
808.862122,2188
808.980896,2208
809.099731,2104
809.218506,2205
809.337341,2163
809.456116,2198
809.57489,2215
809.693726,2231
809.8125,2235
809.931274,2175
810.050049,2205
810.168884,2209
810.287659,2208
810.406372,2161
810.525269,2170
810.643982,2242
810.762756,2245
810.881531,2196
811.000305,2253
811.11908,2235
811.237854,2225
811.356567,2228
811.475403,2211
811.594116,2240
811.71283,2225
811.831604,2236
811.950378,2233
812.069153,2145
812.187927,2271
812.30658,2190
812.425415,2250
812.544128,2209
812.662781,2272
812.781616,2214
812.900269,2208
813.019043,2181
813.137756,2243
813.256531,2153
813.375244,2226
813.493896,2216
813.612671,2139
813.731384,2258
813.850037,2178
813.96875,2217
814.087524,2191
814.206238,2157
814.324951,2184
814.443604,2119
814.562256,2152
814.68103,2187
814.799683,2148
814.918335,2197
815.037109,2179
815.155762,2128
815.274475,2126
815.393188,2129
815.511841,2159
815.630554,2172
815.749146,2115
815.867859,2112
815.986572,2081
816.105164,2083
816.223877,2044
816.342529,2096
816.461182,2126
816.579895,2123
816.698486,2164
816.817139,2095
816.935791,2160
817.054504,2150
817.173096,2129
817.291748,2114
817.4104,2135
817.529053,2071
817.647644,2067
817.766235,1990
817.884949,1989
818.00354,1910
818.122192,1926
818.240845,1884
818.359436,1806
818.478088,1791
818.59668,1816
818.715271,1732
818.833923,1722
818.952515,1749
819.071106,1730
819.189758,1672
819.30835,1648
819.426941,1603
819.545532,1602
819.664124,1606
819.782715,1556
819.901306,1563
820.019897,1570
820.138489,1587
820.25708,1569
820.375671,1563
820.494202,1582
820.612732,1541
820.731384,1506
820.849915,1525
820.968506,1509
821.087097,1534
821.205627,1542
821.324158,1541
821.442749,1495
821.561279,1531
821.679871,1547
821.798401,1475
821.916931,1542
822.035461,1465
822.154053,1505
822.272583,1487
822.391174,1507
822.509583,1459
822.628174,1493
822.746704,1533
822.865234,1465
822.983765,1502
823.102295,1489
823.220825,1466
823.339294,1475
823.457825,1512
823.576355,1477
823.694824,1510
823.813354,1507
823.931885,1498
824.050354,1520
824.168884,1511
824.287354,1454
824.405823,1478
824.524353,1495
824.642822,1491
824.761353,1489
824.879822,1527
824.998291,1483
825.116699,1494
825.235291,1501
825.353699,1497
825.472168,1474
825.590637,1446
825.709106,1459
825.827576,1425
825.946045,1459
826.064453,1444
826.182983,1448
826.301392,1422
826.4198,1434
826.53833,1408
826.656738,1427
826.775208,1408
826.893677,1420
827.012024,1382
827.130493,1417
827.248962,1394
827.36731,1420
827.485779,1398
827.604248,1448
827.722595,1389
827.841064,1414
827.959412,1401
828.077942,1401
828.196289,1403
828.314636,1405
828.433105,1373
828.551514,1419
828.669861,1433
828.78833,1382
828.906677,1402
829.025085,1396
829.143433,1364
829.261841,1381
829.38031,1380
829.498657,1386
829.617004,1382
829.735413,1386
829.85376,1383
829.972107,1366
830.090515,1339
830.208862,1395
830.327209,1363
830.445557,1358
830.563904,1336
830.682312,1393
830.800659,1340
830.919006,1409
831.037354,1381
831.155701,1340
831.274048,1365
831.392395,1347
831.51062,1352
831.629028,1341
831.747314,1361
831.865662,1340
831.984009,1386
832.102356,1397
832.220642,1327
832.338928,1382
832.457275,1354
832.575623,1345
832.693909,1352
832.812134,1364
832.930481,1370
833.048828,1333
833.167114,1369
833.2854,1368
833.403687,1371
833.521973,1362
833.640259,1386
833.758545,1377
833.876831,1375
833.995056,1374
834.113281,1366
834.231628,1374
834.349915,1362
834.468201,1342
834.586426,1378
834.704651,1385
834.822998,1391
834.941162,1378
835.059448,1386
835.177673,1340
835.295959,1389
835.414246,1357
835.53241,1400
835.650635,1345
835.768921,1370
835.887146,1354
836.005371,1408
836.123596,1374
836.241821,1381
836.360046,1433
836.478271,1396
836.596497,1422
836.714722,1369
836.832886,1381
836.95105,1435
837.069336,1417
837.1875,1443
837.305725,1437
837.423889,1433
837.542053,1457
837.660339,1438
837.778503,1452
837.896667,1429
838.014832,1423
838.132996,1417
838.25116,1412
838.369385,1451
838.487488,1427
838.605713,1425
838.723877,1441
838.84198,1412
838.960205,1456
839.078308,1407
839.196472,1424
839.314636,1451
839.4328,1434
839.550964,1400
839.669067,1425
839.787231,1399
839.905396,1433
840.023499,1403
840.141602,1408
840.259766,1451
840.377869,1452
840.495972,1425
840.614136,1445
840.732239,1377
840.850342,1372
840.968445,1390
841.086548,1386
841.204651,1416
841.322754,1392
841.440918,1399
841.55896,1356
841.677002,1342
841.795166,1371
841.913208,1386
842.031311,1368
842.149353,1335
842.267456,1357
842.385498,1365
842.503601,1346
842.621643,1377
842.739746,1375
842.857788,1332
842.97583,1324
843.093933,1351
843.211975,1356
843.330017,1320
843.44812,1327
843.566101,1260
843.684204,1346
843.802246,1358
843.920227,1334
844.038269,1350
844.156311,1307
844.274292,1342
844.392395,1341
844.510376,1327
844.628357,1376
844.74646,1320
844.864441,1312
844.982422,1361
845.100403,1382
845.218384,1327
845.336426,1320
845.454468,1271
845.572449,1284
845.69043,1314
845.808411,1316
845.926453,1290
846.044373,1343
846.162354,1289
846.280396,1317
846.398315,1313
846.516296,1300
846.634216,1290
846.752197,1295
846.870178,1317
846.988098,1290
847.106079,1283
847.22406,1298
847.34198,1306
847.4599,1335
847.577881,1332
847.695801,1274
847.813782,1332
847.931641,1326
848.049561,1296
848.167603,1324
848.285461,1341
848.403381,1336
848.521362,1282
848.639221,1319
848.75708,1302
848.875,1278
848.99292,1283
849.110901,1329
849.22876,1334
849.34668,1355
849.464539,1310
849.582458,1282
849.700317,1238
849.818176,1314
849.936096,1326
850.053955,1324
850.171875,1345
850.289673,1318
850.407593,1328
850.525452,1332
850.643311,1340
850.761169,1312
850.878967,1305
850.996887,1342
851.114746,1323
851.232544,1323
851.350403,1291
851.468262,1331
851.58606,1312
851.703979,1336
851.821777,1325
851.939636,1306
852.057434,1341
852.175232,1311
852.293091,1259
852.410889,1315
852.528687,1292
852.646545,1313
852.764343,1328
852.88208,1338
852.999939,1329
853.117676,1360
853.235535,1297
853.353271,1354
853.471069,1341
853.588928,1335
853.706604,1335
853.824402,1325
853.9422,1343
854.059998,1318
854.177734,1325
854.295532,1330
854.413269,1306
854.531006,1337
854.648804,1352
854.766541,1368
854.884277,1331
855.002014,1327
855.119751,1330
855.237549,1359
855.355225,1337
855.473022,1324
855.590698,1352
855.708435,1348
855.826172,1281
855.943848,1339
856.061646,1353
856.179321,1342
856.296997,1360
856.414795,1344
856.53241,1328
856.650085,1373
856.767822,1362
856.885559,1365
857.003174,1358
857.120911,1339
857.238586,1332
857.356201,1331
857.473938,1332
857.591614,1321
857.709351,1388
857.826965,1290
857.944641,1371
858.062317,1361
858.179993,1330
858.297668,1369
858.415283,1349
858.532959,1363
858.650574,1322
858.768188,1362
858.885803,1364
859.003479,1378
859.121094,1328
859.23877,1342
859.356384,1312
859.473999,1329
859.591675,1319
859.709229,1341
859.826843,1330
859.944458,1293
860.062012,1336
860.179626,1325
860.297302,1317
860.414856,1345
860.532471,1353
860.650024,1306
860.767639,1293
860.885193,1380
861.002808,1317
861.120361,1335
861.237976,1356
861.35553,1333
861.473022,1364
861.590698,1328
861.708191,1353
861.825745,1351
861.943298,1322
862.060852,1342
862.178406,1301
862.295959,1323
862.413513,1317
862.531006,1292
862.64856,1295
862.766113,1329
862.883667,1303
863.00116,1285
863.118713,1317
863.236206,1319
863.353699,1314
863.471252,1281
863.588745,1357
863.706177,1337
863.82373,1332
863.941162,1335
864.058716,1311
864.176208,1314
864.29364,1351
864.411194,1342
864.528687,1314
864.646118,1367
864.763611,1318
864.881042,1335
864.998535,1333
865.116028,1322
865.233459,1324
865.350891,1349
865.468384,1327
865.585754,1323
865.703308,1335
865.820679,1372
865.938171,1285
866.055542,1298
866.173035,1328
866.290466,1332
866.407837,1301
866.52533,1323
866.6427,1372
866.760071,1296
866.877563,1341
866.994934,1354
867.112305,1317
867.229736,1380
867.347107,1369
867.464539,1326
867.58197,1343
867.699341,1317
867.81665,1341
867.934082,1318
868.051453,1359
868.168823,1276
868.286194,1318
868.403564,1357
868.520935,1326
868.638306,1320
868.755676,1318
868.872986,1365
868.990295,1372
869.107727,1324
869.225037,1365
869.342346,1326
869.459717,1293
869.577026,1369
869.694336,1375
869.811707,1315
869.929016,1300
870.046326,1321
870.163635,1310
870.280945,1302
870.398254,1351
870.515564,1292
870.632812,1331
870.750183,1382
870.867432,1326
870.984741,1302
871.102051,1329
871.219299,1370
871.336609,1374
871.453918,1355
871.571106,1350
871.688416,1362
871.805664,1320
871.922852,1346
872.040222,1332
872.157471,1310
872.274719,1338
872.391968,1377
872.509155,1349
872.626465,1324
872.743652,1350
872.860962,1357
872.978149,1313
873.095337,1318
873.212646,1320
873.329834,1332
873.44696,1337
873.564209,1337
873.681396,1337
873.798645,1346
873.915894,1318
874.03302,1350
874.150208,1325
874.267456,1337
874.384583,1331
874.501831,1292
874.618958,1330
874.736145,1355
874.853333,1351
874.970459,1367
875.087646,1380
875.204834,1332
875.32196,1355
875.439148,1323
875.556274,1310
875.673401,1302
875.790527,1322
875.907715,1356
876.024841,1320
876.141968,1345
876.259094,1338
876.376282,1309
876.493347,1348
876.610474,1324
876.7276,1313
876.844727,1333
876.961853,1343
877.078918,1339
877.195984,1387
877.313171,1345
877.430237,1334
877.547302,1340
877.664368,1339
877.781433,1406
877.898499,1352
878.015625,1354
878.13269,1347
878.249695,1368
878.366821,1340
878.483887,1316
878.600952,1315
878.717957,1340
878.834961,1342
878.952087,1331
879.069092,1382
879.186157,1356
879.303162,1340
879.420227,1315
879.537231,1303
879.654236,1360
879.77124,1333
879.888306,1370
880.005249,1347
880.122314,1332
880.239319,1349
880.356323,1322
880.473328,1314
880.590271,1353
880.707275,1372
880.824341,1352
880.941284,1340
881.058228,1339
881.175232,1316
881.292236,1344
881.40918,1329
881.526123,1343
881.643066,1320
881.760071,1358
881.877014,1339
881.993958,1359
882.11084,1356
882.227783,1349
882.344727,1346
882.46167,1360
882.578613,1380
882.695618,1353
882.812439,1365
882.929382,1351
883.046326,1342
883.163208,1374
883.280151,1343
883.397034,1350
883.513916,1351
883.630798,1378
883.747742,1380
883.864563,1348
883.981506,1360
884.098389,1364
884.21521,1375
884.332153,1373
884.448975,1354
884.565796,1375
884.682678,1327
884.7995,1374
884.916443,1367
885.033264,1374
885.150085,1390
885.266968,1357
885.383789,1372
885.500671,1347
885.617493,1364
885.734314,1412
885.851196,1355
885.967896,1396
886.084717,1358
886.201599,1422
886.318359,1362
886.435181,1388
886.552002,1380
886.668762,1378
886.785645,1375
886.902344,1350
887.019165,1389
887.135925,1357
887.252747,1360
887.369446,1390
887.486267,1380
887.603027,1394
887.719788,1354
887.836548,1367
887.953247,1348
888.070068,1425
888.186829,1398
888.303528,1352
888.420288,1359
888.536987,1365
888.653687,1376
888.770447,1404
888.887146,1333
889.003967,1372
889.120667,1363
889.237305,1358
889.354065,1403
889.470703,1348
889.587463,1340
889.704163,1336
889.820862,1380
889.937561,1408
890.054199,1325
890.170837,1377
890.287598,1332
890.404236,1357
890.520874,1360
890.637634,1409
890.754211,1387
890.87085,1372
890.987549,1348
891.104187,1398
891.220886,1404
891.337463,1413
891.454102,1376
891.57074,1406
891.687378,1382
891.804077,1367
891.920654,1436
892.037231,1399
892.15387,1392
892.270447,1332
892.387085,1405
892.503723,1387
892.6203,1416
892.736877,1394
892.853516,1384
892.970032,1427
893.08667,1356
893.203186,1358
893.319763,1393
893.43634,1351
893.552917,1373
893.669556,1391
893.786011,1361
893.902588,1402
894.019165,1357
894.135681,1389
894.252197,1379
894.368835,1423
894.485291,1404
894.601868,1389
894.718384,1417
894.8349,1376
894.951355,1399
895.067932,1389
895.184448,1358
895.300964,1400
895.417419,1403
895.533936,1392
895.650452,1367
895.766907,1410
895.883423,1390
895.999878,1405
896.116333,1366
896.232849,1400
896.349304,1366
896.465759,1412
896.582214,1409
896.698669,1384
896.815125,1396
896.931641,1433
897.048035,1413
897.164551,1439
897.280884,1374
897.397339,1413
897.513794,1428
897.630249,1370
897.746582,1430
897.863098,1399
897.979431,1405
898.095886,1390
898.212341,1446
898.328674,1396
898.445129,1382
898.561462,1412
898.677795,1399
898.794312,1363
898.910645,1412
899.026978,1398
899.143433,1454
899.259766,1379
899.37616,1415
899.492493,1412
899.608765,1423
899.725159,1428
899.841553,1386
899.957947,1387
900.07428,1427
900.190552,1399
900.306946,1436
900.423157,1431
900.53949,1397
900.655884,1383
900.772156,1432
900.888489,1378
901.004822,1407
901.121033,1430
901.237366,1400
901.353699,1416
901.46991,1395
901.586304,1396
901.702515,1414
901.818787,1401
901.93512,1421
902.051331,1423
902.167603,1428
902.283875,1404
902.400085,1424
902.516418,1423
902.632629,1428
902.74884,1454
902.865112,1444
902.981384,1410
903.097595,1392
903.213867,1467
903.330017,1391
903.446289,1412
903.5625,1381
903.67865,1437
903.794922,1414
903.911072,1436
904.027344,1419
904.143494,1413
904.259705,1430
904.375916,1427
904.492065,1404
904.608215,1443
904.724426,1403
904.840576,1441
904.956726,1451
905.072876,1436
905.189087,1443
905.305176,1405
905.421387,1456
905.537537,1423
905.653687,1432
905.769775,1383
905.885925,1467
906.002014,1430
906.118164,1400
906.234314,1412
906.350403,1423
906.466492,1442
906.582642,1401
906.69873,1431
906.814758,1419
906.930908,1446
907.046936,1408
907.163086,1391
907.279175,1428
907.395264,1438
907.511353,1399
907.62738,1388
907.743408,1443
907.859497,1413
907.975525,1476
908.091553,1442
908.207703,1462
908.32373,1447
908.439758,1451
908.555786,1415
908.671814,1453
908.787842,1438
908.90387,1449
909.019775,1419
909.135864,1425
909.251892,1432
909.367859,1440
909.483826,1452
909.599854,1443
909.715881,1420
909.831848,1458
909.947815,1448
910.063782,1442
910.179749,1479
910.295776,1428
910.411743,1439
910.527649,1392
910.643616,1459
910.759583,1409
910.875488,1442
910.991455,1415
911.107361,1478
911.223267,1425
911.339294,1486
911.4552,1436
911.571106,1385
911.687073,1463
911.802979,1438
911.918823,1462
912.034729,1426
912.150635,1436
912.266602,1390
912.382446,1409
912.498352,1405
912.614197,1399
912.730103,1445
912.846008,1462
792.44574,2245
792.56488,2265
792.68396,2255
792.80304,2209
792.92218,2188
793.041199,2120
793.160339,2114
793.279419,2179
793.398499,2205
793.517578,2139
793.636658,2160
793.755737,2133
793.874817,2182
793.993896,2108
794.112976,2136
794.232056,2078
794.351074,2056
794.470215,2079
794.589233,2035
794.708313,2024
794.827393,2020
794.946411,2046
795.065552,2060
795.18457,2068
795.303589,2042
795.422668,2033
795.541687,2064
795.660767,2022
795.779846,2016
795.898865,2001
796.017883,2018
796.136963,1992
796.255981,1977
796.375061,2013
796.49408,2020
796.613037,2007
796.732117,2051
796.851135,2029
796.970154,2013
797.089233,2012
797.208191,2043
797.327271,1960
797.446228,1998
797.565186,1983
797.684265,1983
797.803223,1961
797.922241,1995
798.04126,1967
798.160278,1953
798.279297,2024
798.398315,1974
798.517273,1996
798.636292,1976
798.75531,1992
798.874268,1963
798.993286,1966
799.112244,1996
799.231323,1970
799.350281,1983
799.469238,1957
799.588257,1951
799.707153,1932
799.826111,2007
799.945129,1953
800.064087,1996
800.183044,1979
800.302063,1922
800.421021,1996
800.539978,2037
800.658936,1972
800.777893,1959
800.896912,1946
801.015747,2000
801.134705,1944
801.253723,1972
801.37262,2022
801.491638,2046
801.610535,1971
801.729492,1963
801.84845,1967
801.967407,2028
802.086243,2036
802.205261,2042
802.324158,2043
802.443115,2040
802.562073,2048
802.680969,2030
802.799927,2030
802.918762,2000
803.037659,2050
803.156677,2045
803.275574,2090
803.39447,2086
803.513428,2083
803.632263,2073
803.751221,2072
803.870117,2063
803.989014,2024
804.107971,2069
804.226746,2072
804.345642,2053
804.4646,2118
804.583496,2035
804.702393,2067
804.821228,2097
804.940125,2147
805.059021,2032
805.177917,2108
805.296814,2101
805.415649,2129
805.534546,2113
805.653442,2150
805.772278,2095
805.891113,2159
806.01001,2115
806.128906,2133
806.247742,2118
806.366577,2151
806.485413,2121
806.604309,2127
806.723145,2138
806.84198,2126
806.960876,2127
807.079712,2104
807.198486,2163
807.317383,2123
807.436218,2159
807.554993,2149
807.673889,2131
807.792725,2184
807.91156,2214
808.030396,2146
808.14917,2133
808.268005,2176
808.386841,2168
808.505676,2195
808.624451,2213
808.743286,2206
808.862122,2211
808.980896,2175
809.099731,2201
809.218506,2149
809.337341,2191
809.456116,2225
809.57489,2239
809.693726,2122
809.8125,2187
809.931274,2199
810.050049,2168
810.168884,2217
810.287659,2179
810.406372,2214
810.525269,2163
810.643982,2214
810.762756,2229
810.881531,2244
811.000305,2182
811.11908,2192
811.237854,2245
811.356567,2181
811.475403,2236
811.594116,2205
811.71283,2226
811.831604,2180
811.950378,2188
812.069153,2256
812.187927,2225
812.30658,2253
812.425415,2215
812.544128,2231
812.662781,2208
812.781616,2219
812.900269,2216
813.019043,2240
813.137756,2220
813.256531,2199
813.375244,2208
813.493896,2155
813.612671,2231
813.731384,2214
813.850037,2228
813.96875,2229
814.087524,2212
814.206238,2149
814.324951,2234
814.443604,2259
814.562256,2163
814.68103,2228
814.799683,2196
814.918335,2170
815.037109,2163
815.155762,2198
815.274475,2191
815.393188,2228
815.511841,2124
815.630554,2193
815.749146,2109
815.867859,2108
815.986572,2118
816.105164,2135
816.223877,2115
816.342529,2124
816.461182,2154
816.579895,2135
816.698486,2179
816.817139,2094
816.935791,2183
817.054504,2183
817.173096,2070
817.291748,2135
817.4104,2115
817.529053,2096
817.647644,2055
817.766235,2029
817.884949,1992
818.00354,1967
818.122192,1874
818.240845,1892
818.359436,1852
818.478088,1812
818.59668,1765
818.715271,1723
818.833923,1738
818.952515,1697
819.071106,1676
819.189758,1655
819.30835,1644
819.426941,1667
819.545532,1653
819.664124,1629
819.782715,1639
819.901306,1551
820.019897,1579
820.138489,1617
820.25708,1592
820.375671,1572
820.494202,1553
820.612732,1572
820.731384,1589
820.849915,1552
820.968506,1566
821.087097,1535
821.205627,1521
821.324158,1533
821.442749,1538
821.561279,1525
821.679871,1527
821.798401,1516
821.916931,1519
822.035461,1545
822.154053,1496
822.272583,1425
822.391174,1474
822.509583,1476
822.628174,1452
822.746704,1463
822.865234,1476
822.983765,1486
823.102295,1507
823.220825,1469
823.339294,1491
823.457825,1486
823.576355,1487
823.694824,1489
823.813354,1492
823.931885,1499
824.050354,1501
824.168884,1524
824.287354,1486
824.405823,1499
824.524353,1535
824.642822,1514
824.761353,1531
824.879822,1486
824.998291,1470
825.116699,1525
825.235291,1501
825.353699,1549
825.472168,1436
825.590637,1489
825.709106,1451
825.827576,1455
825.946045,1418
826.064453,1488
826.182983,1391
826.301392,1482
826.4198,1440
826.53833,1407
826.656738,1479
826.775208,1394
826.893677,1423
827.012024,1414
827.130493,1423
827.248962,1437
827.36731,1439
827.485779,1426
827.604248,1395
827.722595,1409
827.841064,1386
827.959412,1361
828.077942,1410
828.196289,1368
828.314636,1368
828.433105,1394
828.551514,1383
828.669861,1421
828.78833,1367
828.906677,1393
829.025085,1374
829.143433,1404
829.261841,1349
829.38031,1390
829.498657,1425
829.617004,1377
829.735413,1342
829.85376,1335
829.972107,1370
830.090515,1343
830.208862,1396
830.327209,1378
830.445557,1365
830.563904,1357
830.682312,1397
830.800659,1375
830.919006,1389
831.037354,1349
831.155701,1369
831.274048,1379
831.392395,1356
831.51062,1377
831.629028,1384
831.747314,1397
831.865662,1343
831.984009,1362
832.102356,1342
832.220642,1352
832.338928,1378
832.457275,1399
832.575623,1386
832.693909,1315
832.812134,1400
832.930481,1380
833.048828,1362
833.167114,1351
833.2854,1379
833.403687,1429
833.521973,1321
833.640259,1349
833.758545,1368
833.876831,1362
833.995056,1349
834.113281,1375
834.231628,1372
834.349915,1350
834.468201,1397
834.586426,1353
834.704651,1380
834.822998,1376
834.941162,1376
835.059448,1388
835.177673,1362
835.295959,1376
835.414246,1386
835.53241,1417
835.650635,1403
835.768921,1369
835.887146,1344
836.005371,1391
836.123596,1366
836.241821,1398
836.360046,1426
836.478271,1418
836.596497,1426
836.714722,1410
836.832886,1409
836.95105,1434
837.069336,1470
837.1875,1424
837.305725,1458
837.423889,1430
837.542053,1473
837.660339,1474
837.778503,1482
837.896667,1487
838.014832,1408
838.132996,1444
838.25116,1452
838.369385,1422
838.487488,1476
838.605713,1458
838.723877,1410
838.84198,1424
838.960205,1369
839.078308,1420
839.196472,1445
839.314636,1410
839.4328,1429
839.550964,1407
839.669067,1496
839.787231,1387
839.905396,1412
840.023499,1404
840.141602,1430
840.259766,1440
840.377869,1419
840.495972,1398
840.614136,1385
840.732239,1433
840.850342,1369
840.968445,1377
841.086548,1396
841.204651,1405
841.322754,1379
841.440918,1399
841.55896,1411
841.677002,1346
841.795166,1347
841.913208,1362
842.031311,1408
842.149353,1381
842.267456,1356
842.385498,1325
842.503601,1363
842.621643,1310
842.739746,1310
842.857788,1332
842.97583,1336
843.093933,1364
843.211975,1347
843.330017,1326
843.44812,1363
843.566101,1330
843.684204,1357
843.802246,1305
843.920227,1322
844.038269,1306
844.156311,1306
844.274292,1353
844.392395,1304
844.510376,1315
844.628357,1317
844.74646,1349
844.864441,1350
844.982422,1333
845.100403,1369
845.218384,1342
845.336426,1332
845.454468,1322
845.572449,1330
845.69043,1337
845.808411,1353
845.926453,1320
846.044373,1341
846.162354,1311
846.280396,1308
846.398315,1337
846.516296,1350
846.634216,1306
846.752197,1333
846.870178,1342
846.988098,1318
847.106079,1352
847.22406,1314
847.34198,1330
847.4599,1330
847.577881,1323
847.695801,1308
847.813782,1309
847.931641,1318
848.049561,1339
848.167603,1278
848.285461,1281
848.403381,1291
848.521362,1354
848.639221,1346
848.75708,1328
848.875,1319
848.99292,1325
849.110901,1281
849.22876,1369
849.34668,1335
849.464539,1289
849.582458,1304
849.700317,1350
849.818176,1312
849.936096,1347
850.053955,1319
850.171875,1321
850.289673,1295
850.407593,1282
850.525452,1337
850.643311,1301
850.761169,1310
850.878967,1313
850.996887,1336
851.114746,1299
851.232544,1298
851.350403,1300
851.468262,1301
851.58606,1347
851.703979,1276
851.821777,1353
851.939636,1335
852.057434,1357
852.175232,1316
852.293091,1324
852.410889,1378
852.528687,1301
852.646545,1347
852.764343,1350
852.88208,1348
852.999939,1282
853.117676,1302
853.235535,1329
853.353271,1337
853.471069,1317
853.588928,1343
853.706604,1323
853.824402,1337
853.9422,1347
854.059998,1338
854.177734,1354
854.295532,1320
854.413269,1330
854.531006,1331
854.648804,1327
854.766541,1343
854.884277,1317
855.002014,1346
855.119751,1350
855.237549,1342
855.355225,1358
855.473022,1368
855.590698,1336
855.708435,1365
855.826172,1350
855.943848,1369
856.061646,1323
856.179321,1324
856.296997,1333
856.414795,1356
856.53241,1370
856.650085,1368
856.767822,1382
856.885559,1406
857.003174,1334
857.120911,1377
857.238586,1380
857.356201,1353
857.473938,1308
857.591614,1369
857.709351,1363
857.826965,1346
857.944641,1359
858.062317,1340
858.179993,1320
858.297668,1339
858.415283,1337
858.532959,1369
858.650574,1314
858.768188,1370
858.885803,1308
859.003479,1352
859.121094,1355
859.23877,1359
859.356384,1322
859.473999,1325
859.591675,1356
859.709229,1355
859.826843,1318
859.944458,1347
860.062012,1337
860.179626,1386
860.297302,1292
860.414856,1321
860.532471,1309
860.650024,1340
860.767639,1306
860.885193,1349
861.002808,1321
861.120361,1328
861.237976,1328
861.35553,1337
861.473022,1355
861.590698,1315
861.708191,1306
861.825745,1322
861.943298,1314
862.060852,1373
862.178406,1359
862.295959,1372
862.413513,1348
862.531006,1321
862.64856,1335
862.766113,1317
862.883667,1353
863.00116,1370
863.118713,1301
863.236206,1371
863.353699,1339
863.471252,1354
863.588745,1342
863.706177,1329
863.82373,1339
863.941162,1310
864.058716,1374
864.176208,1332
864.29364,1360
864.411194,1369
864.528687,1340
864.646118,1331
864.763611,1341
864.881042,1319
864.998535,1339
865.116028,1362
865.233459,1294
865.350891,1367
865.468384,1354
865.585754,1335
865.703308,1332
865.820679,1386
865.938171,1370
866.055542,1347
866.173035,1322
866.290466,1330
866.407837,1315
866.52533,1302
866.6427,1365
866.760071,1347
866.877563,1353
866.994934,1338
867.112305,1339
867.229736,1369
867.347107,1350
867.464539,1302
867.58197,1350
867.699341,1336
867.81665,1348
867.934082,1350
868.051453,1319
868.168823,1328
868.286194,1324
868.403564,1313
868.520935,1318
868.638306,1348
868.755676,1344
868.872986,1336
868.990295,1348
869.107727,1372
869.225037,1375
869.342346,1374
869.459717,1388
869.577026,1337
869.694336,1365
869.811707,1363
869.929016,1331
870.046326,1366
870.163635,1385
870.280945,1338
870.398254,1364
870.515564,1310
870.632812,1315
870.750183,1369
870.867432,1389
870.984741,1375
871.102051,1362
871.219299,1359
871.336609,1374
871.453918,1353
871.571106,1324
871.688416,1316
871.805664,1316
871.922852,1337
872.040222,1325
872.157471,1343
872.274719,1312
872.391968,1336
872.509155,1332
872.626465,1340
872.743652,1313
872.860962,1360
872.978149,1363
873.095337,1289
873.212646,1363
873.329834,1338
873.44696,1357
873.564209,1343
873.681396,1333
873.798645,1325
873.915894,1303
874.03302,1303
874.150208,1302
874.267456,1355
874.384583,1327
874.501831,1332
874.618958,1359
874.736145,1354
874.853333,1343
874.970459,1348
875.087646,1347
875.204834,1332
875.32196,1362
875.439148,1333
875.556274,1344
875.673401,1331
875.790527,1303
875.907715,1354
876.024841,1357
876.141968,1336
876.259094,1336
876.376282,1345
876.493347,1334
876.610474,1296
876.7276,1381
876.844727,1372
876.961853,1376
877.078918,1375
877.195984,1375
877.313171,1329
877.430237,1365
877.547302,1335
877.664368,1385
877.781433,1340
877.898499,1351
878.015625,1356
878.13269,1345
878.249695,1344
878.366821,1344
878.483887,1354
878.600952,1337
878.717957,1337
878.834961,1348
878.952087,1334
879.069092,1332
879.186157,1338
879.303162,1316
879.420227,1324
879.537231,1337
879.654236,1325
879.77124,1359
879.888306,1345
880.005249,1365
880.122314,1354
880.239319,1335
880.356323,1359
880.473328,1339
880.590271,1387
880.707275,1377
880.824341,1360
880.941284,1397
881.058228,1329
881.175232,1399
881.292236,1369
881.40918,1331
881.526123,1331
881.643066,1367
881.760071,1311
881.877014,1371
881.993958,1369
882.11084,1372
882.227783,1327
882.344727,1360
882.46167,1321
882.578613,1341
882.695618,1348
882.812439,1358
882.929382,1379
883.046326,1329
883.163208,1368
883.280151,1373
883.397034,1339
883.513916,1394
883.630798,1334
883.747742,1431
883.864563,1346
883.981506,1377
884.098389,1360
884.21521,1326
884.332153,1342
884.448975,1341
884.565796,1394
884.682678,1325
884.7995,1398
884.916443,1322
885.033264,1366
885.150085,1329
885.266968,1385
885.383789,1377
885.500671,1362
885.617493,1411
885.734314,1351
885.851196,1349
885.967896,1365
886.084717,1416
886.201599,1353
886.318359,1420
886.435181,1443
886.552002,1379
886.668762,1382
886.785645,1374
886.902344,1435
887.019165,1362
887.135925,1404
887.252747,1351
887.369446,1387
887.486267,1403
887.603027,1382
887.719788,1404
887.836548,1403
887.953247,1393
888.070068,1380
888.186829,1426
888.303528,1363
888.420288,1399
888.536987,1377
888.653687,1404
888.770447,1379
888.887146,1350
889.003967,1391
889.120667,1389
889.237305,1406
889.354065,1372
889.470703,1408
889.587463,1398
889.704163,1377
889.820862,1406
889.937561,1409
890.054199,1394
890.170837,1401
890.287598,1383
890.404236,1387
890.520874,1412
890.637634,1383
890.754211,1383
890.87085,1394
890.987549,1421
891.104187,1422
891.220886,1407
891.337463,1360
891.454102,1387
891.57074,1431
891.687378,1389
891.804077,1429
891.920654,1391
892.037231,1375
892.15387,1386
892.270447,1415
892.387085,1409
892.503723,1391
892.6203,1399
892.736877,1399
892.853516,1395
892.970032,1412
893.08667,1372
893.203186,1419
893.319763,1407
893.43634,1361
893.552917,1414
893.669556,1380
893.786011,1439
893.902588,1383
894.019165,1437
894.135681,1365
894.252197,1426
894.368835,1350
894.485291,1414
894.601868,1406
894.718384,1420
894.8349,1433
894.951355,1372
895.067932,1413
895.184448,1398
895.300964,1422
895.417419,1409
895.533936,1417
895.650452,1417
895.766907,1458
895.883423,1433
895.999878,1407
896.116333,1361
896.232849,1427
896.349304,1380
896.465759,1426
896.582214,1389
896.698669,1396
896.815125,1411
896.931641,1398
897.048035,1369
897.164551,1405
897.280884,1400
897.397339,1459
897.513794,1392
897.630249,1411
897.746582,1404
897.863098,1412
897.979431,1410
898.095886,1426
898.212341,1407
898.328674,1454
898.445129,1399
898.561462,1461
898.677795,1397
898.794312,1401
898.910645,1398
899.026978,1426
899.143433,1459
899.259766,1435
899.37616,1404
899.492493,1414
899.608765,1388
899.725159,1439
899.841553,1446
899.957947,1424
900.07428,1480
900.190552,1440
900.306946,1405
900.423157,1449
900.53949,1453
900.655884,1411
900.772156,1410
900.888489,1445
901.004822,1409
901.121033,1409
901.237366,1387
901.353699,1470
901.46991,1421
901.586304,1401
901.702515,1420
901.818787,1422
901.93512,1418
902.051331,1443
902.167603,1455
902.283875,1473
902.400085,1400
902.516418,1470
902.632629,1445
902.74884,1451
902.865112,1433
902.981384,1389
903.097595,1419
903.213867,1426
903.330017,1438
903.446289,1460
903.5625,1419
903.67865,1502
903.794922,1436
903.911072,1430
904.027344,1463
904.143494,1444
904.259705,1436
904.375916,1451
904.492065,1438
904.608215,1377
904.724426,1426
904.840576,1435
904.956726,1436
905.072876,1462
905.189087,1436
905.305176,1493
905.421387,1443
905.537537,1397
905.653687,1464
905.769775,1429
905.885925,1469
906.002014,1435
906.118164,1390
906.234314,1446
906.350403,1440
906.466492,1439
906.582642,1418
906.69873,1410
906.814758,1444
906.930908,1492
907.046936,1415
907.163086,1442
907.279175,1425
907.395264,1434
907.511353,1444
907.62738,1463
907.743408,1426
907.859497,1445
907.975525,1448
908.091553,1475
908.207703,1439
908.32373,1487
908.439758,1442
908.555786,1440
908.671814,1463
908.787842,1427
908.90387,1415
909.019775,1438
909.135864,1451
909.251892,1505
909.367859,1459
909.483826,1441
909.599854,1477
909.715881,1444
909.831848,1461
909.947815,1493
910.063782,1405
910.179749,1465
910.295776,1429
910.411743,1476
910.527649,1419
910.643616,1439
910.759583,1476
910.875488,1445
910.991455,1434
911.107361,1477
911.223267,1443
911.339294,1462
911.4552,1461
911.571106,1506
911.687073,1455
911.802979,1457
911.918823,1458
912.034729,1463
912.150635,1504
912.266602,1490
912.382446,1475
912.498352,1416
912.614197,1471
912.730103,1463
912.846008,1434
