792.44574,2226
792.56488,2225
792.68396,2256
792.80304,2171
792.92218,2094
793.041199,2089
793.160339,2085
793.279419,2146
793.398499,2127
793.517578,2119
793.636658,2059
793.755737,2089
793.874817,2048
793.993896,2059
794.112976,2029
794.232056,2047
794.351074,2038
794.470215,2090
794.589233,2008
794.708313,2006
794.827393,2015
794.946411,1988
795.065552,2002
795.18457,1954
795.303589,2007
795.422668,2000
795.541687,2007
795.660767,1985
795.779846,1951
795.898865,2018
796.017883,1971
796.136963,1938
796.255981,1982
796.375061,1964
796.49408,1964
796.613037,1938
796.732117,1933
796.851135,1924
796.970154,1941
797.089233,1935
797.208191,1911
797.327271,1898
797.446228,1906
797.565186,1918
797.684265,1960
797.803223,1898
797.922241,1911
798.04126,1929
798.160278,1892
798.279297,1932
798.398315,1939
798.517273,1919
798.636292,1927
798.75531,1966
798.874268,1916
798.993286,1950
799.112244,1908
799.231323,1947
799.350281,1913
799.469238,1929
799.588257,1912
799.707153,1935
799.826111,1909
799.945129,1986
800.064087,1965
800.183044,1935
800.302063,1858
800.421021,1979
800.539978,1957
800.658936,1934
800.777893,1947
800.896912,1881
801.015747,1954
801.134705,1921
801.253723,1896
801.37262,1938
801.491638,1901
801.610535,1938
801.729492,1954
801.84845,1934
801.967407,1977
802.086243,1958
802.205261,1970
802.324158,1972
802.443115,1979
802.562073,1998
802.680969,1996
802.799927,2013
802.918762,2017
803.037659,1998
803.156677,2012
803.275574,1987
803.39447,1989
803.513428,1988
803.632263,2007
803.751221,1985
803.870117,2028
803.989014,1960
804.107971,2027
804.226746,2030
804.345642,2031
804.4646,2019
804.583496,2073
804.702393,2037
804.821228,2021
804.940125,2039
805.059021,2012
805.177917,2048
805.296814,2029
805.415649,2090
805.534546,2098
805.653442,2101
805.772278,2105
805.891113,2037
806.01001,2066
806.128906,2094
806.247742,2051
806.366577,2081
806.485413,2090
806.604309,2102
806.723145,2058
806.84198,2073
806.960876,2077
807.079712,2104
807.198486,2138
807.317383,2113
807.436218,2085
807.554993,2121
807.673889,2050
807.792725,2119
807.91156,2069
808.030396,2146
808.14917,2137
808.268005,2134
808.386841,2099
808.505676,2174
808.624451,2126
808.743286,2135
808.862122,2107
808.980896,2194
809.099731,2162
809.218506,2174
809.337341,2188
809.456116,2173
809.57489,2112
809.693726,2119
809.8125,2156
809.931274,2196
810.050049,2186
810.168884,2206
810.287659,2144
810.406372,2170
810.525269,2163
810.643982,2191
810.762756,2192
810.881531,2153
811.000305,2139
811.11908,2172
811.237854,2171
811.356567,2185
811.475403,2191
811.594116,2207
811.71283,2213
811.831604,2152
811.950378,2196
812.069153,2231
812.187927,2190
812.30658,2149
812.425415,2204
812.544128,2132
812.662781,2187
812.781616,2213
812.900269,2183
813.019043,2216
813.137756,2131
813.256531,2179
813.375244,2144
813.493896,2181
813.612671,2200
813.731384,2188
813.850037,2106
813.96875,2189
814.087524,2163
814.206238,2183
814.324951,2161
814.443604,2127
814.562256,2145
814.68103,2120
814.799683,2128
814.918335,2161
815.037109,2119
815.155762,2128
815.274475,2132
815.393188,2118
815.511841,2096
815.630554,2087
815.749146,2122
815.867859,2061
815.986572,2125
816.105164,2062
816.223877,2100
816.342529,2062
816.461182,2063
816.579895,2118
816.698486,2102
816.817139,2100
816.935791,2099
817.054504,2176
817.173096,2073
817.291748,2092
817.4104,2085
817.529053,2074
817.647644,2001
817.766235,1954
817.884949,1939
818.00354,1941
818.122192,1884
818.240845,1868
818.359436,1841
818.478088,1786
818.59668,1740
818.715271,1677
818.833923,1666
818.952515,1657
819.071106,1623
819.189758,1607
819.30835,1619
819.426941,1590
819.545532,1611
819.664124,1588
819.782715,1569
819.901306,1541
820.019897,1485
820.138489,1512
820.25708,1563
820.375671,1528
820.494202,1504
820.612732,1501
820.731384,1476
820.849915,1504
820.968506,1430
821.087097,1524
821.205627,1494
821.324158,1484
821.442749,1456
821.561279,1459
821.679871,1460
821.798401,1481
821.916931,1433
822.035461,1443
822.154053,1469
822.272583,1429
822.391174,1453
822.509583,1443
822.628174,1449
822.746704,1444
822.865234,1441
822.983765,1417
823.102295,1397
823.220825,1431
823.339294,1407
823.457825,1424
823.576355,1439
823.694824,1449
823.813354,1454
823.931885,1474
824.050354,1408
824.168884,1456
824.287354,1456
824.405823,1482
824.524353,1484
824.642822,1471
824.761353,1465
824.879822,1455
824.998291,1436
825.116699,1452
825.235291,1417
825.353699,1470
825.472168,1467
825.590637,1353
825.709106,1446
825.827576,1429
825.946045,1399
826.064453,1384
826.182983,1428
826.301392,1419
826.4198,1387
826.53833,1376
826.656738,1371
826.775208,1377
826.893677,1355
827.012024,1339
827.130493,1341
827.248962,1377
827.36731,1350
827.485779,1386
827.604248,1343
827.722595,1365
827.841064,1327
827.959412,1372
828.077942,1331
828.196289,1330
828.314636,1347
828.433105,1345
828.551514,1373
828.669861,1330
828.78833,1336
828.906677,1303
829.025085,1337
829.143433,1292
829.261841,1320
829.38031,1337
829.498657,1345
829.617004,1314
829.735413,1322
829.85376,1337
829.972107,1311
830.090515,1346
830.208862,1324
830.327209,1322
830.445557,1308
830.563904,1335
830.682312,1328
830.800659,1342
830.919006,1319
831.037354,1320
831.155701,1318
831.274048,1307
831.392395,1311
831.51062,1360
831.629028,1298
831.747314,1319
831.865662,1313
831.984009,1318
832.102356,1320
832.220642,1285
832.338928,1328
832.457275,1315
832.575623,1336
832.693909,1338
832.812134,1319
832.930481,1295
833.048828,1291
833.167114,1339
833.2854,1319
833.403687,1354
833.521973,1307
833.640259,1314
833.758545,1317
833.876831,1328
833.995056,1346
834.113281,1302
834.231628,1352
834.349915,1306
834.468201,1343
834.586426,1310
834.704651,1351
834.822998,1336
834.941162,1273
835.059448,1324
835.177673,1335
835.295959,1348
835.414246,1328
835.53241,1336
835.650635,1310
835.768921,1305
835.887146,1306
836.005371,1332
836.123596,1342
836.241821,1349
836.360046,1335
836.478271,1348
836.596497,1386
836.714722,1360
836.832886,1349
836.95105,1365
837.069336,1350
837.1875,1401
837.305725,1365
837.423889,1456
837.542053,1414
837.660339,1400
837.778503,1380
837.896667,1365
838.014832,1401
838.132996,1403
838.25116,1385
838.369385,1448
838.487488,1363
838.605713,1413
838.723877,1379
838.84198,1400
838.960205,1406
839.078308,1431
839.196472,1402
839.314636,1379
839.4328,1357
839.550964,1391
839.669067,1344
839.787231,1384
839.905396,1380
840.023499,1374
840.141602,1381
840.259766,1360
840.377869,1333
840.495972,1403
840.614136,1390
840.732239,1399
840.850342,1381
840.968445,1380
841.086548,1358
841.204651,1361
841.322754,1384
841.440918,1359
841.55896,1327
841.677002,1316
841.795166,1344
841.913208,1326
842.031311,1291
842.149353,1353
842.267456,1293
842.385498,1328
842.503601,1358
842.621643,1296
842.739746,1284
842.857788,1296
842.97583,1273
843.093933,1313
843.211975,1296
843.330017,1291
843.44812,1299
843.566101,1282
843.684204,1246
843.802246,1270
843.920227,1293
844.038269,1328
844.156311,1299
844.274292,1296
844.392395,1264
844.510376,1333
844.628357,1301
844.74646,1275
844.864441,1256
844.982422,1279
845.100403,1278
845.218384,1259
845.336426,1269
845.454468,1303
845.572449,1248
845.69043,1291
845.808411,1266
845.926453,1256
846.044373,1315
846.162354,1283
846.280396,1284
846.398315,1267
846.516296,1297
846.634216,1293
846.752197,1271
846.870178,1298
846.988098,1290
847.106079,1282
847.22406,1257
847.34198,1269
847.4599,1246
847.577881,1260
847.695801,1257
847.813782,1264
847.931641,1240
848.049561,1298
848.167603,1253
848.285461,1271
848.403381,1262
848.521362,1295
848.639221,1277
848.75708,1266
848.875,1303
848.99292,1249
849.110901,1253
849.22876,1292
849.34668,1252
849.464539,1240
849.582458,1307
849.700317,1262
849.818176,1276
849.936096,1286
850.053955,1278
850.171875,1247
850.289673,1288
850.407593,1270
850.525452,1252
850.643311,1298
850.761169,1295
850.878967,1270
850.996887,1271
851.114746,1258
851.232544,1222
851.350403,1256
851.468262,1276
851.58606,1278
851.703979,1259
851.821777,1252
851.939636,1271
852.057434,1242
852.175232,1308
852.293091,1270
852.410889,1286
852.528687,1322
852.646545,1286
852.764343,1302
852.88208,1281
852.999939,1293
853.117676,1294
853.235535,1281
853.353271,1267
853.471069,1313
853.588928,1285
853.706604,1283
853.824402,1313
853.9422,1263
854.059998,1265
854.177734,1282
854.295532,1309
854.413269,1279
854.531006,1274
854.648804,1320
854.766541,1303
854.884277,1307
855.002014,1329
855.119751,1282
855.237549,1262
855.355225,1313
855.473022,1302
855.590698,1357
855.708435,1349
855.826172,1351
855.943848,1333
856.061646,1323
856.179321,1298
856.296997,1307
856.414795,1332
856.53241,1319
856.650085,1332
856.767822,1324
856.885559,1328
857.003174,1312
857.120911,1355
857.238586,1284
857.356201,1323
857.473938,1356
857.591614,1263
857.709351,1323
857.826965,1286
857.944641,1352
858.062317,1298
858.179993,1319
858.297668,1328
858.415283,1322
858.532959,1271
858.650574,1304
858.768188,1274
858.885803,1339
859.003479,1315
859.121094,1304
859.23877,1310
859.356384,1298
859.473999,1336
859.591675,1334
859.709229,1357
859.826843,1299
859.944458,1327
860.062012,1268
860.179626,1290
860.297302,1271
860.414856,1289
860.532471,1302
860.650024,1294
860.767639,1257
860.885193,1322
861.002808,1317
861.120361,1274
861.237976,1285
861.35553,1245
861.473022,1289
861.590698,1276
861.708191,1258
861.825745,1285
861.943298,1276
862.060852,1305
862.178406,1262
862.295959,1248
862.413513,1292
862.531006,1242
862.64856,1285
862.766113,1279
862.883667,1303
863.00116,1309
863.118713,1317
863.236206,1324
863.353699,1289
863.471252,1317
863.588745,1283
863.706177,1300
863.82373,1274
863.941162,1319
864.058716,1322
864.176208,1262
864.29364,1247
864.411194,1284
864.528687,1291
864.646118,1297
864.763611,1277
864.881042,1316
864.998535,1263
865.116028,1323
865.233459,1302
865.350891,1318
865.468384,1278
865.585754,1284
865.703308,1299
865.820679,1298
865.938171,1286
866.055542,1297
866.173035,1303
866.290466,1295
866.407837,1292
866.52533,1298
866.6427,1262
866.760071,1350
866.877563,1303
866.994934,1294
867.112305,1291
867.229736,1302
867.347107,1291
867.464539,1292
867.58197,1316
867.699341,1302
867.81665,1315
867.934082,1319
868.051453,1299
868.168823,1282
868.286194,1300
868.403564,1277
868.520935,1260
868.638306,1289
868.755676,1318
868.872986,1323
868.990295,1293
869.107727,1326
869.225037,1305
869.342346,1325
869.459717,1315
869.577026,1310
869.694336,1320
869.811707,1290
869.929016,1291
870.046326,1319
870.163635,1267
870.280945,1277
870.398254,1259
870.515564,1319
870.632812,1288
870.750183,1323
870.867432,1315
870.984741,1273
871.102051,1305
871.219299,1305
871.336609,1317
871.453918,1287
871.571106,1321
871.688416,1315
871.805664,1285
871.922852,1312
872.040222,1311
872.157471,1331
872.274719,1303
872.391968,1295
872.509155,1315
872.626465,1307
872.743652,1344
872.860962,1292
872.978149,1300
873.095337,1348
873.212646,1310
873.329834,1323
873.44696,1337
873.564209,1259
873.681396,1320
873.798645,1300
873.915894,1304
874.03302,1296
874.150208,1299
874.267456,1280
874.384583,1310
874.501831,1304
874.618958,1281
874.736145,1298
874.853333,1268
874.970459,1335
875.087646,1293
875.204834,1302
875.32196,1285
875.439148,1256
875.556274,1304
875.673401,1318
875.790527,1298
875.907715,1313
876.024841,1268
876.141968,1355
876.259094,1295
876.376282,1317
876.493347,1290
876.610474,1291
876.7276,1297
876.844727,1294
876.961853,1325
877.078918,1314
877.195984,1341
877.313171,1308
877.430237,1292
877.547302,1319
877.664368,1284
877.781433,1322
877.898499,1276
878.015625,1324
878.13269,1306
878.249695,1299
878.366821,1343
878.483887,1292
878.600952,1279
878.717957,1303
878.834961,1343
878.952087,1333
879.069092,1334
879.186157,1281
879.303162,1315
879.420227,1307
879.537231,1320
879.654236,1298
879.77124,1286
879.888306,1308
880.005249,1297
880.122314,1338
880.239319,1325
880.356323,1247
880.473328,1302
880.590271,1312
880.707275,1323
880.824341,1307
880.941284,1305
881.058228,1308
881.175232,1325
881.292236,1300
881.40918,1279
881.526123,1327
881.643066,1297
881.760071,1323
881.877014,1279
881.993958,1301
882.11084,1299
882.227783,1307
882.344727,1336
882.46167,1337
882.578613,1292
882.695618,1278
882.812439,1293
882.929382,1330
883.046326,1307
883.163208,1326
883.280151,1337
883.397034,1305
883.513916,1328
883.630798,1324
883.747742,1298
883.864563,1343
883.981506,1276
884.098389,1326
884.21521,1321
884.332153,1343
884.448975,1360
884.565796,1359
884.682678,1319
884.7995,1337
884.916443,1311
885.033264,1312
885.150085,1314
885.266968,1343
885.383789,1330
885.500671,1379
885.617493,1302
885.734314,1337
885.851196,1364
885.967896,1332
886.084717,1358
886.201599,1342
886.318359,1304
886.435181,1371
886.552002,1351
886.668762,1318
886.785645,1374
886.902344,1324
887.019165,1366
887.135925,1345
887.252747,1360
887.369446,1358
887.486267,1339
887.603027,1332
887.719788,1306
887.836548,1302
887.953247,1333
888.070068,1348
888.186829,1329
888.303528,1377
888.420288,1343
888.536987,1341
888.653687,1323
888.770447,1322
888.887146,1325
889.003967,1327
889.120667,1333
889.237305,1329
889.354065,1330
889.470703,1341
889.587463,1300
889.704163,1334
889.820862,1308
889.937561,1405
890.054199,1313
890.170837,1350
890.287598,1358
890.404236,1320
890.520874,1341
890.637634,1349
890.754211,1338
890.87085,1335
890.987549,1380
891.104187,1357
891.220886,1355
891.337463,1372
891.454102,1368
891.57074,1361
891.687378,1387
891.804077,1352
891.920654,1355
892.037231,1342
892.15387,1335
892.270447,1350
892.387085,1375
892.503723,1338
892.6203,1367
892.736877,1378
892.853516,1351
892.970032,1341
893.08667,1334
893.203186,1365
893.319763,1342
893.43634,1307
893.552917,1336
893.669556,1358
893.786011,1395
893.902588,1291
894.019165,1335
894.135681,1327
894.252197,1369
894.368835,1377
894.485291,1381
894.601868,1365
894.718384,1375
894.8349,1335
894.951355,1340
895.067932,1387
895.184448,1354
895.300964,1323
895.417419,1394
895.533936,1340
895.650452,1340
895.766907,1346
895.883423,1381
895.999878,1315
896.116333,1371
896.232849,1353
896.349304,1360
896.465759,1364
896.582214,1406
896.698669,1413
896.815125,1348
896.931641,1379
897.048035,1352
897.164551,1346
897.280884,1374
897.397339,1311
897.513794,1310
897.630249,1375
897.746582,1343
897.863098,1379
897.979431,1369
898.095886,1368
898.212341,1375
898.328674,1380
898.445129,1354
898.561462,1376
898.677795,1346
898.794312,1383
898.910645,1337
899.026978,1372
899.143433,1384
899.259766,1363
899.37616,1369
899.492493,1362
899.608765,1342
899.725159,1380
899.841553,1376
899.957947,1365
900.07428,1387
900.190552,1386
900.306946,1385
900.423157,1366
900.53949,1376
900.655884,1379
900.772156,1369
900.888489,1396
901.004822,1390
901.121033,1397
901.237366,1389
901.353699,1378
901.46991,1387
901.586304,1351
901.702515,1368
901.818787,1391
901.93512,1390
902.051331,1388
902.167603,1374
902.283875,1366
902.400085,1376
902.516418,1382
902.632629,1387
902.74884,1411
902.865112,1426
902.981384,1408
903.097595,1405
903.213867,1418
903.330017,1382
903.446289,1355
903.5625,1375
903.67865,1381
903.794922,1402
903.911072,1348
904.027344,1398
904.143494,1368
904.259705,1403
904.375916,1370
904.492065,1393
904.608215,1395
904.724426,1399
904.840576,1420
904.956726,1374
905.072876,1379
905.189087,1362
905.305176,1424
905.421387,1370
905.537537,1387
905.653687,1381
905.769775,1372
905.885925,1444
906.002014,1398
906.118164,1355
906.234314,1398
906.350403,1410
906.466492,1376
906.582642,1384
906.69873,1401
906.814758,1366
906.930908,1403
907.046936,1405
907.163086,1372
907.279175,1399
907.395264,1373
907.511353,1376
907.62738,1443
907.743408,1378
907.859497,1412
907.975525,1373
908.091553,1382
908.207703,1394
908.32373,1419
908.439758,1400
908.555786,1413
908.671814,1439
908.787842,1418
908.90387,1345
909.019775,1382
909.135864,1344
909.251892,1425
909.367859,1407
909.483826,1414
909.599854,1386
909.715881,1416
909.831848,1399
909.947815,1421
910.063782,1378
910.179749,1400
910.295776,1399
910.411743,1395
910.527649,1403
910.643616,1436
910.759583,1355
910.875488,1427
910.991455,1402
911.107361,1415
911.223267,1390
911.339294,1437
911.4552,1366
911.571106,1400
911.687073,1399
911.802979,1400
911.918823,1364
912.034729,1380
912.150635,1393
912.266602,1403
912.382446,1381
912.498352,1406
912.614197,1406
912.730103,1380
912.846008,1405
792.44574,2268
792.56488,2261
792.68396,2262
792.80304,2207
792.92218,2120
793.041199,2162
793.160339,2139
793.279419,2198
793.398499,2115
793.517578,2111
793.636658,2124
793.755737,2147
793.874817,2097
793.993896,2088
794.112976,2142
794.232056,2103
794.351074,2109
794.470215,2059
794.589233,2054
794.708313,2030
794.827393,2046
794.946411,2015
795.065552,2054
795.18457,2017
795.303589,2033
795.422668,2022
795.541687,2066
795.660767,2013
795.779846,1945
795.898865,1998
796.017883,1984
796.136963,1992
796.255981,1946
796.375061,2009
796.49408,2007
796.613037,2022
796.732117,1972
796.851135,2028
796.970154,1964
797.089233,1958
797.208191,2022
797.327271,1989
797.446228,2008
797.565186,1984
797.684265,1945
797.803223,1932
797.922241,1955
798.04126,1992
798.160278,1930
798.279297,1949
798.398315,1970
798.517273,1928
798.636292,1986
798.75531,1944
798.874268,1958
798.993286,1927
799.112244,1980
799.231323,1958
799.350281,1972
799.469238,1960
799.588257,1944
799.707153,1896
799.826111,1990
799.945129,1967
800.064087,1947
800.183044,1928
800.302063,1961
800.421021,1958
800.539978,1959
800.658936,2007
800.777893,1989
800.896912,1955
801.015747,1924
801.134705,1962
801.253723,2000
801.37262,1966
801.491638,1921
801.610535,1960
801.729492,2008
801.84845,1986
801.967407,1942
802.086243,2003
802.205261,1932
802.324158,1987
802.443115,2004
802.562073,2029
802.680969,2040
802.799927,2018
802.918762,2051
803.037659,2045
803.156677,2015
803.275574,2021
803.39447,2036
803.513428,2022
803.632263,2090
803.751221,2063
803.870117,2077
803.989014,2075
804.107971,2012
804.226746,2040
804.345642,2079
804.4646,2016
804.583496,2095
804.702393,2066
804.821228,2092
804.940125,2085
805.059021,2135
805.177917,2100
805.296814,2125
805.415649,2110
805.534546,2141
805.653442,2079
805.772278,2099
805.891113,2134
806.01001,2090
806.128906,2137
806.247742,2161
806.366577,2098
806.485413,2128
806.604309,2112
806.723145,2126
806.84198,2120
806.960876,2089
807.079712,2145
807.198486,2192
807.317383,2120
807.436218,2133
807.554993,2102
807.673889,2145
807.792725,2129
807.91156,2162
808.030396,2154
808.14917,2152
808.268005,2173
808.386841,2126
808.505676,2152
808.624451,2182
808.743286,2173
808.862122,2138
808.980896,2137
809.099731,2134
809.218506,2132
809.337341,2183
809.456116,2197
809.57489,2165
809.693726,2190
809.8125,2178
809.931274,2189
810.050049,2183
810.168884,2225
810.287659,2212
810.406372,2207
810.525269,2194
810.643982,2150
810.762756,2170
810.881531,2178
811.000305,2240
811.11908,2207
811.237854,2200
811.356567,2231
811.475403,2244
811.594116,2187
811.71283,2251
811.831604,2173
811.950378,2243
812.069153,2283
812.187927,2237
812.30658,2219
812.425415,2207
812.544128,2233
812.662781,2189
812.781616,2200
812.900269,2224
813.019043,2192
813.137756,2209
813.256531,2232
813.375244,2233
813.493896,2181
813.612671,2236
813.731384,2216
813.850037,2227
813.96875,2139
814.087524,2196
814.206238,2198
814.324951,2168
814.443604,2197
814.562256,2178
814.68103,2158
814.799683,2189
814.918335,2201
815.037109,2154
815.155762,2143
815.274475,2140
815.393188,2214
815.511841,2181
815.630554,2190
815.749146,2134
815.867859,2088
815.986572,2105
816.105164,2099
816.223877,2136
816.342529,2106
816.461182,2102
816.579895,2118
816.698486,2130
816.817139,2133
816.935791,2148
817.054504,2133
817.173096,2152
817.291748,2103
817.4104,2062
817.529053,2064
817.647644,2048
817.766235,1991
817.884949,2005
818.00354,1930
818.122192,1918
818.240845,1837
818.359436,1779
818.478088,1796
818.59668,1787
818.715271,1717
818.833923,1702
818.952515,1690
819.071106,1666
819.189758,1630
819.30835,1659
819.426941,1580
819.545532,1586
819.664124,1574
819.782715,1562
819.901306,1585
820.019897,1528
820.138489,1556
820.25708,1610
820.375671,1549
820.494202,1540
820.612732,1536
820.731384,1547
820.849915,1541
820.968506,1536
821.087097,1469
821.205627,1504
821.324158,1519
821.442749,1479
821.561279,1473
821.679871,1512
821.798401,1481
821.916931,1518
822.035461,1520
822.154053,1506
822.272583,1520
822.391174,1479
822.509583,1445
822.628174,1487
822.746704,1464
822.865234,1444
822.983765,1523
823.102295,1447
823.220825,1432
823.339294,1431
823.457825,1447
823.576355,1509
823.694824,1433
823.813354,1437
823.931885,1483
824.050354,1504
824.168884,1449
824.287354,1514
824.405823,1487
824.524353,1492
824.642822,1528
824.761353,1513
824.879822,1520
824.998291,1475
825.116699,1531
825.235291,1457
825.353699,1462
825.472168,1476
825.590637,1482
825.709106,1493
825.827576,1456
825.946045,1430
826.064453,1416
826.182983,1442
826.301392,1427
826.4198,1407
826.53833,1436
826.656738,1393
826.775208,1415
826.893677,1433
827.012024,1387
827.130493,1390
827.248962,1355
827.36731,1385
827.485779,1369
827.604248,1353
827.722595,1374
827.841064,1370
827.959412,1375
828.077942,1366
828.196289,1364
828.314636,1388
828.433105,1396
828.551514,1386
828.669861,1347
828.78833,1363
828.906677,1379
829.025085,1390
829.143433,1359
829.261841,1398
829.38031,1337
829.498657,1359
829.617004,1318
829.735413,1379
829.85376,1314
829.972107,1354
830.090515,1411
830.208862,1322
830.327209,1374
830.445557,1349
830.563904,1331
830.682312,1331
830.800659,1353
830.919006,1364
831.037354,1309
831.155701,1352
831.274048,1367
831.392395,1322
831.51062,1395
831.629028,1365
831.747314,1375
831.865662,1334
831.984009,1346
832.102356,1357
832.220642,1361
832.338928,1347
832.457275,1343
832.575623,1328
832.693909,1331
832.812134,1361
832.930481,1360
833.048828,1322
833.167114,1342
833.2854,1360
833.403687,1372
833.521973,1339
833.640259,1338
833.758545,1350
833.876831,1342
833.995056,1353
834.113281,1337
834.231628,1364
834.349915,1292
834.468201,1336
834.586426,1375
834.704651,1292
834.822998,1346
834.941162,1336
835.059448,1371
835.177673,1373
835.295959,1372
835.414246,1393
835.53241,1318
835.650635,1332
835.768921,1339
835.887146,1374
836.005371,1360
836.123596,1379
836.241821,1395
836.360046,1413
836.478271,1365
836.596497,1446
836.714722,1396
836.832886,1420
836.95105,1434
837.069336,1372
837.1875,1441
837.305725,1428
837.423889,1440
837.542053,1430
837.660339,1419
837.778503,1422
837.896667,1425
838.014832,1407
838.132996,1448
838.25116,1396
838.369385,1423
838.487488,1410
838.605713,1417
838.723877,1401
838.84198,1455
838.960205,1424
839.078308,1422
839.196472,1425
839.314636,1382
839.4328,1415
839.550964,1435
839.669067,1371
839.787231,1407
839.905396,1414
840.023499,1415
840.141602,1404
840.259766,1437
840.377869,1422
840.495972,1380
840.614136,1407
840.732239,1341
840.850342,1388
840.968445,1378
841.086548,1397
841.204651,1366
841.322754,1381
841.440918,1383
841.55896,1379
841.677002,1361
841.795166,1317
841.913208,1323
842.031311,1399
842.149353,1349
842.267456,1319
842.385498,1348
842.503601,1382
842.621643,1304
842.739746,1297
842.857788,1337
842.97583,1313
843.093933,1344
843.211975,1298
843.330017,1315
843.44812,1339
843.566101,1301
843.684204,1325
843.802246,1268
843.920227,1334
844.038269,1314
844.156311,1354
844.274292,1320
844.392395,1308
844.510376,1355
844.628357,1280
844.74646,1332
844.864441,1307
844.982422,1296
845.100403,1347
845.218384,1324
845.336426,1320
845.454468,1336
845.572449,1273
845.69043,1339
845.808411,1322
845.926453,1311
846.044373,1304
846.162354,1288
846.280396,1308
846.398315,1300
846.516296,1323
846.634216,1326
846.752197,1287
846.870178,1321
846.988098,1310
847.106079,1312
847.22406,1264
847.34198,1321
847.4599,1342
847.577881,1315
847.695801,1316
847.813782,1295
847.931641,1305
848.049561,1292
848.167603,1255
848.285461,1327
848.403381,1277
848.521362,1249
848.639221,1257
848.75708,1286
848.875,1305
848.99292,1291
849.110901,1298
849.22876,1315
849.34668,1312
849.464539,1331
849.582458,1305
849.700317,1308
849.818176,1292
849.936096,1318
850.053955,1323
850.171875,1309
850.289673,1252
850.407593,1271
850.525452,1315
850.643311,1268
850.761169,1291
850.878967,1312
850.996887,1259
851.114746,1276
851.232544,1265
851.350403,1303
851.468262,1323
851.58606,1254
851.703979,1295
851.821777,1309
851.939636,1295
852.057434,1278
852.175232,1311
852.293091,1321
852.410889,1269
852.528687,1324
852.646545,1309
852.764343,1289
852.88208,1308
852.999939,1289
853.117676,1323
853.235535,1249
853.353271,1303
853.471069,1348
853.588928,1332
853.706604,1298
853.824402,1341
853.9422,1339
854.059998,1328
854.177734,1295
854.295532,1311
854.413269,1332
854.531006,1296
854.648804,1332
854.766541,1301
854.884277,1312
855.002014,1303
855.119751,1316
855.237549,1346
855.355225,1377
855.473022,1365
855.590698,1316
855.708435,1381
855.826172,1320
855.943848,1333
856.061646,1338
856.179321,1278
856.296997,1325
856.414795,1336
856.53241,1334
856.650085,1382
856.767822,1337
856.885559,1375
857.003174,1328
857.120911,1370
857.238586,1342
857.356201,1312
857.473938,1360
857.591614,1346
857.709351,1352
857.826965,1352
857.944641,1355
858.062317,1311
858.179993,1323
858.297668,1374
858.415283,1343
858.532959,1295
858.650574,1326
858.768188,1323
858.885803,1358
859.003479,1323
859.121094,1330
859.23877,1347
859.356384,1362
859.473999,1303
859.591675,1338
859.709229,1310
859.826843,1330
859.944458,1272
860.062012,1303
860.179626,1294
860.297302,1337
860.414856,1300
860.532471,1281
860.650024,1295
860.767639,1332
860.885193,1303
861.002808,1326
861.120361,1318
861.237976,1325
861.35553,1333
861.473022,1285
861.590698,1357
861.708191,1346
861.825745,1311
861.943298,1337
862.060852,1306
862.178406,1353
862.295959,1318
862.413513,1353
862.531006,1331
862.64856,1299
862.766113,1325
862.883667,1307
863.00116,1311
863.118713,1306
863.236206,1315
863.353699,1317
863.471252,1302
863.588745,1338
863.706177,1316
863.82373,1323
863.941162,1357
864.058716,1314
864.176208,1342
864.29364,1305
864.411194,1363
864.528687,1347
864.646118,1349
864.763611,1305
864.881042,1341
864.998535,1321
865.116028,1340
865.233459,1303
865.350891,1309
865.468384,1346
865.585754,1320
865.703308,1297
865.820679,1315
865.938171,1308
866.055542,1309
866.173035,1334
866.290466,1328
866.407837,1303
866.52533,1343
866.6427,1336
866.760071,1317
866.877563,1349
866.994934,1313
867.112305,1316
867.229736,1313
867.347107,1314
867.464539,1371
867.58197,1330
867.699341,1343
867.81665,1326
867.934082,1341
868.051453,1320
868.168823,1325
868.286194,1303
868.403564,1349
868.520935,1308
868.638306,1324
868.755676,1327
868.872986,1330
868.990295,1267
869.107727,1325
869.225037,1345
869.342346,1353
869.459717,1328
869.577026,1349
869.694336,1337
869.811707,1331
869.929016,1376
870.046326,1343
870.163635,1356
870.280945,1354
870.398254,1303
870.515564,1351
870.632812,1331
870.750183,1330
870.867432,1346
870.984741,1313
871.102051,1341
871.219299,1326
871.336609,1316
871.453918,1324
871.571106,1341
871.688416,1349
871.805664,1320
871.922852,1344
872.040222,1314
872.157471,1285
872.274719,1358
872.391968,1351
872.509155,1354
872.626465,1341
872.743652,1299
872.860962,1334
872.978149,1321
873.095337,1327
873.212646,1337
873.329834,1315
873.44696,1299
873.564209,1336
873.681396,1317
873.798645,1297
873.915894,1315
874.03302,1252
874.150208,1333
874.267456,1320
874.384583,1336
874.501831,1314
874.618958,1341
874.736145,1362
874.853333,1318
874.970459,1299
875.087646,1352
875.204834,1338
875.32196,1310
875.439148,1363
875.556274,1325
875.673401,1342
875.790527,1326
875.907715,1347
876.024841,1330
876.141968,1345
876.259094,1345
876.376282,1333
876.493347,1376
876.610474,1326
876.7276,1341
876.844727,1363
876.961853,1327
877.078918,1376
877.195984,1353
877.313171,1339
877.430237,1291
877.547302,1348
877.664368,1362
877.781433,1296
877.898499,1314
878.015625,1356
878.13269,1331
878.249695,1393
878.366821,1293
878.483887,1396
878.600952,1298
878.717957,1328
878.834961,1278
878.952087,1352
879.069092,1342
879.186157,1384
879.303162,1304
879.420227,1368
879.537231,1339
879.654236,1319
879.77124,1313
879.888306,1347
880.005249,1324
880.122314,1322
880.239319,1322
880.356323,1312
880.473328,1293
880.590271,1305
880.707275,1348
880.824341,1306
880.941284,1339
881.058228,1314
881.175232,1364
881.292236,1372
881.40918,1351
881.526123,1346
881.643066,1340
881.760071,1313
881.877014,1312
881.993958,1365
882.11084,1323
882.227783,1334
882.344727,1312
882.46167,1373
882.578613,1320
882.695618,1354
882.812439,1331
882.929382,1353
883.046326,1371
883.163208,1354
883.280151,1303
883.397034,1376
883.513916,1345
883.630798,1340
883.747742,1357
883.864563,1368
883.981506,1342
884.098389,1346
884.21521,1351
884.332153,1373
884.448975,1325
884.565796,1283
884.682678,1315
884.7995,1377
884.916443,1338
885.033264,1385
885.150085,1359
885.266968,1385
885.383789,1316
885.500671,1404
885.617493,1374
885.734314,1378
885.851196,1374
885.967896,1418
886.084717,1377
886.201599,1351
886.318359,1369
886.435181,1382
886.552002,1395
886.668762,1357
886.785645,1376
886.902344,1353
887.019165,1347
887.135925,1388
887.252747,1402
887.369446,1351
887.486267,1374
887.603027,1322
887.719788,1356
887.836548,1385
887.953247,1363
888.070068,1381
888.186829,1341
888.303528,1388
888.420288,1383
888.536987,1367
888.653687,1394
888.770447,1342
888.887146,1394
889.003967,1370
889.120667,1379
889.237305,1340
889.354065,1365
889.470703,1348
889.587463,1365
889.704163,1358
889.820862,1377
889.937561,1353
890.054199,1368
890.170837,1353
890.287598,1360
890.404236,1365
890.520874,1363
890.637634,1370
890.754211,1366
890.87085,1384
890.987549,1367
891.104187,1363
891.220886,1400
891.337463,1392
891.454102,1374
891.57074,1377
891.687378,1332
891.804077,1397
891.920654,1376
892.037231,1331
892.15387,1371
892.270447,1431
892.387085,1374
892.503723,1407
892.6203,1370
892.736877,1382
892.853516,1356
892.970032,1361
893.08667,1411
893.203186,1384
893.319763,1390
893.43634,1395
893.552917,1391
893.669556,1373
893.786011,1411
893.902588,1357
894.019165,1399
894.135681,1374
894.252197,1420
894.368835,1384
894.485291,1399
894.601868,1362
894.718384,1379
894.8349,1381
894.951355,1390
895.067932,1391
895.184448,1340
895.300964,1402
895.417419,1398
895.533936,1378
895.650452,1424
895.766907,1367
895.883423,1400
895.999878,1393
896.116333,1381
896.232849,1411
896.349304,1413
896.465759,1424
896.582214,1394
896.698669,1392
896.815125,1418
896.931641,1436
897.048035,1388
897.164551,1409
897.280884,1377
897.397339,1400
897.513794,1388
897.630249,1438
897.746582,1393
897.863098,1396
897.979431,1383
898.095886,1422
898.212341,1377
898.328674,1387
898.445129,1374
898.561462,1380
898.677795,1381
898.794312,1408
898.910645,1395
899.026978,1395
899.143433,1429
899.259766,1416
899.37616,1393
899.492493,1369
899.608765,1418
899.725159,1379
899.841553,1406
899.957947,1405
900.07428,1418
900.190552,1427
900.306946,1413
900.423157,1391
900.53949,1365
900.655884,1431
900.772156,1401
900.888489,1421
901.004822,1396
901.121033,1404
901.237366,1419
901.353699,1423
901.46991,1375
901.586304,1427
901.702515,1419
901.818787,1401
901.93512,1409
902.051331,1377
902.167603,1483
902.283875,1437
902.400085,1471
902.516418,1410
902.632629,1412
902.74884,1426
902.865112,1458
902.981384,1423
903.097595,1443
903.213867,1420
903.330017,1417
903.446289,1469
903.5625,1366
903.67865,1468
903.794922,1410
903.911072,1461
904.027344,1396
904.143494,1444
904.259705,1426
904.375916,1441
904.492065,1432
904.608215,1410
904.724426,1452
904.840576,1403
904.956726,1393
905.072876,1415
905.189087,1412
905.305176,1442
905.421387,1463
905.537537,1423
905.653687,1455
905.769775,1431
905.885925,1445
906.002014,1333
906.118164,1431
906.234314,1387
906.350403,1416
906.466492,1445
906.582642,1417
906.69873,1408
906.814758,1404
906.930908,1448
907.046936,1402
907.163086,1456
907.279175,1408
907.395264,1392
907.511353,1475
907.62738,1435
907.743408,1438
907.859497,1418
907.975525,1431
908.091553,1442
908.207703,1414
908.32373,1472
908.439758,1412
908.555786,1450
908.671814,1444
908.787842,1437
908.90387,1432
909.019775,1438
909.135864,1445
909.251892,1473
909.367859,1430
909.483826,1424
909.599854,1434
909.715881,1446
909.831848,1448
909.947815,1462
910.063782,1437
910.179749,1445
910.295776,1429
910.411743,1448
910.527649,1449
910.643616,1448
910.759583,1476
910.875488,1439
910.991455,1413
911.107361,1453
911.223267,1425
911.339294,1474
911.4552,1429
911.571106,1476
911.687073,1446
911.802979,1444
911.918823,1410
912.034729,1446
912.150635,1436
912.266602,1433
912.382446,1432
912.498352,1433
912.614197,1438
912.730103,1415
912.846008,1440
792.44574,2282
792.56488,2304
792.68396,2318
792.80304,2204
792.92218,2196
793.041199,2163
793.160339,2186
793.279419,2150
793.398499,2165
793.517578,2122
793.636658,2135
793.755737,2162
793.874817,2134
793.993896,2108
794.112976,2110
794.232056,2055
794.351074,2110
794.470215,2048
794.589233,2058
794.708313,2066
794.827393,2060
794.946411,2045
795.065552,2020
795.18457,2021
795.303589,2044
795.422668,2024
795.541687,2038
795.660767,2038
795.779846,2007
795.898865,1980
796.017883,2040
796.136963,1979
796.255981,2067
796.375061,2009
796.49408,2028
796.613037,2019
796.732117,1945
796.851135,1992
796.970154,2008
797.089233,1996
797.208191,2001
797.327271,1985
797.446228,1948
797.565186,1992
797.684265,1975
797.803223,1940
797.922241,1961
798.04126,1982
798.160278,1980
798.279297,1994
798.398315,1984
798.517273,1965
798.636292,1963
798.75531,1994
798.874268,1984
798.993286,1958
799.112244,1950
799.231323,1978
799.350281,1942
799.469238,2000
799.588257,1938
799.707153,1966
799.826111,1945
799.945129,1975
800.064087,1966
800.183044,1997
800.302063,2050
800.421021,1995
800.539978,2017
800.658936,1963
800.777893,2014
800.896912,1999
801.015747,2001
801.134705,1954
801.253723,1986
801.37262,1993
801.491638,2027
801.610535,1979
801.729492,2006
801.84845,1981
801.967407,2005
802.086243,2025
802.205261,2004
802.324158,2035
802.443115,2055
802.562073,2045
802.680969,2038
802.799927,2052
802.918762,2052
803.037659,2060
803.156677,2066
803.275574,2047
803.39447,2055
803.513428,2054
803.632263,2075
803.751221,2058
803.870117,2105
803.989014,2035
804.107971,2063
804.226746,2065
804.345642,2105
804.4646,2076
804.583496,2136
804.702393,2090
804.821228,2108
804.940125,2076
805.059021,2092
805.177917,2099
805.296814,2137
805.415649,2116
805.534546,2099
805.653442,2089
805.772278,2173
805.891113,2206
806.01001,2153
806.128906,2072
806.247742,2109
806.366577,2138
806.485413,2121
806.604309,2121
806.723145,2143
806.84198,2110
806.960876,2130
807.079712,2098
807.198486,2180
807.317383,2140
807.436218,2113
807.554993,2120
807.673889,2146
807.792725,2134
807.91156,2132
808.030396,2169
808.14917,2175
808.268005,2098
808.386841,2182
808.505676,2165
808.624451,2172
808.743286,2201
808.862122,2198
808.980896,2235
809.099731,2174
809.218506,2255
809.337341,2172
809.456116,2220
809.57489,2226
809.693726,2152
809.8125,2182
809.931274,2250
810.050049,2248
810.168884,2183
810.287659,2212
810.406372,2226
810.525269,2216
810.643982,2238
810.762756,2191
810.881531,2227
811.000305,2222
811.11908,2213
811.237854,2188
811.356567,2201
811.475403,2240
811.594116,2161
811.71283,2195
811.831604,2246
811.950378,2227
812.069153,2222
812.187927,2272
812.30658,2273
812.425415,2189
812.544128,2236
812.662781,2243
812.781616,2199
812.900269,2277
813.019043,2194
813.137756,2180
813.256531,2281
813.375244,2238
813.493896,2204
813.612671,2213
813.731384,2182
813.850037,2272
813.96875,2218
814.087524,2248
814.206238,2252
814.324951,2214
814.443604,2204
814.562256,2191
814.68103,2198
814.799683,2172
814.918335,2185
815.037109,2184
815.155762,2137
815.274475,2215
815.393188,2172
815.511841,2124
815.630554,2197
815.749146,2165
815.867859,2144
815.986572,2121
816.105164,2101
816.223877,2075
816.342529,2133
816.461182,2087
816.579895,2117
816.698486,2160
816.817139,2114
816.935791,2152
817.054504,2202
817.173096,2204
817.291748,2154
817.4104,2095
817.529053,2102
817.647644,2044
817.766235,2013
817.884949,2009
818.00354,1941
818.122192,1914
818.240845,1897
818.359436,1853
818.478088,1826
818.59668,1814
818.715271,1741
818.833923,1801
818.952515,1744
819.071106,1689
819.189758,1642
819.30835,1619
819.426941,1631
819.545532,1655
819.664124,1609
819.782715,1638
819.901306,1561
820.019897,1559
820.138489,1517
820.25708,1569
820.375671,1505
820.494202,1570
820.612732,1503
820.731384,1593
820.849915,1528
820.968506,1535
821.087097,1532
821.205627,1503
821.324158,1538
821.442749,1541
821.561279,1500
821.679871,1551
821.798401,1490
821.916931,1482
822.035461,1499
822.154053,1540
822.272583,1478
822.391174,1496
822.509583,1481
822.628174,1469
822.746704,1495
822.865234,1479
822.983765,1477
823.102295,1486
823.220825,1485
823.339294,1469
823.457825,1485
823.576355,1514
823.694824,1489
823.813354,1482
823.931885,1510
824.050354,1523
824.168884,1468
824.287354,1517
824.405823,1555
824.524353,1525
824.642822,1503
824.761353,1481
824.879822,1516
824.998291,1520
825.116699,1485
825.235291,1504
825.353699,1474
825.472168,1501
825.590637,1456
825.709106,1493
825.827576,1454
825.946045,1420
826.064453,1475
826.182983,1438
826.301392,1449
826.4198,1454
826.53833,1409
826.656738,1421
826.775208,1422
826.893677,1435
827.012024,1391
827.130493,1380
827.248962,1433
827.36731,1388
827.485779,1401
827.604248,1404
827.722595,1345
827.841064,1384
827.959412,1345
828.077942,1372
828.196289,1396
828.314636,1395
828.433105,1354
828.551514,1395
828.669861,1371
828.78833,1366
828.906677,1378
829.025085,1386
829.143433,1390
829.261841,1375
829.38031,1363
829.498657,1335
829.617004,1384
829.735413,1415
829.85376,1352
829.972107,1401
830.090515,1391
830.208862,1415
830.327209,1336
830.445557,1348
830.563904,1386
830.682312,1359
830.800659,1371
830.919006,1396
831.037354,1383
831.155701,1359
831.274048,1318
831.392395,1400
831.51062,1336
831.629028,1386
831.747314,1354
831.865662,1395
831.984009,1342
832.102356,1362
832.220642,1364
832.338928,1367
832.457275,1349
832.575623,1361
832.693909,1334
832.812134,1345
832.930481,1360
833.048828,1372
833.167114,1350
833.2854,1365
833.403687,1386
833.521973,1356
833.640259,1380
833.758545,1375
833.876831,1348
833.995056,1354
834.113281,1385
834.231628,1398
834.349915,1376
834.468201,1379
834.586426,1333
834.704651,1356
834.822998,1346
834.941162,1365
835.059448,1315
835.177673,1370
835.295959,1341
835.414246,1344
835.53241,1359
835.650635,1367
835.768921,1375
835.887146,1373
836.005371,1381
836.123596,1368
836.241821,1382
836.360046,1392
836.478271,1437
836.596497,1436
836.714722,1392
836.832886,1420
836.95105,1411
837.069336,1476
837.1875,1387
837.305725,1432
837.423889,1451
837.542053,1450
837.660339,1421
837.778503,1453
837.896667,1449
838.014832,1424
838.132996,1386
838.25116,1447
838.369385,1425
838.487488,1452
838.605713,1443
838.723877,1459
838.84198,1431
838.960205,1423
839.078308,1402
839.196472,1394
839.314636,1450
839.4328,1407
839.550964,1417
839.669067,1414
839.787231,1421
839.905396,1408
840.023499,1386
840.141602,1421
840.259766,1370
840.377869,1407
840.495972,1427
840.614136,1401
840.732239,1413
840.850342,1412
840.968445,1347
841.086548,1409
841.204651,1375
841.322754,1372
841.440918,1345
841.55896,1379
841.677002,1338
841.795166,1389
841.913208,1366
842.031311,1372
842.149353,1320
842.267456,1371
842.385498,1358
842.503601,1323
842.621643,1325
842.739746,1353
842.857788,1303
842.97583,1341
843.093933,1320
843.211975,1345
843.330017,1329
843.44812,1357
843.566101,1327
843.684204,1331
843.802246,1326
843.920227,1317
844.038269,1329
844.156311,1329
844.274292,1344
844.392395,1312
844.510376,1317
844.628357,1326
844.74646,1330
844.864441,1320
844.982422,1302
845.100403,1339
845.218384,1308
845.336426,1349
845.454468,1339
845.572449,1338
845.69043,1341
845.808411,1372
845.926453,1348
846.044373,1328
846.162354,1295
846.280396,1345
846.398315,1274
846.516296,1346
846.634216,1247
846.752197,1285
846.870178,1310
846.988098,1296
847.106079,1265
847.22406,1295
847.34198,1361
847.4599,1305
847.577881,1309
847.695801,1313
847.813782,1313
847.931641,1291
848.049561,1327
848.167603,1328
848.285461,1340
848.403381,1292
848.521362,1277
848.639221,1312
848.75708,1258
848.875,1348
848.99292,1283
849.110901,1306
849.22876,1324
849.34668,1301
849.464539,1312
849.582458,1313
849.700317,1285
849.818176,1307
849.936096,1317
850.053955,1322
850.171875,1261
850.289673,1300
850.407593,1281
850.525452,1367
850.643311,1282
850.761169,1319
850.878967,1280
850.996887,1318
851.114746,1370
851.232544,1284
851.350403,1309
851.468262,1329
851.58606,1301
851.703979,1323
851.821777,1287
851.939636,1297
852.057434,1323
852.175232,1305
852.293091,1308
852.410889,1323
852.528687,1360
852.646545,1306
852.764343,1268
852.88208,1314
852.999939,1279
853.117676,1365
853.235535,1335
853.353271,1288
853.471069,1360
853.588928,1325
853.706604,1308
853.824402,1320
853.9422,1329
854.059998,1334
854.177734,1310
854.295532,1326
854.413269,1324
854.531006,1303
854.648804,1340
854.766541,1324
854.884277,1323
855.002014,1341
855.119751,1344
855.237549,1362
855.355225,1370
855.473022,1366
855.590698,1353
855.708435,1330
855.826172,1323
855.943848,1360
856.061646,1361
856.179321,1323
856.296997,1357
856.414795,1363
856.53241,1349
856.650085,1378
856.767822,1324
856.885559,1359
857.003174,1381
857.120911,1311
857.238586,1362
857.356201,1374
857.473938,1311
857.591614,1340
857.709351,1352
857.826965,1334
857.944641,1347
858.062317,1375
858.179993,1366
858.297668,1327
858.415283,1339
858.532959,1317
858.650574,1330
858.768188,1335
858.885803,1382
859.003479,1349
859.121094,1333
859.23877,1323
859.356384,1352
859.473999,1280
859.591675,1317
859.709229,1327
859.826843,1312
859.944458,1359
860.062012,1355
860.179626,1299
860.297302,1319
860.414856,1307
860.532471,1357
860.650024,1301
860.767639,1341
860.885193,1311
861.002808,1316
861.120361,1315
861.237976,1295
861.35553,1344
861.473022,1338
861.590698,1371
861.708191,1276
861.825745,1340
861.943298,1329
862.060852,1324
862.178406,1328
862.295959,1301
862.413513,1308
862.531006,1291
862.64856,1294
862.766113,1307
862.883667,1346
863.00116,1348
863.118713,1316
863.236206,1331
863.353699,1327
863.471252,1313
863.588745,1354
863.706177,1303
863.82373,1315
863.941162,1373
864.058716,1351
864.176208,1308
864.29364,1299
864.411194,1319
864.528687,1318
864.646118,1313
864.763611,1311
864.881042,1368
864.998535,1341
865.116028,1365
865.233459,1337
865.350891,1315
865.468384,1317
865.585754,1371
865.703308,1320
865.820679,1325
865.938171,1323
866.055542,1365
866.173035,1329
866.290466,1357
866.407837,1284
866.52533,1332
866.6427,1352
866.760071,1302
866.877563,1336
866.994934,1320
867.112305,1328
867.229736,1348
867.347107,1353
867.464539,1385
867.58197,1310
867.699341,1331
867.81665,1328
867.934082,1355
868.051453,1345
868.168823,1360
868.286194,1321
868.403564,1348
868.520935,1357
868.638306,1371
868.755676,1331
868.872986,1364
868.990295,1326
869.107727,1354
869.225037,1332
869.342346,1378
869.459717,1329
869.577026,1314
869.694336,1342
869.811707,1349
869.929016,1328
870.046326,1353
870.163635,1356
870.280945,1354
870.398254,1327
870.515564,1299
870.632812,1353
870.750183,1347
870.867432,1380
870.984741,1365
871.102051,1339
871.219299,1325
871.336609,1333
871.453918,1374
871.571106,1356
871.688416,1347
871.805664,1307
871.922852,1352
872.040222,1326
872.157471,1343
872.274719,1361
872.391968,1357
872.509155,1371
872.626465,1320
872.743652,1365
872.860962,1348
872.978149,1305
873.095337,1356
873.212646,1349
873.329834,1311
873.44696,1332
873.564209,1361
873.681396,1361
873.798645,1352
873.915894,1344
874.03302,1381
874.150208,1394
874.267456,1351
874.384583,1348
874.501831,1351
874.618958,1338
874.736145,1365
874.853333,1324
874.970459,1381
875.087646,1354
875.204834,1323
875.32196,1337
875.439148,1323
875.556274,1311
875.673401,1369
875.790527,1320
875.907715,1338
876.024841,1348
876.141968,1379
876.259094,1345
876.376282,1361
876.493347,1377
876.610474,1331
876.7276,1321
876.844727,1339
876.961853,1370
877.078918,1343
877.195984,1332
877.313171,1354
877.430237,1344
877.547302,1369
877.664368,1322
877.781433,1343
877.898499,1368
878.015625,1378
878.13269,1337
878.249695,1358
878.366821,1313
878.483887,1358
878.600952,1319
878.717957,1344
878.834961,1354
878.952087,1325
879.069092,1313
879.186157,1321
879.303162,1298
879.420227,1333
879.537231,1330
879.654236,1369
879.77124,1376
879.888306,1360
880.005249,1314
880.122314,1368
880.239319,1338
880.356323,1405
880.473328,1331
880.590271,1346
880.707275,1331
880.824341,1341
880.941284,1345
881.058228,1321
881.175232,1346
881.292236,1362
881.40918,1325
881.526123,1306
881.643066,1312
881.760071,1393
881.877014,1336
881.993958,1387
882.11084,1345
882.227783,1358
882.344727,1358
882.46167,1353
882.578613,1378
882.695618,1379
882.812439,1396
882.929382,1347
883.046326,1320
883.163208,1340
883.280151,1354
883.397034,1361
883.513916,1334
883.630798,1348
883.747742,1392
883.864563,1367
883.981506,1341
884.098389,1360
884.21521,1352
884.332153,1385
884.448975,1374
884.565796,1398
884.682678,1373
884.7995,1394
884.916443,1348
885.033264,1332
885.150085,1400
885.266968,1394
885.383789,1383
885.500671,1392
885.617493,1396
885.734314,1361
885.851196,1419
885.967896,1402
886.084717,1425
886.201599,1397
886.318359,1406
886.435181,1406
886.552002,1382
886.668762,1394
886.785645,1364
886.902344,1375
887.019165,1388
887.135925,1386
887.252747,1402
887.369446,1396
887.486267,1362
887.603027,1379
887.719788,1380
887.836548,1392
887.953247,1380
888.070068,1418
888.186829,1403
888.303528,1397
888.420288,1382
888.536987,1379
888.653687,1388
888.770447,1374
888.887146,1359
889.003967,1360
889.120667,1360
889.237305,1395
889.354065,1358
889.470703,1368
889.587463,1393
889.704163,1370
889.820862,1385
889.937561,1362
890.054199,1399
890.170837,1408
890.287598,1359
890.404236,1373
890.520874,1360
890.637634,1395
890.754211,1377
890.87085,1424
890.987549,1343
891.104187,1377
891.220886,1379
891.337463,1423
891.454102,1396
891.57074,1419
891.687378,1396
891.804077,1386
891.920654,1411
892.037231,1362
892.15387,1391
892.270447,1368
892.387085,1412
892.503723,1422
892.6203,1380
892.736877,1391
892.853516,1378
892.970032,1420
893.08667,1388
893.203186,1385
893.319763,1417
893.43634,1414
893.552917,1414
893.669556,1391
893.786011,1401
893.902588,1388
894.019165,1380
894.135681,1416
894.252197,1383
894.368835,1385
894.485291,1435
894.601868,1409
894.718384,1412
894.8349,1403
894.951355,1429
895.067932,1424
895.184448,1405
895.300964,1430
895.417419,1386
895.533936,1420
895.650452,1406
895.766907,1431
895.883423,1388
895.999878,1413
896.116333,1369
896.232849,1401
896.349304,1378
896.465759,1422
896.582214,1390
896.698669,1397
896.815125,1411
896.931641,1433
897.048035,1388
897.164551,1435
897.280884,1417
897.397339,1382
897.513794,1392
897.630249,1378
897.746582,1451
897.863098,1388
897.979431,1449
898.095886,1414
898.212341,1409
898.328674,1419
898.445129,1403
898.561462,1437
898.677795,1400
898.794312,1424
898.910645,1444
899.026978,1417
899.143433,1403
899.259766,1434
899.37616,1403
899.492493,1397
899.608765,1420
899.725159,1347
899.841553,1436
899.957947,1414
900.07428,1410
900.190552,1436
900.306946,1412
900.423157,1420
900.53949,1392
900.655884,1372
900.772156,1450
900.888489,1418
901.004822,1388
901.121033,1377
901.237366,1442
901.353699,1411
901.46991,1414
901.586304,1461
901.702515,1382
901.818787,1406
901.93512,1413
902.051331,1420
902.167603,1409
902.283875,1440
902.400085,1425
902.516418,1490
902.632629,1414
902.74884,1426
902.865112,1463
902.981384,1433
903.097595,1462
903.213867,1439
903.330017,1426
903.446289,1470
903.5625,1455
903.67865,1423
903.794922,1437
903.911072,1461
904.027344,1430
904.143494,1442
904.259705,1435
904.375916,1402
904.492065,1450
904.608215,1472
904.724426,1404
904.840576,1411
904.956726,1483
905.072876,1434
905.189087,1471
905.305176,1448
905.421387,1473
905.537537,1429
905.653687,1468
905.769775,1469
905.885925,1433
906.002014,1460
906.118164,1433
906.234314,1428
906.350403,1424
906.466492,1470
906.582642,1459
906.69873,1430
906.814758,1448
906.930908,1439
907.046936,1483
907.163086,1475
907.279175,1474
907.395264,1481
907.511353,1414
907.62738,1458
907.743408,1451
907.859497,1423
907.975525,1466
908.091553,1456
908.207703,1415
908.32373,1453
908.439758,1466
908.555786,1435
908.671814,1441
908.787842,1428
908.90387,1451
909.019775,1431
909.135864,1442
909.251892,1423
909.367859,1428
909.483826,1446
909.599854,1419
909.715881,1445
909.831848,1492
909.947815,1426
910.063782,1485
910.179749,1494
910.295776,1459
910.411743,1423
910.527649,1488
910.643616,1405
910.759583,1476
910.875488,1470
910.991455,1434
911.107361,1475
911.223267,1468
911.339294,1502
911.4552,1429
911.571106,1437
911.687073,1501
911.802979,1481
911.918823,1447
912.034729,1459
912.150635,1416
912.266602,1465
912.382446,1458
912.498352,1479
912.614197,1432
912.730103,1448
912.846008,1435
