792.44574,3685
792.56488,3527
792.68396,3551
792.80304,3394
792.92218,3284
793.041199,3203
793.160339,3151
793.279419,3095
793.398499,3010
793.517578,2985
793.636658,2809
793.755737,2899
793.874817,2813
793.993896,2824
794.112976,2709
794.232056,2712
794.351074,2636
794.470215,2631
794.589233,2538
794.708313,2582
794.827393,2530
794.946411,2514
795.065552,2498
795.18457,2485
795.303589,2491
795.422668,2480
795.541687,2435
795.660767,2440
795.779846,2361
795.898865,2353
796.017883,2319
796.136963,2307
796.255981,2251
796.375061,2215
796.49408,2252
796.613037,2214
796.732117,2201
796.851135,2207
796.970154,2187
797.089233,2163
797.208191,2180
797.327271,2132
797.446228,2158
797.565186,2152
797.684265,2076
797.803223,2119
797.922241,2128
798.04126,2125
798.160278,2049
798.279297,1986
798.398315,2028
798.517273,2008
798.636292,2051
798.75531,1983
798.874268,2026
798.993286,2011
799.112244,1977
799.231323,1977
799.350281,1955
799.469238,1990
799.588257,1996
799.707153,1981
799.826111,1967
799.945129,1909
800.064087,1973
800.183044,1935
800.302063,1972
800.421021,1939
800.539978,1852
800.658936,1928
800.777893,1920
800.896912,1904
801.015747,1973
801.134705,1889
801.253723,1976
801.37262,1865
801.491638,1879
801.610535,1875
801.729492,1885
801.84845,1813
801.967407,1877
802.086243,1851
802.205261,1875
802.324158,1870
802.443115,1835
802.562073,1806
802.680969,1837
802.799927,1812
802.918762,1805
803.037659,1817
803.156677,1832
803.275574,1797
803.39447,1820
803.513428,1842
803.632263,1802
803.751221,1827
803.870117,1769
803.989014,1799
804.107971,1772
804.226746,1776
804.345642,1799
804.4646,1771
804.583496,1769
804.702393,1755
804.821228,1804
804.940125,1778
805.059021,1782
805.177917,1717
805.296814,1750
805.415649,1774
805.534546,1721
805.653442,1752
805.772278,1730
805.891113,1774
806.01001,1706
806.128906,1730
806.247742,1753
806.366577,1734
806.485413,1816
806.604309,1758
806.723145,1754
806.84198,1709
806.960876,1722
807.079712,1726
807.198486,1756
807.317383,1807
807.436218,1728
807.554993,1748
807.673889,1708
807.792725,1701
807.91156,1708
808.030396,1760
808.14917,1672
808.268005,1703
808.386841,1690
808.505676,1718
808.624451,1696
808.743286,1676
808.862122,1690
808.980896,1705
809.099731,1705
809.218506,1683
809.337341,1727
809.456116,1727
809.57489,1724
809.693726,1720
809.8125,1728
809.931274,1676
810.050049,1686
810.168884,1736
810.287659,1723
810.406372,1663
810.525269,1689
810.643982,1670
810.762756,1739
810.881531,1739
811.000305,1726
811.11908,1750
811.237854,1663
811.356567,1704
811.475403,1728
811.594116,1745
811.71283,1689
811.831604,1740
811.950378,1688
812.069153,1715
812.187927,1697
812.30658,1754
812.425415,1723
812.544128,1760
812.662781,1754
812.781616,1691
812.900269,1669
813.019043,1707
813.137756,1707
813.256531,1723
813.375244,1684
813.493896,1648
813.612671,1711
813.731384,1661
813.850037,1623
813.96875,1648
814.087524,1672
814.206238,1635
814.324951,1660
814.443604,1617
814.562256,1658
814.68103,1721
814.799683,1634
814.918335,1711
815.037109,1626
815.155762,1617
815.274475,1693
815.393188,1683
815.511841,1654
815.630554,1631
815.749146,1656
815.867859,1660
815.986572,1657
816.105164,1611
816.223877,1643
816.342529,1698
816.461182,1716
816.579895,1680
816.698486,1660
816.817139,1641
816.935791,1728
817.054504,1684
817.173096,1714
817.291748,1684
817.4104,1688
817.529053,1666
817.647644,1621
817.766235,1630
817.884949,1624
818.00354,1610
818.122192,1621
818.240845,1613
818.359436,1635
818.478088,1591
818.59668,1564
818.715271,1617
818.833923,1567
818.952515,1554
819.071106,1596
819.189758,1622
819.30835,1554
819.426941,1556
819.545532,1569
819.664124,1560
819.782715,1577
819.901306,1604
820.019897,1507
820.138489,1572
820.25708,1492
820.375671,1595
820.494202,1564
820.612732,1560
820.731384,1604
820.849915,1568
820.968506,1555
821.087097,1559
821.205627,1566
821.324158,1506
821.442749,1561
821.561279,1538
821.679871,1551
821.798401,1542
821.916931,1535
822.035461,1559
822.154053,1539
822.272583,1535
822.391174,1492
822.509583,1535
822.628174,1522
822.746704,1553
822.865234,1485
822.983765,1499
823.102295,1514
823.220825,1517
823.339294,1470
823.457825,1512
823.576355,1531
823.694824,1529
823.813354,1493
823.931885,1493
824.050354,1506
824.168884,1509
824.287354,1499
824.405823,1507
824.524353,1489
824.642822,1531
824.761353,1483
824.879822,1512
824.998291,1520
825.116699,1529
825.235291,1501
825.353699,1527
825.472168,1490
825.590637,1472
825.709106,1552
825.827576,1482
825.946045,1470
826.064453,1498
826.182983,1433
826.301392,1476
826.4198,1446
826.53833,1495
826.656738,1474
826.775208,1457
826.893677,1453
827.012024,1507
827.130493,1456
827.248962,1470
827.36731,1511
827.485779,1470
827.604248,1521
827.722595,1513
827.841064,1417
827.959412,1456
828.077942,1459
828.196289,1464
828.314636,1483
828.433105,1419
828.551514,1452
828.669861,1412
828.78833,1444
828.906677,1487
829.025085,1450
829.143433,1471
829.261841,1483
829.38031,1468
829.498657,1466
829.617004,1451
829.735413,1496
829.85376,1409
829.972107,1468
830.090515,1439
830.208862,1462
830.327209,1473
830.445557,1468
830.563904,1482
830.682312,1487
830.800659,1492
830.919006,1470
831.037354,1498
831.155701,1509
831.274048,1515
831.392395,1489
831.51062,1462
831.629028,1447
831.747314,1455
831.865662,1475
831.984009,1433
832.102356,1530
832.220642,1482
832.338928,1481
832.457275,1473
832.575623,1482
832.693909,1461
832.812134,1478
832.930481,1463
833.048828,1503
833.167114,1453
833.2854,1472
833.403687,1501
833.521973,1448
833.640259,1479
833.758545,1495
833.876831,1479
833.995056,1482
834.113281,1478
834.231628,1453
834.349915,1431
834.468201,1510
834.586426,1486
834.704651,1493
834.822998,1481
834.941162,1466
835.059448,1540
835.177673,1500
835.295959,1499
835.414246,1503
835.53241,1485
835.650635,1472
835.768921,1464
835.887146,1459
836.005371,1467
836.123596,1467
836.241821,1447
836.360046,1486
836.478271,1453
836.596497,1420
836.714722,1441
836.832886,1449
836.95105,1465
837.069336,1437
837.1875,1448
837.305725,1475
837.423889,1446
837.542053,1443
837.660339,1459
837.778503,1483
837.896667,1461
838.014832,1477
838.132996,1465
838.25116,1472
838.369385,1486
838.487488,1513
838.605713,1497
838.723877,1497
838.84198,1485
838.960205,1460
839.078308,1474
839.196472,1494
839.314636,1511
839.4328,1509
839.550964,1466
839.669067,1479
839.787231,1512
839.905396,1577
840.023499,1519
840.141602,1570
840.259766,1549
840.377869,1524
840.495972,1536
840.614136,1559
840.732239,1552
840.850342,1553
840.968445,1600
841.086548,1604
841.204651,1602
841.322754,1514
841.440918,1609
841.55896,1594
841.677002,1557
841.795166,1588
841.913208,1642
842.031311,1683
842.149353,1654
842.267456,1631
842.385498,1587
842.503601,1556
842.621643,1611
842.739746,1575
842.857788,1580
842.97583,1587
843.093933,1575
843.211975,1598
843.330017,1584
843.44812,1535
843.566101,1605
843.684204,1600
843.802246,1578
843.920227,1561
844.038269,1556
844.156311,1577
844.274292,1594
844.392395,1553
844.510376,1521
844.628357,1571
844.74646,1581
844.864441,1549
844.982422,1552
845.100403,1498
845.218384,1517
845.336426,1509
845.454468,1521
845.572449,1545
845.69043,1513
845.808411,1530
845.926453,1541
846.044373,1532
846.162354,1511
846.280396,1535
846.398315,1554
846.516296,1511
846.634216,1530
846.752197,1556
846.870178,1595
846.988098,1509
847.106079,1555
847.22406,1591
847.34198,1570
847.4599,1584
847.577881,1571
847.695801,1576
847.813782,1532
847.931641,1514
848.049561,1579
848.167603,1530
848.285461,1585
848.403381,1499
848.521362,1530
848.639221,1537
848.75708,1542
848.875,1544
848.99292,1558
849.110901,1557
849.22876,1595
849.34668,1523
849.464539,1577
849.582458,1576
849.700317,1522
849.818176,1540
849.936096,1572
850.053955,1498
850.171875,1566
850.289673,1547
850.407593,1586
850.525452,1557
850.643311,1564
850.761169,1538
850.878967,1551
850.996887,1533
851.114746,1524
851.232544,1547
851.350403,1502
851.468262,1533
851.58606,1507
851.703979,1557
851.821777,1543
851.939636,1535
852.057434,1513
852.175232,1519
852.293091,1526
852.410889,1568
852.528687,1587
852.646545,1648
852.764343,1631
852.88208,1632
852.999939,1648
853.117676,1582
853.235535,1565
853.353271,1522
853.471069,1563
853.588928,1568
853.706604,1529
853.824402,1506
853.9422,1499
854.059998,1573
854.177734,1563
854.295532,1563
854.413269,1563
854.531006,1569
854.648804,1564
854.766541,1622
854.884277,1576
855.002014,1539
855.119751,1570
855.237549,1568
855.355225,1538
855.473022,1542
855.590698,1517
855.708435,1588
855.826172,1565
855.943848,1566
856.061646,1561
856.179321,1551
856.296997,1545
856.414795,1622
856.53241,1531
856.650085,1610
856.767822,1645
856.885559,1636
857.003174,1601
857.120911,1654
857.238586,1621
857.356201,1639
857.473938,1634
857.591614,1619
857.709351,1564
857.826965,1522
857.944641,1609
858.062317,1636
858.179993,1644
858.297668,1567
858.415283,1621
858.532959,1636
858.650574,1680
858.768188,1593
858.885803,1604
859.003479,1584
859.121094,1538
859.23877,1587
859.356384,1563
859.473999,1570
859.591675,1581
859.709229,1572
859.826843,1543
859.944458,1525
860.062012,1519
860.179626,1541
860.297302,1569
860.414856,1507
860.532471,1509
860.650024,1514
860.767639,1522
860.885193,1539
861.002808,1529
861.120361,1534
861.237976,1532
861.35553,1555
861.473022,1541
861.590698,1512
861.708191,1564
861.825745,1529
861.943298,1535
862.060852,1547
862.178406,1528
862.295959,1511
862.413513,1520
862.531006,1506
862.64856,1458
862.766113,1461
862.883667,1407
863.00116,1474
863.118713,1507
863.236206,1456
863.353699,1486
863.471252,1490
863.588745,1534
863.706177,1471
863.82373,1480
863.941162,1505
864.058716,1511
864.176208,1511
864.29364,1515
864.411194,1456
864.528687,1471
864.646118,1487
864.763611,1477
864.881042,1458
864.998535,1449
865.116028,1471
865.233459,1462
865.350891,1477
865.468384,1486
865.585754,1479
865.703308,1500
865.820679,1479
865.938171,1447
866.055542,1473
866.173035,1469
866.290466,1499
866.407837,1459
866.52533,1476
866.6427,1470
866.760071,1455
866.877563,1504
866.994934,1453
867.112305,1483
867.229736,1466
867.347107,1501
867.464539,1506
867.58197,1547
867.699341,1511
867.81665,1501
867.934082,1514
868.051453,1494
868.168823,1520
868.286194,1537
868.403564,1493
868.520935,1497
868.638306,1485
868.755676,1481
868.872986,1539
868.990295,1556
869.107727,1508
869.225037,1506
869.342346,1524
869.459717,1541
869.577026,1568
869.694336,1542
869.811707,1534
869.929016,1576
870.046326,1537
870.163635,1548
870.280945,1545
870.398254,1589
870.515564,1573
870.632812,1589
870.750183,1564
870.867432,1555
870.984741,1605
871.102051,1587
871.219299,1616
871.336609,1562
871.453918,1655
871.571106,1635
871.688416,1654
871.805664,1642
871.922852,1680
872.040222,1593
872.157471,1656
872.274719,1699
872.391968,1658
872.509155,1625
872.626465,1638
872.743652,1612
872.860962,1635
872.978149,1606
873.095337,1665
873.212646,1616
873.329834,1572
873.44696,1613
873.564209,1590
873.681396,1618
873.798645,1577
873.915894,1595
874.03302,1613
874.150208,1643
874.267456,1593
874.384583,1624
874.501831,1640
874.618958,1657
874.736145,1675
874.853333,1662
874.970459,1649
875.087646,1672
875.204834,1659
875.32196,1626
875.439148,1607
875.556274,1631
875.673401,1616
875.790527,1583
875.907715,1622
876.024841,1573
876.141968,1579
876.259094,1538
876.376282,1506
876.493347,1576
876.610474,1556
876.7276,1610
876.844727,1575
876.961853,1529
877.078918,1601
877.195984,1534
877.313171,1574
877.430237,1553
877.547302,1599
877.664368,1543
877.781433,1525
877.898499,1522
878.015625,1558
878.13269,1559
878.249695,1528
878.366821,1505
878.483887,1529
878.600952,1498
878.717957,1463
878.834961,1495
878.952087,1520
879.069092,1479
879.186157,1494
879.303162,1498
879.420227,1484
879.537231,1518
879.654236,1469
879.77124,1489
879.888306,1436
880.005249,1465
880.122314,1482
880.239319,1460
880.356323,1469
880.473328,1473
880.590271,1437
880.707275,1460
880.824341,1429
880.941284,1464
881.058228,1464
881.175232,1416
881.292236,1464
881.40918,1429
881.526123,1462
881.643066,1469
881.760071,1488
881.877014,1475
881.993958,1487
882.11084,1454
882.227783,1436
882.344727,1461
882.46167,1465
882.578613,1422
882.695618,1421
882.812439,1441
882.929382,1471
883.046326,1458
883.163208,1465
883.280151,1462
883.397034,1468
883.513916,1468
883.630798,1458
883.747742,1443
883.864563,1530
883.981506,1486
884.098389,1516
884.21521,1483
884.332153,1519
884.448975,1529
884.565796,1590
884.682678,1592
884.7995,1651
884.916443,1641
885.033264,1695
885.150085,1710
885.266968,1792
885.383789,1824
885.500671,1847
885.617493,1836
885.734314,1832
885.851196,1863
885.967896,1822
886.084717,1852
886.201599,1773
886.318359,1786
886.435181,1795
886.552002,1789
886.668762,1811
886.785645,1703
886.902344,1752
887.019165,1715
887.135925,1746
887.252747,1755
887.369446,1682
887.486267,1727
887.603027,1680
887.719788,1617
887.836548,1637
887.953247,1633
888.070068,1566
888.186829,1532
888.303528,1537
888.420288,1569
888.536987,1511
888.653687,1476
888.770447,1474
888.887146,1453
889.003967,1480
889.120667,1448
889.237305,1427
889.354065,1400
889.470703,1418
889.587463,1432
889.704163,1444
889.820862,1442
889.937561,1468
890.054199,1391
890.170837,1409
890.287598,1406
890.404236,1442
890.520874,1373
890.637634,1418
890.754211,1419
890.87085,1431
890.987549,1426
891.104187,1428
891.220886,1437
891.337463,1432
891.454102,1466
891.57074,1455
891.687378,1460
891.804077,1453
891.920654,1428
892.037231,1448
892.15387,1414
892.270447,1412
892.387085,1444
892.503723,1451
892.6203,1427
892.736877,1437
892.853516,1405
892.970032,1413
893.08667,1404
893.203186,1476
893.319763,1431
893.43634,1421
893.552917,1471
893.669556,1413
893.786011,1389
893.902588,1401
894.019165,1449
894.135681,1443
894.252197,1431
894.368835,1421
894.485291,1441
894.601868,1425
894.718384,1428
894.8349,1449
894.951355,1407
895.067932,1419
895.184448,1420
895.300964,1433
895.417419,1450
895.533936,1388
895.650452,1430
895.766907,1394
895.883423,1454
895.999878,1407
896.116333,1415
896.232849,1409
896.349304,1397
896.465759,1404
896.582214,1438
896.698669,1424
896.815125,1406
896.931641,1426
897.048035,1409
897.164551,1447
897.280884,1395
897.397339,1429
897.513794,1436
897.630249,1423
897.746582,1432
897.863098,1389
897.979431,1428
898.095886,1396
898.212341,1440
898.328674,1414
898.445129,1426
898.561462,1475
898.677795,1462
898.794312,1450
898.910645,1409
899.026978,1415
899.143433,1439
899.259766,1421
899.37616,1424
899.492493,1438
899.608765,1413
899.725159,1418
899.841553,1446
899.957947,1452
900.07428,1458
900.190552,1429
900.306946,1450
900.423157,1433
900.53949,1443
900.655884,1431
900.772156,1472
900.888489,1435
901.004822,1445
901.121033,1436
901.237366,1428
901.353699,1444
901.46991,1426
901.586304,1440
901.702515,1476
901.818787,1458
901.93512,1494
902.051331,1485
902.167603,1557
902.283875,1567
902.400085,1541
902.516418,1559
902.632629,1629
902.74884,1569
902.865112,1639
902.981384,1645
903.097595,1669
903.213867,1657
903.330017,1625
903.446289,1601
903.5625,1583
903.67865,1640
903.794922,1577
903.911072,1542
904.027344,1555
904.143494,1567
904.259705,1536
904.375916,1508
904.492065,1511
904.608215,1441
904.724426,1514
904.840576,1471
904.956726,1463
905.072876,1496
905.189087,1488
905.305176,1457
905.421387,1447
905.537537,1466
905.653687,1480
905.769775,1445
905.885925,1424
906.002014,1474
906.118164,1416
906.234314,1466
906.350403,1412
906.466492,1436
906.582642,1436
906.69873,1411
906.814758,1420
906.930908,1415
907.046936,1422
907.163086,1427
907.279175,1419
907.395264,1451
907.511353,1412
907.62738,1401
907.743408,1407
907.859497,1423
907.975525,1389
908.091553,1447
908.207703,1388
908.32373,1403
908.439758,1414
908.555786,1441
908.671814,1423
908.787842,1376
908.90387,1430
909.019775,1412
909.135864,1391
909.251892,1454
909.367859,1455
909.483826,1452
909.599854,1451
909.715881,1385
909.831848,1475
909.947815,1456
910.063782,1400
910.179749,1446
910.295776,1422
910.411743,1422
910.527649,1458
910.643616,1487
910.759583,1417
910.875488,1422
910.991455,1402
911.107361,1456
911.223267,1413
911.339294,1416
911.4552,1422
911.571106,1395
911.687073,1424
911.802979,1384
911.918823,1420
912.034729,1421
912.150635,1399
912.266602,1410
912.382446,1451
912.498352,1399
912.614197,1403
912.730103,1393
912.846008,1408
792.44574,3683
792.56488,3569
792.68396,3565
792.80304,3397
792.92218,3268
793.041199,3238
793.160339,3200
793.279419,3123
793.398499,3107
793.517578,3019
793.636658,2920
793.755737,2932
793.874817,2858
793.993896,2912
794.112976,2793
794.232056,2720
794.351074,2651
794.470215,2619
794.589233,2635
794.708313,2611
794.827393,2552
794.946411,2506
795.065552,2542
795.18457,2499
795.303589,2489
795.422668,2441
795.541687,2438
795.660767,2371
795.779846,2399
795.898865,2331
796.017883,2365
796.136963,2281
796.255981,2342
796.375061,2307
796.49408,2274
796.613037,2246
796.732117,2240
796.851135,2183
796.970154,2240
797.089233,2171
797.208191,2174
797.327271,2142
797.446228,2174
797.565186,2189
797.684265,2130
797.803223,2094
797.922241,2087
798.04126,2098
798.160278,2044
798.279297,2062
798.398315,2029
798.517273,2066
798.636292,2037
798.75531,2028
798.874268,2021
798.993286,2034
799.112244,2061
799.231323,2037
799.350281,2065
799.469238,1991
799.588257,2023
799.707153,2004
799.826111,2025
799.945129,1966
800.064087,2027
800.183044,1964
800.302063,1983
800.421021,1971
800.539978,1941
800.658936,1978
800.777893,1947
800.896912,1938
801.015747,1933
801.134705,1907
801.253723,1875
801.37262,1916
801.491638,1930
801.610535,1904
801.729492,1904
801.84845,1904
801.967407,1827
802.086243,1909
802.205261,1888
802.324158,1918
802.443115,1858
802.562073,1872
802.680969,1894
802.799927,1835
802.918762,1848
803.037659,1834
803.156677,1820
803.275574,1798
803.39447,1827
803.513428,1873
803.632263,1801
803.751221,1811
803.870117,1783
803.989014,1854
804.107971,1843
804.226746,1766
804.345642,1745
804.4646,1822
804.583496,1775
804.702393,1799
804.821228,1750
804.940125,1775
805.059021,1805
805.177917,1759
805.296814,1756
805.415649,1772
805.534546,1747
805.653442,1819
805.772278,1773
805.891113,1806
806.01001,1711
806.128906,1805
806.247742,1758
806.366577,1724
806.485413,1773
806.604309,1742
806.723145,1757
806.84198,1785
806.960876,1755
807.079712,1731
807.198486,1753
807.317383,1754
807.436218,1714
807.554993,1743
807.673889,1754
807.792725,1689
807.91156,1761
808.030396,1715
808.14917,1694
808.268005,1724
808.386841,1764
808.505676,1764
808.624451,1696
808.743286,1722
808.862122,1741
808.980896,1717
809.099731,1683
809.218506,1730
809.337341,1686
809.456116,1753
809.57489,1726
809.693726,1745
809.8125,1723
809.931274,1664
810.050049,1714
810.168884,1690
810.287659,1670
810.406372,1743
810.525269,1694
810.643982,1715
810.762756,1710
810.881531,1719
811.000305,1725
811.11908,1693
811.237854,1747
811.356567,1739
811.475403,1748
811.594116,1698
811.71283,1706
811.831604,1750
811.950378,1731
812.069153,1724
812.187927,1748
812.30658,1704
812.425415,1719
812.544128,1744
812.662781,1767
812.781616,1774
812.900269,1695
813.019043,1755
813.137756,1698
813.256531,1707
813.375244,1739
813.493896,1722
813.612671,1705
813.731384,1655
813.850037,1679
813.96875,1631
814.087524,1664
814.206238,1676
814.324951,1608
814.443604,1689
814.562256,1645
814.68103,1682
814.799683,1729
814.918335,1716
815.037109,1680
815.155762,1684
815.274475,1659
815.393188,1676
815.511841,1665
815.630554,1649
815.749146,1666
815.867859,1663
815.986572,1678
816.105164,1721
816.223877,1653
816.342529,1651
816.461182,1661
816.579895,1679
816.698486,1697
816.817139,1707
816.935791,1706
817.054504,1726
817.173096,1714
817.291748,1698
817.4104,1719
817.529053,1695
817.647644,1677
817.766235,1675
817.884949,1665
818.00354,1617
818.122192,1638
818.240845,1643
818.359436,1626
818.478088,1650
818.59668,1629
818.715271,1617
818.833923,1599
818.952515,1584
819.071106,1587
819.189758,1624
819.30835,1569
819.426941,1618
819.545532,1534
819.664124,1593
819.782715,1573
819.901306,1562
820.019897,1524
820.138489,1577
820.25708,1581
820.375671,1570
820.494202,1573
820.612732,1633
820.731384,1559
820.849915,1576
820.968506,1575
821.087097,1540
821.205627,1546
821.324158,1587
821.442749,1570
821.561279,1568
821.679871,1513
821.798401,1558
821.916931,1524
822.035461,1559
822.154053,1553
822.272583,1553
822.391174,1517
822.509583,1552
822.628174,1479
822.746704,1543
822.865234,1477
822.983765,1575
823.102295,1525
823.220825,1511
823.339294,1540
823.457825,1537
823.576355,1525
823.694824,1552
823.813354,1502
823.931885,1555
824.050354,1516
824.168884,1504
824.287354,1546
824.405823,1470
824.524353,1566
824.642822,1490
824.761353,1567
824.879822,1513
824.998291,1561
825.116699,1495
825.235291,1553
825.353699,1503
825.472168,1516
825.590637,1509
825.709106,1521
825.827576,1464
825.946045,1509
826.064453,1512
826.182983,1516
826.301392,1529
826.4198,1451
826.53833,1487
826.656738,1489
826.775208,1471
826.893677,1479
827.012024,1505
827.130493,1540
827.248962,1468
827.36731,1538
827.485779,1492
827.604248,1527
827.722595,1467
827.841064,1502
827.959412,1460
828.077942,1485
828.196289,1430
828.314636,1468
828.433105,1471
828.551514,1457
828.669861,1488
828.78833,1497
828.906677,1464
829.025085,1488
829.143433,1503
829.261841,1450
829.38031,1485
829.498657,1464
829.617004,1471
829.735413,1479
829.85376,1477
829.972107,1466
830.090515,1459
830.208862,1477
830.327209,1448
830.445557,1541
830.563904,1448
830.682312,1492
830.800659,1527
830.919006,1522
831.037354,1488
831.155701,1513
831.274048,1509
831.392395,1541
831.51062,1510
831.629028,1490
831.747314,1502
831.865662,1441
831.984009,1464
832.102356,1506
832.220642,1472
832.338928,1529
832.457275,1510
832.575623,1501
832.693909,1497
832.812134,1491
832.930481,1519
833.048828,1464
833.167114,1516
833.2854,1491
833.403687,1462
833.521973,1486
833.640259,1480
833.758545,1471
833.876831,1495
833.995056,1524
834.113281,1505
834.231628,1523
834.349915,1469
834.468201,1524
834.586426,1504
834.704651,1526
834.822998,1514
834.941162,1472
835.059448,1486
835.177673,1494
835.295959,1504
835.414246,1477
835.53241,1446
835.650635,1474
835.768921,1475
835.887146,1496
836.005371,1457
836.123596,1483
836.241821,1463
836.360046,1487
836.478271,1505
836.596497,1443
836.714722,1435
836.832886,1505
836.95105,1418
837.069336,1497
837.1875,1429
837.305725,1470
837.423889,1500
837.542053,1428
837.660339,1498
837.778503,1468
837.896667,1440
838.014832,1457
838.132996,1467
838.25116,1472
838.369385,1499
838.487488,1533
838.605713,1499
838.723877,1479
838.84198,1457
838.960205,1513
839.078308,1492
839.196472,1526
839.314636,1550
839.4328,1505
839.550964,1525
839.669067,1506
839.787231,1574
839.905396,1558
840.023499,1587
840.141602,1562
840.259766,1609
840.377869,1576
840.495972,1576
840.614136,1539
840.732239,1600
840.850342,1560
840.968445,1595
841.086548,1572
841.204651,1609
841.322754,1603
841.440918,1554
841.55896,1580
841.677002,1638
841.795166,1677
841.913208,1645
842.031311,1634
842.149353,1679
842.267456,1597
842.385498,1603
842.503601,1613
842.621643,1601
842.739746,1562
842.857788,1588
842.97583,1596
843.093933,1613
843.211975,1576
843.330017,1600
843.44812,1590
843.566101,1626
843.684204,1582
843.802246,1638
843.920227,1627
844.038269,1603
844.156311,1545
844.274292,1611
844.392395,1580
844.510376,1574
844.628357,1580
844.74646,1590
844.864441,1559
844.982422,1597
845.100403,1526
845.218384,1527
845.336426,1535
845.454468,1542
845.572449,1508
845.69043,1565
845.808411,1513
845.926453,1558
846.044373,1595
846.162354,1562
846.280396,1591
846.398315,1552
846.516296,1583
846.634216,1533
846.752197,1594
846.870178,1552
846.988098,1565
847.106079,1594
847.22406,1562
847.34198,1536
847.4599,1570
847.577881,1568
847.695801,1594
847.813782,1574
847.931641,1572
848.049561,1533
848.167603,1571
848.285461,1594
848.403381,1554
848.521362,1557
848.639221,1570
848.75708,1571
848.875,1582
848.99292,1564
849.110901,1565
849.22876,1616
849.34668,1605
849.464539,1624
849.582458,1605
849.700317,1592
849.818176,1580
849.936096,1555
850.053955,1597
850.171875,1589
850.289673,1559
850.407593,1553
850.525452,1571
850.643311,1595
850.761169,1625
850.878967,1577
850.996887,1565
851.114746,1553
851.232544,1513
851.350403,1563
851.468262,1543
851.58606,1528
851.703979,1539
851.821777,1514
851.939636,1570
852.057434,1562
852.175232,1564
852.293091,1566
852.410889,1597
852.528687,1606
852.646545,1627
852.764343,1614
852.88208,1637
852.999939,1590
853.117676,1594
853.235535,1607
853.353271,1556
853.471069,1549
853.588928,1569
853.706604,1566
853.824402,1565
853.9422,1527
854.059998,1557
854.177734,1616
854.295532,1573
854.413269,1563
854.531006,1596
854.648804,1594
854.766541,1534
854.884277,1583
855.002014,1559
855.119751,1574
855.237549,1552
855.355225,1573
855.473022,1583
855.590698,1606
855.708435,1573
855.826172,1588
855.943848,1573
856.061646,1597
856.179321,1597
856.296997,1588
856.414795,1578
856.53241,1557
856.650085,1669
856.767822,1629
856.885559,1622
857.003174,1649
857.120911,1663
857.238586,1600
857.356201,1628
857.473938,1631
857.591614,1594
857.709351,1653
857.826965,1585
857.944641,1601
858.062317,1618
858.179993,1614
858.297668,1616
858.415283,1640
858.532959,1647
858.650574,1666
858.768188,1659
858.885803,1651
859.003479,1642
859.121094,1605
859.23877,1567
859.356384,1568
859.473999,1563
859.591675,1610
859.709229,1550
859.826843,1560
859.944458,1550
860.062012,1560
860.179626,1555
860.297302,1532
860.414856,1566
860.532471,1542
860.650024,1532
860.767639,1509
860.885193,1527
861.002808,1605
861.120361,1554
861.237976,1529
861.35553,1557
861.473022,1604
861.590698,1557
861.708191,1626
861.825745,1586
861.943298,1577
862.060852,1584
862.178406,1492
862.295959,1532
862.413513,1503
862.531006,1451
862.64856,1507
862.766113,1452
862.883667,1508
863.00116,1435
863.118713,1514
863.236206,1468
863.353699,1499
863.471252,1512
863.588745,1494
863.706177,1509
863.82373,1474
863.941162,1542
864.058716,1527
864.176208,1479
864.29364,1505
864.411194,1513
864.528687,1498
864.646118,1504
864.763611,1465
864.881042,1470
864.998535,1528
865.116028,1512
865.233459,1466
865.350891,1451
865.468384,1493
865.585754,1482
865.703308,1475
865.820679,1504
865.938171,1481
866.055542,1464
866.173035,1500
866.290466,1469
866.407837,1501
866.52533,1474
866.6427,1535
866.760071,1478
866.877563,1504
866.994934,1538
867.112305,1452
867.229736,1553
867.347107,1492
867.464539,1500
867.58197,1483
867.699341,1523
867.81665,1517
867.934082,1478
868.051453,1545
868.168823,1519
868.286194,1517
868.403564,1493
868.520935,1512
868.638306,1550
868.755676,1511
868.872986,1510
868.990295,1530
869.107727,1533
869.225037,1543
869.342346,1545
869.459717,1519
869.577026,1539
869.694336,1545
869.811707,1546
869.929016,1579
870.046326,1577
870.163635,1603
870.280945,1560
870.398254,1564
870.515564,1585
870.632812,1593
870.750183,1613
870.867432,1644
870.984741,1584
871.102051,1592
871.219299,1680
871.336609,1640
871.453918,1673
871.571106,1623
871.688416,1660
871.805664,1653
871.922852,1697
872.040222,1682
872.157471,1697
872.274719,1693
872.391968,1678
872.509155,1645
872.626465,1629
872.743652,1668
872.860962,1606
872.978149,1631
873.095337,1598
873.212646,1634
873.329834,1626
873.44696,1625
873.564209,1600
873.681396,1603
873.798645,1630
873.915894,1651
874.03302,1583
874.150208,1639
874.267456,1618
874.384583,1632
874.501831,1666
874.618958,1651
874.736145,1639
874.853333,1685
874.970459,1681
875.087646,1642
875.204834,1653
875.32196,1653
875.439148,1639
875.556274,1646
875.673401,1617
875.790527,1605
875.907715,1627
876.024841,1564
876.141968,1606
876.259094,1571
876.376282,1573
876.493347,1637
876.610474,1568
876.7276,1583
876.844727,1565
876.961853,1556
877.078918,1579
877.195984,1557
877.313171,1587
877.430237,1565
877.547302,1588
877.664368,1535
877.781433,1571
877.898499,1586
878.015625,1546
878.13269,1521
878.249695,1525
878.366821,1581
878.483887,1561
878.600952,1535
878.717957,1545
878.834961,1549
878.952087,1530
879.069092,1535
879.186157,1505
879.303162,1509
879.420227,1532
879.537231,1460
879.654236,1512
879.77124,1487
879.888306,1500
880.005249,1465
880.122314,1507
880.239319,1523
880.356323,1498
880.473328,1451
880.590271,1439
880.707275,1438
880.824341,1473
880.941284,1454
881.058228,1471
881.175232,1447
881.292236,1463
881.40918,1435
881.526123,1456
881.643066,1476
881.760071,1448
881.877014,1464
881.993958,1493
882.11084,1472
882.227783,1424
882.344727,1489
882.46167,1488
882.578613,1501
882.695618,1453
882.812439,1464
882.929382,1495
883.046326,1494
883.163208,1463
883.280151,1441
883.397034,1464
883.513916,1463
883.630798,1482
883.747742,1548
883.864563,1507
883.981506,1508
884.098389,1520
884.21521,1557
884.332153,1581
884.448975,1560
884.565796,1544
884.682678,1584
884.7995,1621
884.916443,1708
885.033264,1692
885.150085,1772
885.266968,1852
885.383789,1821
885.500671,1883
885.617493,1864
885.734314,1828
885.851196,1855
885.967896,1854
886.084717,1849
886.201599,1833
886.318359,1822
886.435181,1854
886.552002,1812
886.668762,1789
886.785645,1725
886.902344,1758
887.019165,1741
887.135925,1741
887.252747,1719
887.369446,1718
887.486267,1717
887.603027,1647
887.719788,1675
887.836548,1658
887.953247,1635
888.070068,1569
888.186829,1557
888.303528,1538
888.420288,1549
888.536987,1501
888.653687,1511
888.770447,1521
888.887146,1462
889.003967,1467
889.120667,1485
889.237305,1432
889.354065,1481
889.470703,1426
889.587463,1472
889.704163,1431
889.820862,1408
889.937561,1407
890.054199,1462
890.170837,1429
890.287598,1446
890.404236,1434
890.520874,1438
890.637634,1441
890.754211,1438
890.87085,1462
890.987549,1454
891.104187,1526
891.220886,1450
891.337463,1435
891.454102,1433
891.57074,1446
891.687378,1473
891.804077,1476
891.920654,1467
892.037231,1448
892.15387,1454
892.270447,1463
892.387085,1446
892.503723,1487
892.6203,1477
892.736877,1412
892.853516,1479
892.970032,1453
893.08667,1464
893.203186,1413
893.319763,1446
893.43634,1441
893.552917,1467
893.669556,1442
893.786011,1453
893.902588,1462
894.019165,1493
894.135681,1430
894.252197,1493
894.368835,1427
894.485291,1428
894.601868,1414
894.718384,1423
894.8349,1467
894.951355,1443
895.067932,1428
895.184448,1434
895.300964,1442
895.417419,1425
895.533936,1460
895.650452,1484
895.766907,1430
895.883423,1445
895.999878,1439
896.116333,1451
896.232849,1450
896.349304,1432
896.465759,1441
896.582214,1445
896.698669,1394
896.815125,1475
896.931641,1492
897.048035,1420
897.164551,1419
897.280884,1481
897.397339,1461
897.513794,1457
897.630249,1429
897.746582,1467
897.863098,1469
897.979431,1436
898.095886,1427
898.212341,1442
898.328674,1461
898.445129,1481
898.561462,1481
898.677795,1499
898.794312,1446
898.910645,1505
899.026978,1532
899.143433,1468
899.259766,1438
899.37616,1434
899.492493,1514
899.608765,1502
899.725159,1505
899.841553,1464
899.957947,1486
900.07428,1459
900.190552,1446
900.306946,1450
900.423157,1436
900.53949,1475
900.655884,1466
900.772156,1457
900.888489,1485
901.004822,1460
901.121033,1512
901.237366,1484
901.353699,1492
901.46991,1525
901.586304,1504
901.702515,1518
901.818787,1542
901.93512,1542
902.051331,1561
902.167603,1600
902.283875,1621
902.400085,1635
902.516418,1644
902.632629,1612
902.74884,1613
902.865112,1634
902.981384,1679
903.097595,1693
903.213867,1663
903.330017,1674
903.446289,1594
903.5625,1599
903.67865,1614
903.794922,1641
903.911072,1599
904.027344,1587
904.143494,1555
904.259705,1595
904.375916,1564
904.492065,1555
904.608215,1531
904.724426,1544
904.840576,1508
904.956726,1507
905.072876,1489
905.189087,1511
905.305176,1476
905.421387,1476
905.537537,1508
905.653687,1452
905.769775,1479
905.885925,1452
906.002014,1414
906.118164,1479
906.234314,1451
906.350403,1482
906.466492,1429
906.582642,1440
906.69873,1471
906.814758,1466
906.930908,1439
907.046936,1467
907.163086,1417
907.279175,1416
907.395264,1422
907.511353,1433
907.62738,1480
907.743408,1439
907.859497,1468
907.975525,1435
908.091553,1449
908.207703,1479
908.32373,1451
908.439758,1475
908.555786,1423
908.671814,1477
908.787842,1439
908.90387,1418
909.019775,1410
909.135864,1488
909.251892,1463
909.367859,1441
909.483826,1514
909.599854,1500
909.715881,1504
909.831848,1498
909.947815,1479
910.063782,1477
910.179749,1525
910.295776,1448
910.411743,1456
910.527649,1476
910.643616,1496
910.759583,1447
910.875488,1430
910.991455,1424
911.107361,1444
911.223267,1456
911.339294,1464
911.4552,1457
911.571106,1464
911.687073,1444
911.802979,1447
911.918823,1454
912.034729,1396
912.150635,1436
912.266602,1418
912.382446,1430
912.498352,1456
912.614197,1453
912.730103,1475
912.846008,1432
792.44574,3658
792.56488,3510
792.68396,3529
792.80304,3416
792.92218,3339
793.041199,3175
793.160339,3151
793.279419,3162
793.398499,3140
793.517578,3022
793.636658,2915
793.755737,2958
793.874817,2882
793.993896,2800
794.112976,2782
794.232056,2717
794.351074,2737
794.470215,2690
794.589233,2648
794.708313,2584
794.827393,2540
794.946411,2575
795.065552,2517
795.18457,2500
795.303589,2523
795.422668,2455
795.541687,2462
795.660767,2457
795.779846,2427
795.898865,2315
796.017883,2291
796.136963,2362
796.255981,2289
796.375061,2302
796.49408,2278
796.613037,2273
796.732117,2218
796.851135,2228
796.970154,2191
797.089233,2205
797.208191,2190
797.327271,2162
797.446228,2169
797.565186,2109
797.684265,2172
797.803223,2112
797.922241,2059
798.04126,2107
798.160278,2057
798.279297,2077
798.398315,2033
798.517273,2086
798.636292,2030
798.75531,2042
798.874268,2041
798.993286,2029
799.112244,2010
799.231323,1998
799.350281,2051
799.469238,2057
799.588257,2007
799.707153,1990
799.826111,1992
799.945129,1946
800.064087,1968
800.183044,1963
800.302063,1918
800.421021,2014
800.539978,1996
800.658936,1940
800.777893,1926
800.896912,1932
801.015747,1952
801.134705,1944
801.253723,1862
801.37262,1927
801.491638,1924
801.610535,1867
801.729492,1938
801.84845,1878
801.967407,1903
802.086243,1872
802.205261,1874
802.324158,1838
802.443115,1797
802.562073,1886
802.680969,1837
802.799927,1847
802.918762,1850
803.037659,1835
803.156677,1833
803.275574,1817
803.39447,1848
803.513428,1838
803.632263,1783
803.751221,1868
803.870117,1848
803.989014,1824
804.107971,1780
804.226746,1826
804.345642,1816
804.4646,1814
804.583496,1784
804.702393,1799
804.821228,1791
804.940125,1782
805.059021,1740
805.177917,1781
805.296814,1796
805.415649,1755
805.534546,1760
805.653442,1775
805.772278,1804
805.891113,1750
806.01001,1770
806.128906,1781
806.247742,1768
806.366577,1788
806.485413,1807
806.604309,1729
806.723145,1752
806.84198,1807
806.960876,1723
807.079712,1704
807.198486,1760
807.317383,1785
807.436218,1709
807.554993,1758
807.673889,1744
807.792725,1729
807.91156,1777
808.030396,1718
808.14917,1692
808.268005,1694
808.386841,1688
808.505676,1728
808.624451,1700
808.743286,1721
808.862122,1748
808.980896,1679
809.099731,1728
809.218506,1728
809.337341,1711
809.456116,1736
809.57489,1772
809.693726,1724
809.8125,1714
809.931274,1710
810.050049,1695
810.168884,1726
810.287659,1684
810.406372,1697
810.525269,1728
810.643982,1738
810.762756,1687
810.881531,1710
811.000305,1691
811.11908,1698
811.237854,1687
811.356567,1725
811.475403,1749
811.594116,1689
811.71283,1747
811.831604,1725
811.950378,1741
812.069153,1712
812.187927,1709
812.30658,1762
812.425415,1742
812.544128,1731
812.662781,1745
812.781616,1746
812.900269,1736
813.019043,1732
813.137756,1707
813.256531,1762
813.375244,1725
813.493896,1702
813.612671,1713
813.731384,1672
813.850037,1691
813.96875,1714
814.087524,1662
814.206238,1667
814.324951,1643
814.443604,1665
814.562256,1693
814.68103,1720
814.799683,1657
814.918335,1684
815.037109,1693
815.155762,1710
815.274475,1700
815.393188,1654
815.511841,1681
815.630554,1684
815.749146,1662
815.867859,1661
815.986572,1714
816.105164,1653
816.223877,1703
816.342529,1676
816.461182,1596
816.579895,1666
816.698486,1691
816.817139,1696
816.935791,1772
817.054504,1691
817.173096,1678
817.291748,1684
817.4104,1687
817.529053,1640
817.647644,1681
817.766235,1675
817.884949,1641
818.00354,1634
818.122192,1635
818.240845,1640
818.359436,1579
818.478088,1640
818.59668,1600
818.715271,1579
818.833923,1627
818.952515,1577
819.071106,1594
819.189758,1640
819.30835,1590
819.426941,1560
819.545532,1629
819.664124,1622
819.782715,1593
819.901306,1535
820.019897,1569
820.138489,1596
820.25708,1543
820.375671,1604
820.494202,1591
820.612732,1565
820.731384,1624
820.849915,1591
820.968506,1614
821.087097,1543
821.205627,1572
821.324158,1540
821.442749,1488
821.561279,1559
821.679871,1563
821.798401,1581
821.916931,1553
822.035461,1592
822.154053,1567
822.272583,1536
822.391174,1517
822.509583,1563
822.628174,1516
822.746704,1533
822.865234,1516
822.983765,1533
823.102295,1514
823.220825,1540
823.339294,1510
823.457825,1531
823.576355,1504
823.694824,1496
823.813354,1541
823.931885,1523
824.050354,1518
824.168884,1526
824.287354,1525
824.405823,1471
824.524353,1569
824.642822,1540
824.761353,1550
824.879822,1511
824.998291,1535
825.116699,1509
825.235291,1572
825.353699,1557
825.472168,1558
825.590637,1513
825.709106,1490
825.827576,1505
825.946045,1525
826.064453,1520
826.182983,1519
826.301392,1472
826.4198,1489
826.53833,1466
826.656738,1545
826.775208,1497
826.893677,1436
827.012024,1486
827.130493,1469
827.248962,1507
827.36731,1500
827.485779,1519
827.604248,1485
827.722595,1490
827.841064,1452
827.959412,1505
828.077942,1473
828.196289,1467
828.314636,1483
828.433105,1488
828.551514,1432
828.669861,1478
828.78833,1473
828.906677,1464
829.025085,1482
829.143433,1500
829.261841,1440
829.38031,1488
829.498657,1443
829.617004,1504
829.735413,1472
829.85376,1502
829.972107,1453
830.090515,1506
830.208862,1421
830.327209,1493
830.445557,1437
830.563904,1484
830.682312,1530
830.800659,1477
830.919006,1514
831.037354,1524
831.155701,1536
831.274048,1556
831.392395,1504
831.51062,1503
831.629028,1517
831.747314,1439
831.865662,1532
831.984009,1468
832.102356,1516
832.220642,1495
832.338928,1490
832.457275,1569
832.575623,1526
832.693909,1460
832.812134,1547
832.930481,1513
833.048828,1496
833.167114,1509
833.2854,1462
833.403687,1495
833.521973,1507
833.640259,1481
833.758545,1487
833.876831,1476
833.995056,1541
834.113281,1498
834.231628,1529
834.349915,1469
834.468201,1528
834.586426,1504
834.704651,1516
834.822998,1481
834.941162,1494
835.059448,1502
835.177673,1482
835.295959,1465
835.414246,1475
835.53241,1520
835.650635,1514
835.768921,1480
835.887146,1528
836.005371,1482
836.123596,1481
836.241821,1467
836.360046,1439
836.478271,1413
836.596497,1454
836.714722,1431
836.832886,1487
836.95105,1408
837.069336,1435
837.1875,1466
837.305725,1460
837.423889,1479
837.542053,1462
837.660339,1459
837.778503,1491
837.896667,1467
838.014832,1523
838.132996,1483
838.25116,1455
838.369385,1492
838.487488,1476
838.605713,1512
838.723877,1485
838.84198,1507
838.960205,1515
839.078308,1490
839.196472,1488
839.314636,1490
839.4328,1457
839.550964,1530
839.669067,1551
839.787231,1576
839.905396,1569
840.023499,1538
840.141602,1579
840.259766,1591
840.377869,1570
840.495972,1556
840.614136,1567
840.732239,1551
840.850342,1597
840.968445,1593
841.086548,1613
841.204651,1620
841.322754,1554
841.440918,1677
841.55896,1631
841.677002,1638
841.795166,1632
841.913208,1622
842.031311,1649
842.149353,1662
842.267456,1609
842.385498,1627
842.503601,1605
842.621643,1597
842.739746,1596
842.857788,1608
842.97583,1647
843.093933,1635
843.211975,1565
843.330017,1628
843.44812,1607
843.566101,1595
843.684204,1583
843.802246,1554
843.920227,1598
844.038269,1595
844.156311,1586
844.274292,1559
844.392395,1590
844.510376,1612
844.628357,1595
844.74646,1568
844.864441,1576
844.982422,1553
845.100403,1589
845.218384,1525
845.336426,1540
845.454468,1522
845.572449,1569
845.69043,1589
845.808411,1551
845.926453,1505
846.044373,1506
846.162354,1538
846.280396,1597
846.398315,1574
846.516296,1576
846.634216,1588
846.752197,1543
846.870178,1584
846.988098,1557
847.106079,1615
847.22406,1612
847.34198,1550
847.4599,1608
847.577881,1619
847.695801,1580
847.813782,1639
847.931641,1556
848.049561,1584
848.167603,1555
848.285461,1562
848.403381,1563
848.521362,1540
848.639221,1572
848.75708,1569
848.875,1590
848.99292,1576
849.110901,1621
849.22876,1554
849.34668,1588
849.464539,1568
849.582458,1579
849.700317,1568
849.818176,1567
849.936096,1578
850.053955,1561
850.171875,1593
850.289673,1550
850.407593,1551
850.525452,1537
850.643311,1555
850.761169,1584
850.878967,1563
850.996887,1599
851.114746,1538
851.232544,1582
851.350403,1569
851.468262,1545
851.58606,1537
851.703979,1563
851.821777,1573
851.939636,1549
852.057434,1536
852.175232,1582
852.293091,1535
852.410889,1608
852.528687,1645
852.646545,1711
852.764343,1629
852.88208,1659
852.999939,1635
853.117676,1593
853.235535,1566
853.353271,1559
853.471069,1557
853.588928,1572
853.706604,1546
853.824402,1573
853.9422,1533
854.059998,1576
854.177734,1571
854.295532,1592
854.413269,1552
854.531006,1596
854.648804,1597
854.766541,1586
854.884277,1540
855.002014,1608
855.119751,1547
855.237549,1632
855.355225,1542
855.473022,1566
855.590698,1590
855.708435,1578
855.826172,1569
855.943848,1579
856.061646,1541
856.179321,1605
856.296997,1607
856.414795,1581
856.53241,1632
856.650085,1634
856.767822,1630
856.885559,1654
857.003174,1648
857.120911,1633
857.238586,1655
857.356201,1662
857.473938,1616
857.591614,1633
857.709351,1615
857.826965,1595
857.944641,1608
858.062317,1677
858.179993,1634
858.297668,1612
858.415283,1590
858.532959,1631
858.650574,1630
858.768188,1681
858.885803,1623
859.003479,1612
859.121094,1606
859.23877,1617
859.356384,1596
859.473999,1554
859.591675,1598
859.709229,1608
859.826843,1623
859.944458,1581
860.062012,1567
860.179626,1571
860.297302,1559
860.414856,1582
860.532471,1534
860.650024,1559
860.767639,1585
860.885193,1563
861.002808,1541
861.120361,1598
861.237976,1570
861.35553,1611
861.473022,1551
861.590698,1533
861.708191,1624
861.825745,1572
861.943298,1520
862.060852,1577
862.178406,1534
862.295959,1511
862.413513,1445
862.531006,1522
862.64856,1448
862.766113,1490
862.883667,1481
863.00116,1509
863.118713,1503
863.236206,1465
863.353699,1501
863.471252,1496
863.588745,1507
863.706177,1508
863.82373,1496
863.941162,1481
864.058716,1572
864.176208,1549
864.29364,1538
864.411194,1520
864.528687,1498
864.646118,1503
864.763611,1491
864.881042,1490
864.998535,1499
865.116028,1509
865.233459,1461
865.350891,1522
865.468384,1431
865.585754,1544
865.703308,1501
865.820679,1508
865.938171,1494
866.055542,1495
866.173035,1502
866.290466,1473
866.407837,1462
866.52533,1509
866.6427,1512
866.760071,1508
866.877563,1475
866.994934,1458
867.112305,1517
867.229736,1508
867.347107,1558
867.464539,1516
867.58197,1494
867.699341,1569
867.81665,1520
867.934082,1523
868.051453,1499
868.168823,1530
868.286194,1500
868.403564,1533
868.520935,1560
868.638306,1539
868.755676,1499
868.872986,1520
868.990295,1543
869.107727,1520
869.225037,1518
869.342346,1571
869.459717,1549
869.577026,1539
869.694336,1541
869.811707,1571
869.929016,1538
870.046326,1570
870.163635,1559
870.280945,1616
870.398254,1556
870.515564,1585
870.632812,1551
870.750183,1590
870.867432,1609
870.984741,1589
871.102051,1622
871.219299,1660
871.336609,1640
871.453918,1705
871.571106,1671
871.688416,1661
871.805664,1640
871.922852,1710
872.040222,1630
872.157471,1671
872.274719,1659
872.391968,1622
872.509155,1675
872.626465,1648
872.743652,1638
872.860962,1698
872.978149,1654
873.095337,1620
873.212646,1634
873.329834,1608
873.44696,1638
873.564209,1609
873.681396,1597
873.798645,1568
873.915894,1621
874.03302,1614
874.150208,1643
874.267456,1645
874.384583,1671
874.501831,1652
874.618958,1690
874.736145,1638
874.853333,1661
874.970459,1656
875.087646,1662
875.204834,1705
875.32196,1640
875.439148,1678
875.556274,1664
875.673401,1697
875.790527,1604
875.907715,1607
876.024841,1605
876.141968,1603
876.259094,1626
876.376282,1580
876.493347,1586
876.610474,1555
876.7276,1647
876.844727,1553
876.961853,1555
877.078918,1574
877.195984,1582
877.313171,1584
877.430237,1561
877.547302,1542
877.664368,1572
877.781433,1538
877.898499,1541
878.015625,1550
878.13269,1591
878.249695,1573
878.366821,1517
878.483887,1564
878.600952,1541
878.717957,1544
878.834961,1539
878.952087,1534
879.069092,1501
879.186157,1557
879.303162,1517
879.420227,1534
879.537231,1529
879.654236,1536
879.77124,1492
879.888306,1498
880.005249,1482
880.122314,1473
880.239319,1537
880.356323,1505
880.473328,1501
880.590271,1457
880.707275,1515
880.824341,1490
880.941284,1460
881.058228,1491
881.175232,1477
881.292236,1500
881.40918,1485
881.526123,1441
881.643066,1465
881.760071,1502
881.877014,1510
881.993958,1430
882.11084,1484
882.227783,1471
882.344727,1468
882.46167,1468
882.578613,1452
882.695618,1452
882.812439,1465
882.929382,1484
883.046326,1491
883.163208,1524
883.280151,1497
883.397034,1510
883.513916,1465
883.630798,1481
883.747742,1506
883.864563,1496
883.981506,1511
884.098389,1546
884.21521,1553
884.332153,1565
884.448975,1613
884.565796,1555
884.682678,1595
884.7995,1670
884.916443,1677
885.033264,1759
885.150085,1780
885.266968,1809
885.383789,1848
885.500671,1892
885.617493,1861
885.734314,1845
885.851196,1867
885.967896,1870
886.084717,1837
886.201599,1853
886.318359,1836
886.435181,1794
886.552002,1799
886.668762,1789
886.785645,1757
886.902344,1837
887.019165,1802
887.135925,1723
887.252747,1742
887.369446,1709
887.486267,1713
887.603027,1687
887.719788,1660
887.836548,1647
887.953247,1624
888.070068,1646
888.186829,1570
888.303528,1587
888.420288,1575
888.536987,1552
888.653687,1517
888.770447,1488
888.887146,1528
889.003967,1518
889.120667,1477
889.237305,1495
889.354065,1458
889.470703,1455
889.587463,1398
889.704163,1446
889.820862,1465
889.937561,1470
890.054199,1450
890.170837,1441
890.287598,1470
890.404236,1458
890.520874,1424
890.637634,1437
890.754211,1481
890.87085,1448
890.987549,1480
891.104187,1419
891.220886,1513
891.337463,1493
891.454102,1492
891.57074,1517
891.687378,1426
891.804077,1493
891.920654,1476
892.037231,1435
892.15387,1513
892.270447,1448
892.387085,1485
892.503723,1474
892.6203,1453
892.736877,1450
892.853516,1473
892.970032,1435
893.08667,1443
893.203186,1444
893.319763,1418
893.43634,1454
893.552917,1445
893.669556,1468
893.786011,1475
893.902588,1429
894.019165,1478
894.135681,1488
894.252197,1428
894.368835,1463
894.485291,1451
894.601868,1459
894.718384,1469
894.8349,1394
894.951355,1462
895.067932,1475
895.184448,1480
895.300964,1452
895.417419,1419
895.533936,1436
895.650452,1453
895.766907,1422
895.883423,1460
895.999878,1429
896.116333,1502
896.232849,1468
896.349304,1461
896.465759,1418
896.582214,1461
896.698669,1437
896.815125,1413
896.931641,1449
897.048035,1498
897.164551,1456
897.280884,1446
897.397339,1457
897.513794,1451
897.630249,1461
897.746582,1486
897.863098,1425
897.979431,1502
898.095886,1429
898.212341,1448
898.328674,1513
898.445129,1431
898.561462,1445
898.677795,1496
898.794312,1497
898.910645,1442
899.026978,1460
899.143433,1493
899.259766,1460
899.37616,1435
899.492493,1492
899.608765,1480
899.725159,1471
899.841553,1459
899.957947,1501
900.07428,1469
900.190552,1492
900.306946,1462
900.423157,1465
900.53949,1496
900.655884,1480
900.772156,1475
900.888489,1495
901.004822,1448
901.121033,1535
901.237366,1479
901.353699,1506
901.46991,1507
901.586304,1513
901.702515,1528
901.818787,1543
901.93512,1558
902.051331,1565
902.167603,1593
902.283875,1622
902.400085,1631
902.516418,1640
902.632629,1643
902.74884,1672
902.865112,1685
902.981384,1694
903.097595,1702
903.213867,1664
903.330017,1673
903.446289,1642
903.5625,1611
903.67865,1601
903.794922,1634
903.911072,1617
904.027344,1578
904.143494,1586
904.259705,1579
904.375916,1575
904.492065,1527
904.608215,1533
904.724426,1540
904.840576,1508
904.956726,1490
905.072876,1498
905.189087,1471
905.305176,1463
905.421387,1505
905.537537,1514
905.653687,1448
905.769775,1503
905.885925,1480
906.002014,1485
906.118164,1464
906.234314,1462
906.350403,1502
906.466492,1501
906.582642,1457
906.69873,1514
906.814758,1486
906.930908,1488
907.046936,1442
907.163086,1461
907.279175,1463
907.395264,1476
907.511353,1394
907.62738,1423
907.743408,1473
907.859497,1486
907.975525,1435
908.091553,1455
908.207703,1462
908.32373,1432
908.439758,1453
908.555786,1434
908.671814,1460
908.787842,1462
908.90387,1472
909.019775,1464
909.135864,1437
909.251892,1477
909.367859,1487
909.483826,1482
909.599854,1475
909.715881,1448
909.831848,1481
909.947815,1497
910.063782,1477
910.179749,1534
910.295776,1450
910.411743,1505
910.527649,1409
910.643616,1498
910.759583,1452
910.875488,1454
910.991455,1425
911.107361,1512
911.223267,1413
911.339294,1440
911.4552,1483
911.571106,1455
911.687073,1483
911.802979,1466
911.918823,1443
912.034729,1460
912.150635,1502
912.266602,1440
912.382446,1454
912.498352,1410
912.614197,1447
912.730103,1444
912.846008,1482
