792.44574,3902
792.56488,3741
792.68396,3556
792.80304,3592
792.92218,3389
793.041199,3349
793.160339,3278
793.279419,3223
793.398499,3210
793.517578,3079
793.636658,3035
793.755737,2994
793.874817,2934
793.993896,2812
794.112976,2837
794.232056,2805
794.351074,2646
794.470215,2662
794.589233,2714
794.708313,2640
794.827393,2583
794.946411,2557
795.065552,2519
795.18457,2563
795.303589,2504
795.422668,2477
795.541687,2399
795.660767,2469
795.779846,2355
795.898865,2322
796.017883,2316
796.136963,2257
796.255981,2273
796.375061,2294
796.49408,2265
796.613037,2203
796.732117,2217
796.851135,2184
796.970154,2173
797.089233,2141
797.208191,2151
797.327271,2126
797.446228,2121
797.565186,2122
797.684265,2096
797.803223,2076
797.922241,2073
798.04126,2095
798.160278,2032
798.279297,2075
798.398315,2055
798.517273,2002
798.636292,1980
798.75531,2051
798.874268,1996
798.993286,2016
799.112244,1952
799.231323,2015
799.350281,1967
799.469238,1956
799.588257,1943
799.707153,1970
799.826111,1936
799.945129,1960
800.064087,1981
800.183044,1949
800.302063,1953
800.421021,1912
800.539978,1930
800.658936,1894
800.777893,1904
800.896912,1925
801.015747,1861
801.134705,1887
801.253723,1865
801.37262,1862
801.491638,1829
801.610535,1837
801.729492,1901
801.84845,1852
801.967407,1795
802.086243,1813
802.205261,1827
802.324158,1788
802.443115,1818
802.562073,1840
802.680969,1794
802.799927,1825
802.918762,1758
803.037659,1804
803.156677,1797
803.275574,1742
803.39447,1818
803.513428,1742
803.632263,1737
803.751221,1826
803.870117,1777
803.989014,1772
804.107971,1748
804.226746,1750
804.345642,1770
804.4646,1751
804.583496,1731
804.702393,1720
804.821228,1710
804.940125,1813
805.059021,1782
805.177917,1719
805.296814,1752
805.415649,1751
805.534546,1728
805.653442,1673
805.772278,1737
805.891113,1711
806.01001,1736
806.128906,1744
806.247742,1720
806.366577,1671
806.485413,1682
806.604309,1718
806.723145,1669
806.84198,1693
806.960876,1716
807.079712,1683
807.198486,1732
807.317383,1694
807.436218,1647
807.554993,1725
807.673889,1645
807.792725,1707
807.91156,1662
808.030396,1704
808.14917,1640
808.268005,1635
808.386841,1683
808.505676,1662
808.624451,1689
808.743286,1688
808.862122,1687
808.980896,1631
809.099731,1669
809.218506,1612
809.337341,1625
809.456116,1674
809.57489,1651
809.693726,1640
809.8125,1636
809.931274,1648
810.050049,1662
810.168884,1687
810.287659,1615
810.406372,1662
810.525269,1624
810.643982,1661
810.762756,1653
810.881531,1643
811.000305,1625
811.11908,1665
811.237854,1648
811.356567,1662
811.475403,1680
811.594116,1649
811.71283,1608
811.831604,1658
811.950378,1663
812.069153,1699
812.187927,1676
812.30658,1667
812.425415,1691
812.544128,1668
812.662781,1694
812.781616,1689
812.900269,1701
813.019043,1660
813.137756,1685
813.256531,1678
813.375244,1673
813.493896,1633
813.612671,1626
813.731384,1651
813.850037,1643
813.96875,1637
814.087524,1654
814.206238,1561
814.324951,1616
814.443604,1600
814.562256,1642
814.68103,1613
814.799683,1634
814.918335,1635
815.037109,1638
815.155762,1597
815.274475,1597
815.393188,1631
815.511841,1634
815.630554,1586
815.749146,1588
815.867859,1596
815.986572,1635
816.105164,1576
816.223877,1590
816.342529,1526
816.461182,1588
816.579895,1643
816.698486,1646
816.817139,1622
816.935791,1610
817.054504,1639
817.173096,1649
817.291748,1626
817.4104,1669
817.529053,1630
817.647644,1600
817.766235,1587
817.884949,1571
818.00354,1556
818.122192,1562
818.240845,1530
818.359436,1548
818.478088,1588
818.59668,1566
818.715271,1584
818.833923,1566
818.952515,1516
819.071106,1536
819.189758,1541
819.30835,1481
819.426941,1492
819.545532,1506
819.664124,1499
819.782715,1516
819.901306,1491
820.019897,1497
820.138489,1510
820.25708,1537
820.375671,1518
820.494202,1524
820.612732,1470
820.731384,1561
820.849915,1522
820.968506,1540
821.087097,1536
821.205627,1518
821.324158,1467
821.442749,1477
821.561279,1489
821.679871,1484
821.798401,1430
821.916931,1472
822.035461,1489
822.154053,1510
822.272583,1476
822.391174,1515
822.509583,1472
822.628174,1470
822.746704,1481
822.865234,1464
822.983765,1466
823.102295,1460
823.220825,1428
823.339294,1452
823.457825,1443
823.576355,1491
823.694824,1457
823.813354,1411
823.931885,1451
824.050354,1459
824.168884,1471
824.287354,1474
824.405823,1455
824.524353,1453
824.642822,1447
824.761353,1477
824.879822,1471
824.998291,1490
825.116699,1468
825.235291,1456
825.353699,1443
825.472168,1464
825.590637,1494
825.709106,1465
825.827576,1440
825.946045,1429
826.064453,1461
826.182983,1437
826.301392,1406
826.4198,1426
826.53833,1417
826.656738,1395
826.775208,1447
826.893677,1401
827.012024,1446
827.130493,1442
827.248962,1439
827.36731,1429
827.485779,1434
827.604248,1453
827.722595,1404
827.841064,1415
827.959412,1447
828.077942,1370
828.196289,1425
828.314636,1419
828.433105,1384
828.551514,1427
828.669861,1409
828.78833,1455
828.906677,1423
829.025085,1391
829.143433,1418
829.261841,1449
829.38031,1419
829.498657,1392
829.617004,1407
829.735413,1400
829.85376,1413
829.972107,1353
830.090515,1374
830.208862,1406
830.327209,1393
830.445557,1397
830.563904,1433
830.682312,1463
830.800659,1397
830.919006,1425
831.037354,1432
831.155701,1460
831.274048,1427
831.392395,1465
831.51062,1429
831.629028,1450
831.747314,1465
831.865662,1401
831.984009,1466
832.102356,1439
832.220642,1441
832.338928,1452
832.457275,1439
832.575623,1446
832.693909,1432
832.812134,1450
832.930481,1432
833.048828,1482
833.167114,1419
833.2854,1435
833.403687,1424
833.521973,1423
833.640259,1444
833.758545,1419
833.876831,1413
833.995056,1471
834.113281,1442
834.231628,1441
834.349915,1433
834.468201,1438
834.586426,1437
834.704651,1457
834.822998,1424
834.941162,1456
835.059448,1480
835.177673,1441
835.295959,1436
835.414246,1415
835.53241,1460
835.650635,1406
835.768921,1396
835.887146,1462
836.005371,1433
836.123596,1380
836.241821,1403
836.360046,1430
836.478271,1391
836.596497,1447
836.714722,1437
836.832886,1384
836.95105,1423
837.069336,1437
837.1875,1379
837.305725,1461
837.423889,1363
837.542053,1393
837.660339,1395
837.778503,1409
837.896667,1406
838.014832,1446
838.132996,1440
838.25116,1414
838.369385,1473
838.487488,1415
838.605713,1459
838.723877,1427
838.84198,1455
838.960205,1462
839.078308,1459
839.196472,1416
839.314636,1397
839.4328,1435
839.550964,1437
839.669067,1438
839.787231,1498
839.905396,1525
840.023499,1468
840.141602,1496
840.259766,1484
840.377869,1548
840.495972,1532
840.614136,1480
840.732239,1515
840.850342,1548
840.968445,1500
841.086548,1503
841.204651,1558
841.322754,1556
841.440918,1531
841.55896,1517
841.677002,1574
841.795166,1568
841.913208,1560
842.031311,1589
842.149353,1574
842.267456,1603
842.385498,1563
842.503601,1501
842.621643,1547
842.739746,1521
842.857788,1524
842.97583,1557
843.093933,1555
843.211975,1523
843.330017,1510
843.44812,1519
843.566101,1532
843.684204,1540
843.802246,1565
843.920227,1537
844.038269,1586
844.156311,1511
844.274292,1500
844.392395,1516
844.510376,1542
844.628357,1542
844.74646,1473
844.864441,1488
844.982422,1498
845.100403,1502
845.218384,1512
845.336426,1490
845.454468,1489
845.572449,1488
845.69043,1464
845.808411,1474
845.926453,1483
846.044373,1489
846.162354,1444
846.280396,1501
846.398315,1483
846.516296,1497
846.634216,1468
846.752197,1491
846.870178,1509
846.988098,1528
847.106079,1478
847.22406,1491
847.34198,1495
847.4599,1479
847.577881,1567
847.695801,1520
847.813782,1507
847.931641,1467
848.049561,1479
848.167603,1481
848.285461,1513
848.403381,1516
848.521362,1475
848.639221,1496
848.75708,1496
848.875,1504
848.99292,1505
849.110901,1485
849.22876,1511
849.34668,1511
849.464539,1546
849.582458,1494
849.700317,1472
849.818176,1525
849.936096,1479
850.053955,1493
850.171875,1503
850.289673,1516
850.407593,1501
850.525452,1525
850.643311,1522
850.761169,1491
850.878967,1533
850.996887,1492
851.114746,1516
851.232544,1438
851.350403,1451
851.468262,1464
851.58606,1495
851.703979,1473
851.821777,1530
851.939636,1509
852.057434,1457
852.175232,1506
852.293091,1513
852.410889,1587
852.528687,1590
852.646545,1616
852.764343,1668
852.88208,1622
852.999939,1617
853.117676,1575
853.235535,1556
853.353271,1547
853.471069,1513
853.588928,1483
853.706604,1494
853.824402,1525
853.9422,1488
854.059998,1512
854.177734,1489
854.295532,1520
854.413269,1577
854.531006,1550
854.648804,1496
854.766541,1555
854.884277,1522
855.002014,1530
855.119751,1503
855.237549,1525
855.355225,1522
855.473022,1518
855.590698,1545
855.708435,1537
855.826172,1520
855.943848,1539
856.061646,1572
856.179321,1519
856.296997,1504
856.414795,1500
856.53241,1546
856.650085,1558
856.767822,1576
856.885559,1558
857.003174,1563
857.120911,1565
857.238586,1557
857.356201,1557
857.473938,1545
857.591614,1559
857.709351,1509
857.826965,1543
857.944641,1607
858.062317,1526
858.179993,1509
858.297668,1594
858.415283,1543
858.532959,1589
858.650574,1603
858.768188,1619
858.885803,1576
859.003479,1554
859.121094,1545
859.23877,1547
859.356384,1532
859.473999,1520
859.591675,1514
859.709229,1518
859.826843,1532
859.944458,1497
860.062012,1523
860.179626,1476
860.297302,1494
860.414856,1511
860.532471,1504
860.650024,1463
860.767639,1508
860.885193,1463
861.002808,1514
861.120361,1498
861.237976,1506
861.35553,1522
861.473022,1506
861.590698,1498
861.708191,1496
861.825745,1532
861.943298,1507
862.060852,1465
862.178406,1478
862.295959,1442
862.413513,1470
862.531006,1457
862.64856,1433
862.766113,1451
862.883667,1448
863.00116,1413
863.118713,1446
863.236206,1475
863.353699,1438
863.471252,1477
863.588745,1463
863.706177,1519
863.82373,1485
863.941162,1452
864.058716,1481
864.176208,1487
864.29364,1468
864.411194,1477
864.528687,1452
864.646118,1437
864.763611,1424
864.881042,1411
864.998535,1410
865.116028,1446
865.233459,1443
865.350891,1394
865.468384,1459
865.585754,1439
865.703308,1485
865.820679,1442
865.938171,1467
866.055542,1392
866.173035,1483
866.290466,1451
866.407837,1463
866.52533,1469
866.6427,1470
866.760071,1429
866.877563,1473
866.994934,1426
867.112305,1480
867.229736,1483
867.347107,1461
867.464539,1467
867.58197,1470
867.699341,1500
867.81665,1449
867.934082,1523
868.051453,1525
868.168823,1433
868.286194,1468
868.403564,1454
868.520935,1479
868.638306,1445
868.755676,1491
868.872986,1458
868.990295,1480
869.107727,1500
869.225037,1503
869.342346,1508
869.459717,1481
869.577026,1507
869.694336,1503
869.811707,1527
869.929016,1515
870.046326,1560
870.163635,1522
870.280945,1539
870.398254,1550
870.515564,1535
870.632812,1519
870.750183,1561
870.867432,1610
870.984741,1596
871.102051,1580
871.219299,1607
871.336609,1623
871.453918,1601
871.571106,1599
871.688416,1602
871.805664,1599
871.922852,1605
872.040222,1607
872.157471,1621
872.274719,1622
872.391968,1605
872.509155,1593
872.626465,1624
872.743652,1599
872.860962,1617
872.978149,1564
873.095337,1577
873.212646,1537
873.329834,1552
873.44696,1523
873.564209,1572
873.681396,1566
873.798645,1542
873.915894,1553
874.03302,1557
874.150208,1566
874.267456,1601
874.384583,1628
874.501831,1603
874.618958,1636
874.736145,1640
874.853333,1609
874.970459,1659
875.087646,1664
875.204834,1609
875.32196,1593
875.439148,1594
875.556274,1566
875.673401,1611
875.790527,1578
875.907715,1590
876.024841,1572
876.141968,1539
876.259094,1543
876.376282,1539
876.493347,1564
876.610474,1513
876.7276,1539
876.844727,1520
876.961853,1530
877.078918,1541
877.195984,1508
877.313171,1513
877.430237,1519
877.547302,1524
877.664368,1555
877.781433,1520
877.898499,1537
878.015625,1540
878.13269,1511
878.249695,1485
878.366821,1467
878.483887,1437
878.600952,1486
878.717957,1469
878.834961,1476
878.952087,1478
879.069092,1480
879.186157,1423
879.303162,1532
879.420227,1478
879.537231,1465
879.654236,1404
879.77124,1446
879.888306,1415
880.005249,1456
880.122314,1434
880.239319,1462
880.356323,1403
880.473328,1438
880.590271,1446
880.707275,1466
880.824341,1468
880.941284,1420
881.058228,1416
881.175232,1443
881.292236,1407
881.40918,1396
881.526123,1421
881.643066,1401
881.760071,1437
881.877014,1424
881.993958,1454
882.11084,1418
882.227783,1408
882.344727,1425
882.46167,1419
882.578613,1421
882.695618,1393
882.812439,1410
882.929382,1396
883.046326,1438
883.163208,1396
883.280151,1435
883.397034,1415
883.513916,1448
883.630798,1390
883.747742,1471
883.864563,1413
883.981506,1447
884.098389,1467
884.21521,1528
884.332153,1492
884.448975,1539
884.565796,1525
884.682678,1540
884.7995,1599
884.916443,1640
885.033264,1712
885.150085,1694
885.266968,1751
885.383789,1800
885.500671,1789
885.617493,1844
885.734314,1787
885.851196,1808
885.967896,1795
886.084717,1804
886.201599,1777
886.318359,1796
886.435181,1766
886.552002,1729
886.668762,1739
886.785645,1719
886.902344,1753
887.019165,1715
887.135925,1689
887.252747,1680
887.369446,1672
887.486267,1628
887.603027,1579
887.719788,1568
887.836548,1591
887.953247,1531
888.070068,1506
888.186829,1501
888.303528,1492
888.420288,1488
888.536987,1449
888.653687,1411
888.770447,1465
888.887146,1407
889.003967,1406
889.120667,1405
889.237305,1380
889.354065,1407
889.470703,1405
889.587463,1384
889.704163,1395
889.820862,1393
889.937561,1360
890.054199,1395
890.170837,1386
890.287598,1407
890.404236,1360
890.520874,1373
890.637634,1389
890.754211,1376
890.87085,1396
890.987549,1408
891.104187,1392
891.220886,1418
891.337463,1404
891.454102,1418
891.57074,1420
891.687378,1429
891.804077,1434
891.920654,1397
892.037231,1429
892.15387,1421
892.270447,1416
892.387085,1424
892.503723,1406
892.6203,1375
892.736877,1402
892.853516,1389
892.970032,1383
893.08667,1378
893.203186,1382
893.319763,1397
893.43634,1384
893.552917,1422
893.669556,1373
893.786011,1400
893.902588,1388
894.019165,1363
894.135681,1427
894.252197,1382
894.368835,1376
894.485291,1426
894.601868,1386
894.718384,1406
894.8349,1423
894.951355,1386
895.067932,1411
895.184448,1400
895.300964,1422
895.417419,1361
895.533936,1399
895.650452,1394
895.766907,1367
895.883423,1380
895.999878,1421
896.116333,1396
896.232849,1358
896.349304,1405
896.465759,1392
896.582214,1398
896.698669,1398
896.815125,1395
896.931641,1401
897.048035,1432
897.164551,1379
897.280884,1399
897.397339,1383
897.513794,1412
897.630249,1430
897.746582,1424
897.863098,1382
897.979431,1417
898.095886,1401
898.212341,1424
898.328674,1405
898.445129,1396
898.561462,1434
898.677795,1461
898.794312,1413
898.910645,1402
899.026978,1420
899.143433,1418
899.259766,1437
899.37616,1423
899.492493,1433
899.608765,1397
899.725159,1439
899.841553,1376
899.957947,1407
900.07428,1429
900.190552,1458
900.306946,1393
900.423157,1400
900.53949,1386
900.655884,1416
900.772156,1429
900.888489,1420
901.004822,1418
901.121033,1423
901.237366,1450
901.353699,1406
901.46991,1446
901.586304,1460
901.702515,1468
901.818787,1451
901.93512,1502
902.051331,1543
902.167603,1559
902.283875,1556
902.400085,1537
902.516418,1566
902.632629,1628
902.74884,1572
902.865112,1667
902.981384,1637
903.097595,1595
903.213867,1597
903.330017,1610
903.446289,1645
903.5625,1591
903.67865,1610
903.794922,1600
903.911072,1584
904.027344,1576
904.143494,1508
904.259705,1519
904.375916,1528
904.492065,1508
904.608215,1501
904.724426,1515
904.840576,1471
904.956726,1467
905.072876,1446
905.189087,1430
905.305176,1467
905.421387,1457
905.537537,1429
905.653687,1432
905.769775,1442
905.885925,1407
906.002014,1454
906.118164,1419
906.234314,1373
906.350403,1406
906.466492,1365
906.582642,1403
906.69873,1385
906.814758,1428
906.930908,1402
907.046936,1424
907.163086,1399
907.279175,1377
907.395264,1374
907.511353,1368
907.62738,1402
907.743408,1350
907.859497,1378
907.975525,1385
908.091553,1354
908.207703,1394
908.32373,1402
908.439758,1365
908.555786,1371
908.671814,1357
908.787842,1408
908.90387,1388
909.019775,1401
909.135864,1365
909.251892,1421
909.367859,1357
909.483826,1418
909.599854,1409
909.715881,1393
909.831848,1442
909.947815,1388
910.063782,1410
910.179749,1419
910.295776,1410
910.411743,1425
910.527649,1421
910.643616,1418
910.759583,1389
910.875488,1415
910.991455,1385
911.107361,1432
911.223267,1401
911.339294,1395
911.4552,1375
911.571106,1381
911.687073,1414
911.802979,1387
911.918823,1381
912.034729,1389
912.150635,1383
912.266602,1444
912.382446,1342
912.498352,1373
912.614197,1406
912.730103,1381
912.846008,1405
792.44574,3875
792.56488,3767
792.68396,3682
792.80304,3571
792.92218,3438
793.041199,3420
793.160339,3314
793.279419,3260
793.398499,3238
793.517578,3102
793.636658,3018
793.755737,3043
793.874817,2967
793.993896,2899
794.112976,2884
794.232056,2812
794.351074,2746
794.470215,2808
794.589233,2695
794.708313,2657
794.827393,2568
794.946411,2654
795.065552,2557
795.18457,2523
795.303589,2546
795.422668,2440
795.541687,2498
795.660767,2449
795.779846,2463
795.898865,2330
796.017883,2360
796.136963,2344
796.255981,2327
796.375061,2324
796.49408,2324
796.613037,2276
796.732117,2219
796.851135,2222
796.970154,2159
797.089233,2165
797.208191,2208
797.327271,2134
797.446228,2143
797.565186,2165
797.684265,2087
797.803223,2049
797.922241,2073
798.04126,2107
798.160278,2074
798.279297,2029
798.398315,2080
798.517273,2062
798.636292,2004
798.75531,2006
798.874268,2045
798.993286,2094
799.112244,2044
799.231323,1999
799.350281,1979
799.469238,1982
799.588257,2000
799.707153,2007
799.826111,1992
799.945129,1962
800.064087,1958
800.183044,1913
800.302063,1954
800.421021,1960
800.539978,1938
800.658936,1961
800.777893,1974
800.896912,1942
801.015747,1962
801.134705,1901
801.253723,1888
801.37262,1854
801.491638,1957
801.610535,1928
801.729492,1894
801.84845,1879
801.967407,1841
802.086243,1881
802.205261,1903
802.324158,1819
802.443115,1839
802.562073,1876
802.680969,1888
802.799927,1813
802.918762,1819
803.037659,1811
803.156677,1861
803.275574,1802
803.39447,1774
803.513428,1768
803.632263,1834
803.751221,1802
803.870117,1820
803.989014,1781
804.107971,1789
804.226746,1764
804.345642,1792
804.4646,1807
804.583496,1791
804.702393,1783
804.821228,1719
804.940125,1780
805.059021,1785
805.177917,1744
805.296814,1829
805.415649,1780
805.534546,1754
805.653442,1786
805.772278,1790
805.891113,1764
806.01001,1739
806.128906,1746
806.247742,1724
806.366577,1711
806.485413,1750
806.604309,1736
806.723145,1748
806.84198,1703
806.960876,1712
807.079712,1723
807.198486,1793
807.317383,1693
807.436218,1732
807.554993,1692
807.673889,1739
807.792725,1749
807.91156,1733
808.030396,1724
808.14917,1718
808.268005,1682
808.386841,1708
808.505676,1713
808.624451,1735
808.743286,1682
808.862122,1710
808.980896,1685
809.099731,1669
809.218506,1685
809.337341,1688
809.456116,1682
809.57489,1675
809.693726,1647
809.8125,1706
809.931274,1668
810.050049,1679
810.168884,1665
810.287659,1685
810.406372,1651
810.525269,1689
810.643982,1641
810.762756,1677
810.881531,1665
811.000305,1711
811.11908,1671
811.237854,1648
811.356567,1697
811.475403,1691
811.594116,1699
811.71283,1730
811.831604,1686
811.950378,1713
812.069153,1689
812.187927,1660
812.30658,1691
812.425415,1703
812.544128,1721
812.662781,1704
812.781616,1699
812.900269,1711
813.019043,1642
813.137756,1629
813.256531,1658
813.375244,1714
813.493896,1669
813.612671,1710
813.731384,1692
813.850037,1692
813.96875,1647
814.087524,1651
814.206238,1649
814.324951,1642
814.443604,1661
814.562256,1581
814.68103,1684
814.799683,1665
814.918335,1655
815.037109,1617
815.155762,1631
815.274475,1673
815.393188,1614
815.511841,1654
815.630554,1667
815.749146,1611
815.867859,1629
815.986572,1645
816.105164,1617
816.223877,1599
816.342529,1647
816.461182,1638
816.579895,1630
816.698486,1632
816.817139,1634
816.935791,1672
817.054504,1659
817.173096,1623
817.291748,1657
817.4104,1627
817.529053,1639
817.647644,1640
817.766235,1572
817.884949,1686
818.00354,1606
818.122192,1595
818.240845,1601
818.359436,1597
818.478088,1578
818.59668,1550
818.715271,1544
818.833923,1562
818.952515,1557
819.071106,1494
819.189758,1549
819.30835,1546
819.426941,1535
819.545532,1516
819.664124,1579
819.782715,1524
819.901306,1520
820.019897,1536
820.138489,1521
820.25708,1499
820.375671,1510
820.494202,1549
820.612732,1537
820.731384,1504
820.849915,1533
820.968506,1577
821.087097,1527
821.205627,1545
821.324158,1500
821.442749,1470
821.561279,1504
821.679871,1499
821.798401,1532
821.916931,1456
822.035461,1525
822.154053,1461
822.272583,1489
822.391174,1469
822.509583,1529
822.628174,1438
822.746704,1481
822.865234,1471
822.983765,1494
823.102295,1476
823.220825,1486
823.339294,1470
823.457825,1504
823.576355,1429
823.694824,1505
823.813354,1447
823.931885,1496
824.050354,1516
824.168884,1446
824.287354,1480
824.405823,1464
824.524353,1498
824.642822,1490
824.761353,1506
824.879822,1446
824.998291,1499
825.116699,1503
825.235291,1496
825.353699,1507
825.472168,1452
825.590637,1454
825.709106,1529
825.827576,1487
825.946045,1467
826.064453,1505
826.182983,1426
826.301392,1411
826.4198,1519
826.53833,1407
826.656738,1444
826.775208,1440
826.893677,1440
827.012024,1467
827.130493,1442
827.248962,1467
827.36731,1475
827.485779,1470
827.604248,1451
827.722595,1457
827.841064,1479
827.959412,1455
828.077942,1426
828.196289,1422
828.314636,1453
828.433105,1383
828.551514,1465
828.669861,1427
828.78833,1434
828.906677,1440
829.025085,1444
829.143433,1421
829.261841,1446
829.38031,1459
829.498657,1433
829.617004,1475
829.735413,1435
829.85376,1429
829.972107,1399
830.090515,1436
830.208862,1410
830.327209,1405
830.445557,1457
830.563904,1469
830.682312,1416
830.800659,1426
830.919006,1478
831.037354,1428
831.155701,1479
831.274048,1475
831.392395,1491
831.51062,1469
831.629028,1475
831.747314,1453
831.865662,1433
831.984009,1427
832.102356,1488
832.220642,1442
832.338928,1514
832.457275,1463
832.575623,1476
832.693909,1447
832.812134,1487
832.930481,1433
833.048828,1442
833.167114,1473
833.2854,1464
833.403687,1467
833.521973,1454
833.640259,1422
833.758545,1474
833.876831,1429
833.995056,1440
834.113281,1442
834.231628,1447
834.349915,1417
834.468201,1445
834.586426,1429
834.704651,1455
834.822998,1424
834.941162,1454
835.059448,1486
835.177673,1476
835.295959,1464
835.414246,1496
835.53241,1473
835.650635,1492
835.768921,1424
835.887146,1448
836.005371,1439
836.123596,1406
836.241821,1436
836.360046,1435
836.478271,1440
836.596497,1428
836.714722,1459
836.832886,1451
836.95105,1442
837.069336,1466
837.1875,1458
837.305725,1440
837.423889,1435
837.542053,1412
837.660339,1442
837.778503,1427
837.896667,1430
838.014832,1409
838.132996,1488
838.25116,1440
838.369385,1466
838.487488,1471
838.605713,1472
838.723877,1425
838.84198,1450
838.960205,1466
839.078308,1461
839.196472,1457
839.314636,1448
839.4328,1499
839.550964,1505
839.669067,1489
839.787231,1496
839.905396,1505
840.023499,1525
840.141602,1547
840.259766,1522
840.377869,1550
840.495972,1528
840.614136,1524
840.732239,1546
840.850342,1538
840.968445,1555
841.086548,1496
841.204651,1528
841.322754,1539
841.440918,1544
841.55896,1654
841.677002,1557
841.795166,1616
841.913208,1587
842.031311,1565
842.149353,1544
842.267456,1584
842.385498,1545
842.503601,1536
842.621643,1544
842.739746,1528
842.857788,1556
842.97583,1538
843.093933,1534
843.211975,1558
843.330017,1547
843.44812,1551
843.566101,1566
843.684204,1539
843.802246,1548
843.920227,1545
844.038269,1567
844.156311,1576
844.274292,1527
844.392395,1552
844.510376,1525
844.628357,1533
844.74646,1485
844.864441,1504
844.982422,1502
845.100403,1533
845.218384,1502
845.336426,1480
845.454468,1558
845.572449,1518
845.69043,1521
845.808411,1479
845.926453,1527
846.044373,1525
846.162354,1507
846.280396,1501
846.398315,1551
846.516296,1510
846.634216,1533
846.752197,1498
846.870178,1536
846.988098,1571
847.106079,1542
847.22406,1556
847.34198,1530
847.4599,1481
847.577881,1534
847.695801,1583
847.813782,1517
847.931641,1494
848.049561,1542
848.167603,1559
848.285461,1553
848.403381,1523
848.521362,1501
848.639221,1510
848.75708,1542
848.875,1554
848.99292,1511
849.110901,1581
849.22876,1522
849.34668,1539
849.464539,1522
849.582458,1514
849.700317,1551
849.818176,1554
849.936096,1515
850.053955,1543
850.171875,1548
850.289673,1445
850.407593,1508
850.525452,1554
850.643311,1532
850.761169,1553
850.878967,1497
850.996887,1540
851.114746,1455
851.232544,1467
851.350403,1461
851.468262,1494
851.58606,1531
851.703979,1545
851.821777,1507
851.939636,1553
852.057434,1533
852.175232,1521
852.293091,1576
852.410889,1588
852.528687,1628
852.646545,1621
852.764343,1703
852.88208,1635
852.999939,1644
853.117676,1610
853.235535,1555
853.353271,1559
853.471069,1495
853.588928,1579
853.706604,1545
853.824402,1511
853.9422,1512
854.059998,1480
854.177734,1564
854.295532,1552
854.413269,1509
854.531006,1521
854.648804,1565
854.766541,1565
854.884277,1537
855.002014,1548
855.119751,1540
855.237549,1526
855.355225,1523
855.473022,1526
855.590698,1531
855.708435,1514
855.826172,1527
855.943848,1553
856.061646,1545
856.179321,1572
856.296997,1591
856.414795,1541
856.53241,1568
856.650085,1583
856.767822,1556
856.885559,1578
857.003174,1632
857.120911,1615
857.238586,1583
857.356201,1580
857.473938,1546
857.591614,1599
857.709351,1564
857.826965,1551
857.944641,1632
858.062317,1574
858.179993,1557
858.297668,1621
858.415283,1575
858.532959,1634
858.650574,1586
858.768188,1637
858.885803,1566
859.003479,1558
859.121094,1562
859.23877,1578
859.356384,1573
859.473999,1566
859.591675,1570
859.709229,1535
859.826843,1564
859.944458,1541
860.062012,1546
860.179626,1521
860.297302,1523
860.414856,1511
860.532471,1513
860.650024,1476
860.767639,1495
860.885193,1492
861.002808,1515
861.120361,1521
861.237976,1513
861.35553,1534
861.473022,1553
861.590698,1516
861.708191,1532
861.825745,1524
861.943298,1509
862.060852,1518
862.178406,1465
862.295959,1493
862.413513,1460
862.531006,1439
862.64856,1436
862.766113,1481
862.883667,1398
863.00116,1475
863.118713,1438
863.236206,1460
863.353699,1458
863.471252,1468
863.588745,1458
863.706177,1540
863.82373,1486
863.941162,1435
864.058716,1492
864.176208,1489
864.29364,1483
864.411194,1478
864.528687,1439
864.646118,1531
864.763611,1463
864.881042,1474
864.998535,1441
865.116028,1473
865.233459,1465
865.350891,1471
865.468384,1447
865.585754,1479
865.703308,1469
865.820679,1508
865.938171,1456
866.055542,1461
866.173035,1450
866.290466,1442
866.407837,1462
866.52533,1446
866.6427,1450
866.760071,1457
866.877563,1472
866.994934,1473
867.112305,1471
867.229736,1491
867.347107,1478
867.464539,1454
867.58197,1499
867.699341,1495
867.81665,1503
867.934082,1513
868.051453,1489
868.168823,1496
868.286194,1482
868.403564,1501
868.520935,1521
868.638306,1499
868.755676,1495
868.872986,1459
868.990295,1481
869.107727,1553
869.225037,1533
869.342346,1506
869.459717,1507
869.577026,1546
869.694336,1559
869.811707,1572
869.929016,1586
870.046326,1531
870.163635,1531
870.280945,1545
870.398254,1580
870.515564,1561
870.632812,1572
870.750183,1609
870.867432,1621
870.984741,1599
871.102051,1614
871.219299,1608
871.336609,1614
871.453918,1629
871.571106,1604
871.688416,1619
871.805664,1695
871.922852,1671
872.040222,1705
872.157471,1624
872.274719,1623
872.391968,1649
872.509155,1640
872.626465,1667
872.743652,1600
872.860962,1595
872.978149,1587
873.095337,1554
873.212646,1618
873.329834,1623
873.44696,1579
873.564209,1574
873.681396,1590
873.798645,1578
873.915894,1594
874.03302,1588
874.150208,1616
874.267456,1633
874.384583,1577
874.501831,1620
874.618958,1664
874.736145,1661
874.853333,1629
874.970459,1654
875.087646,1587
875.204834,1658
875.32196,1626
875.439148,1635
875.556274,1603
875.673401,1637
875.790527,1549
875.907715,1554
876.024841,1550
876.141968,1583
876.259094,1560
876.376282,1557
876.493347,1525
876.610474,1555
876.7276,1564
876.844727,1543
876.961853,1591
877.078918,1570
877.195984,1561
877.313171,1573
877.430237,1537
877.547302,1576
877.664368,1551
877.781433,1519
877.898499,1533
878.015625,1564
878.13269,1538
878.249695,1541
878.366821,1525
878.483887,1506
878.600952,1486
878.717957,1530
878.834961,1515
878.952087,1502
879.069092,1485
879.186157,1481
879.303162,1442
879.420227,1505
879.537231,1475
879.654236,1438
879.77124,1433
879.888306,1459
880.005249,1476
880.122314,1465
880.239319,1481
880.356323,1443
880.473328,1454
880.590271,1404
880.707275,1450
880.824341,1480
880.941284,1407
881.058228,1444
881.175232,1464
881.292236,1459
881.40918,1467
881.526123,1455
881.643066,1427
881.760071,1445
881.877014,1490
881.993958,1419
882.11084,1460
882.227783,1442
882.344727,1422
882.46167,1482
882.578613,1445
882.695618,1415
882.812439,1458
882.929382,1462
883.046326,1453
883.163208,1435
883.280151,1411
883.397034,1458
883.513916,1521
883.630798,1474
883.747742,1494
883.864563,1481
883.981506,1499
884.098389,1480
884.21521,1502
884.332153,1506
884.448975,1540
884.565796,1583
884.682678,1598
884.7995,1631
884.916443,1618
885.033264,1712
885.150085,1729
885.266968,1797
885.383789,1760
885.500671,1872
885.617493,1887
885.734314,1852
885.851196,1833
885.967896,1788
886.084717,1801
886.201599,1814
886.318359,1802
886.435181,1777
886.552002,1760
886.668762,1749
886.785645,1734
886.902344,1748
887.019165,1740
887.135925,1751
887.252747,1654
887.369446,1638
887.486267,1618
887.603027,1612
887.719788,1641
887.836548,1580
887.953247,1611
888.070068,1578
888.186829,1522
888.303528,1501
888.420288,1482
888.536987,1480
888.653687,1442
888.770447,1488
888.887146,1418
889.003967,1461
889.120667,1429
889.237305,1403
889.354065,1433
889.470703,1434
889.587463,1421
889.704163,1427
889.820862,1421
889.937561,1450
890.054199,1422
890.170837,1386
890.287598,1405
890.404236,1403
890.520874,1411
890.637634,1421
890.754211,1394
890.87085,1395
890.987549,1420
891.104187,1453
891.220886,1323
891.337463,1449
891.454102,1423
891.57074,1426
891.687378,1462
891.804077,1471
891.920654,1427
892.037231,1417
892.15387,1468
892.270447,1435
892.387085,1447
892.503723,1448
892.6203,1431
892.736877,1387
892.853516,1436
892.970032,1450
893.08667,1410
893.203186,1434
893.319763,1417
893.43634,1435
893.552917,1386
893.669556,1432
893.786011,1398
893.902588,1424
894.019165,1423
894.135681,1444
894.252197,1433
894.368835,1440
894.485291,1434
894.601868,1372
894.718384,1421
894.8349,1420
894.951355,1439
895.067932,1384
895.184448,1409
895.300964,1417
895.417419,1406
895.533936,1423
895.650452,1393
895.766907,1418
895.883423,1416
895.999878,1400
896.116333,1420
896.232849,1417
896.349304,1418
896.465759,1399
896.582214,1412
896.698669,1409
896.815125,1428
896.931641,1452
897.048035,1417
897.164551,1413
897.280884,1403
897.397339,1381
897.513794,1437
897.630249,1424
897.746582,1428
897.863098,1413
897.979431,1418
898.095886,1419
898.212341,1445
898.328674,1426
898.445129,1448
898.561462,1450
898.677795,1466
898.794312,1426
898.910645,1426
899.026978,1442
899.143433,1465
899.259766,1433
899.37616,1448
899.492493,1436
899.608765,1409
899.725159,1466
899.841553,1457
899.957947,1436
900.07428,1459
900.190552,1452
900.306946,1448
900.423157,1463
900.53949,1435
900.655884,1477
900.772156,1467
900.888489,1430
901.004822,1481
901.121033,1494
901.237366,1469
901.353699,1472
901.46991,1451
901.586304,1482
901.702515,1481
901.818787,1493
901.93512,1513
902.051331,1553
902.167603,1539
902.283875,1585
902.400085,1579
902.516418,1622
902.632629,1642
902.74884,1651
902.865112,1706
902.981384,1640
903.097595,1639
903.213867,1614
903.330017,1594
903.446289,1657
903.5625,1627
903.67865,1576
903.794922,1612
903.911072,1600
904.027344,1627
904.143494,1564
904.259705,1578
904.375916,1537
904.492065,1527
904.608215,1515
904.724426,1473
904.840576,1455
904.956726,1516
905.072876,1483
905.189087,1514
905.305176,1437
905.421387,1492
905.537537,1503
905.653687,1466
905.769775,1475
905.885925,1466
906.002014,1458
906.118164,1399
906.234314,1404
906.350403,1430
906.466492,1449
906.582642,1449
906.69873,1486
906.814758,1432
906.930908,1462
907.046936,1484
907.163086,1410
907.279175,1428
907.395264,1476
907.511353,1441
907.62738,1433
907.743408,1429
907.859497,1374
907.975525,1420
908.091553,1445
908.207703,1410
908.32373,1429
908.439758,1423
908.555786,1410
908.671814,1483
908.787842,1396
908.90387,1436
909.019775,1415
909.135864,1457
909.251892,1464
909.367859,1433
909.483826,1463
909.599854,1384
909.715881,1444
909.831848,1429
909.947815,1424
910.063782,1433
910.179749,1466
910.295776,1450
910.411743,1459
910.527649,1418
910.643616,1440
910.759583,1424
910.875488,1436
910.991455,1440
911.107361,1408
911.223267,1388
911.339294,1416
911.4552,1437
911.571106,1447
911.687073,1401
911.802979,1428
911.918823,1396
912.034729,1421
912.150635,1404
912.266602,1437
912.382446,1430
912.498352,1374
912.614197,1438
912.730103,1428
912.846008,1399
792.44574,3892
792.56488,3791
792.68396,3658
792.80304,3632
792.92218,3481
793.041199,3448
793.160339,3371
793.279419,3245
793.398499,3199
793.517578,3152
793.636658,3007
793.755737,3014
793.874817,2974
793.993896,2903
794.112976,2946
794.232056,2842
794.351074,2824
794.470215,2723
794.589233,2648
794.708313,2683
794.827393,2650
794.946411,2559
795.065552,2565
795.18457,2480
795.303589,2503
795.422668,2528
795.541687,2524
795.660767,2464
795.779846,2411
795.898865,2386
796.017883,2404
796.136963,2311
796.255981,2343
796.375061,2312
796.49408,2262
796.613037,2227
796.732117,2208
796.851135,2173
796.970154,2231
797.089233,2209
797.208191,2162
797.327271,2167
797.446228,2138
797.565186,2143
797.684265,2108
797.803223,2147
797.922241,2104
798.04126,2113
798.160278,2104
798.279297,2048
798.398315,2100
798.517273,2052
798.636292,2003
798.75531,2031
798.874268,2054
798.993286,2083
799.112244,2000
799.231323,1985
799.350281,1988
799.469238,2018
799.588257,2066
799.707153,1992
799.826111,1975
799.945129,1961
800.064087,1956
800.183044,1968
800.302063,1925
800.421021,1983
800.539978,1956
800.658936,1976
800.777893,1993
800.896912,1909
801.015747,1899
801.134705,1914
801.253723,1921
801.37262,1911
801.491638,1897
801.610535,1872
801.729492,1904
801.84845,1924
801.967407,1804
802.086243,1831
802.205261,1839
802.324158,1849
802.443115,1845
802.562073,1896
802.680969,1852
802.799927,1832
802.918762,1842
803.037659,1860
803.156677,1835
803.275574,1795
803.39447,1844
803.513428,1832
803.632263,1843
803.751221,1825
803.870117,1803
803.989014,1753
804.107971,1785
804.226746,1817
804.345642,1767
804.4646,1813
804.583496,1760
804.702393,1762
804.821228,1773
804.940125,1772
805.059021,1746
805.177917,1818
805.296814,1784
805.415649,1781
805.534546,1782
805.653442,1795
805.772278,1750
805.891113,1765
806.01001,1784
806.128906,1764
806.247742,1774
806.366577,1733
806.485413,1783
806.604309,1735
806.723145,1741
806.84198,1697
806.960876,1759
807.079712,1683
807.198486,1784
807.317383,1792
807.436218,1748
807.554993,1750
807.673889,1713
807.792725,1739
807.91156,1713
808.030396,1735
808.14917,1672
808.268005,1711
808.386841,1716
808.505676,1668
808.624451,1666
808.743286,1721
808.862122,1696
808.980896,1741
809.099731,1707
809.218506,1704
809.337341,1700
809.456116,1726
809.57489,1696
809.693726,1720
809.8125,1670
809.931274,1704
810.050049,1707
810.168884,1701
810.287659,1702
810.406372,1658
810.525269,1695
810.643982,1690
810.762756,1701
810.881531,1630
811.000305,1688
811.11908,1689
811.237854,1688
811.356567,1702
811.475403,1718
811.594116,1723
811.71283,1725
811.831604,1678
811.950378,1707
812.069153,1681
812.187927,1721
812.30658,1717
812.425415,1740
812.544128,1715
812.662781,1710
812.781616,1718
812.900269,1722
813.019043,1753
813.137756,1670
813.256531,1713
813.375244,1713
813.493896,1651
813.612671,1629
813.731384,1678
813.850037,1633
813.96875,1663
814.087524,1623
814.206238,1638
814.324951,1650
814.443604,1641
814.562256,1608
814.68103,1639
814.799683,1686
814.918335,1650
815.037109,1613
815.155762,1681
815.274475,1647
815.393188,1604
815.511841,1638
815.630554,1672
815.749146,1603
815.867859,1658
815.986572,1624
816.105164,1638
816.223877,1623
816.342529,1633
816.461182,1650
816.579895,1634
816.698486,1625
816.817139,1671
816.935791,1679
817.054504,1681
817.173096,1656
817.291748,1690
817.4104,1655
817.529053,1652
817.647644,1624
817.766235,1630
817.884949,1600
818.00354,1615
818.122192,1552
818.240845,1594
818.359436,1599
818.478088,1592
818.59668,1578
818.715271,1588
818.833923,1598
818.952515,1555
819.071106,1591
819.189758,1592
819.30835,1601
819.426941,1520
819.545532,1568
819.664124,1558
819.782715,1523
819.901306,1568
820.019897,1526
820.138489,1542
820.25708,1552
820.375671,1514
820.494202,1522
820.612732,1516
820.731384,1553
820.849915,1568
820.968506,1567
821.087097,1517
821.205627,1502
821.324158,1502
821.442749,1541
821.561279,1509
821.679871,1536
821.798401,1477
821.916931,1526
822.035461,1484
822.154053,1547
822.272583,1487
822.391174,1504
822.509583,1532
822.628174,1516
822.746704,1488
822.865234,1472
822.983765,1499
823.102295,1504
823.220825,1498
823.339294,1501
823.457825,1470
823.576355,1464
823.694824,1459
823.813354,1462
823.931885,1483
824.050354,1466
824.168884,1514
824.287354,1488
824.405823,1497
824.524353,1498
824.642822,1488
824.761353,1508
824.879822,1482
824.998291,1474
825.116699,1483
825.235291,1498
825.353699,1495
825.472168,1513
825.590637,1442
825.709106,1486
825.827576,1520
825.946045,1464
826.064453,1483
826.182983,1458
826.301392,1482
826.4198,1474
826.53833,1429
826.656738,1467
826.775208,1414
826.893677,1490
827.012024,1459
827.130493,1495
827.248962,1462
827.36731,1476
827.485779,1497
827.604248,1521
827.722595,1478
827.841064,1436
827.959412,1443
828.077942,1433
828.196289,1423
828.314636,1470
828.433105,1411
828.551514,1433
828.669861,1428
828.78833,1430
828.906677,1455
829.025085,1453
829.143433,1496
829.261841,1445
829.38031,1427
829.498657,1410
829.617004,1428
829.735413,1462
829.85376,1453
829.972107,1429
830.090515,1452
830.208862,1399
830.327209,1429
830.445557,1415
830.563904,1402
830.682312,1461
830.800659,1468
830.919006,1471
831.037354,1452
831.155701,1490
831.274048,1477
831.392395,1492
831.51062,1505
831.629028,1464
831.747314,1473
831.865662,1455
831.984009,1453
832.102356,1472
832.220642,1479
832.338928,1463
832.457275,1453
832.575623,1553
832.693909,1474
832.812134,1470
832.930481,1484
833.048828,1481
833.167114,1460
833.2854,1469
833.403687,1476
833.521973,1465
833.640259,1459
833.758545,1469
833.876831,1446
833.995056,1479
834.113281,1487
834.231628,1472
834.349915,1458
834.468201,1471
834.586426,1471
834.704651,1486
834.822998,1438
834.941162,1451
835.059448,1504
835.177673,1483
835.295959,1491
835.414246,1457
835.53241,1473
835.650635,1392
835.768921,1476
835.887146,1446
836.005371,1423
836.123596,1431
836.241821,1421
836.360046,1451
836.478271,1431
836.596497,1439
836.714722,1433
836.832886,1407
836.95105,1438
837.069336,1411
837.1875,1420
837.305725,1429
837.423889,1445
837.542053,1448
837.660339,1420
837.778503,1444
837.896667,1396
838.014832,1444
838.132996,1449
838.25116,1441
838.369385,1463
838.487488,1470
838.605713,1463
838.723877,1492
838.84198,1445
838.960205,1472
839.078308,1477
839.196472,1434
839.314636,1476
839.4328,1493
839.550964,1489
839.669067,1473
839.787231,1457
839.905396,1541
840.023499,1530
840.141602,1535
840.259766,1531
840.377869,1543
840.495972,1513
840.614136,1517
840.732239,1539
840.850342,1532
840.968445,1535
841.086548,1577
841.204651,1579
841.322754,1550
841.440918,1601
841.55896,1620
841.677002,1600
841.795166,1597
841.913208,1598
842.031311,1591
842.149353,1567
842.267456,1563
842.385498,1552
842.503601,1555
842.621643,1545
842.739746,1561
842.857788,1576
842.97583,1540
843.093933,1573
843.211975,1548
843.330017,1562
843.44812,1582
843.566101,1529
843.684204,1556
843.802246,1565
843.920227,1573
844.038269,1533
844.156311,1535
844.274292,1557
844.392395,1524
844.510376,1576
844.628357,1521
844.74646,1574
844.864441,1565
844.982422,1546
845.100403,1523
845.218384,1536
845.336426,1502
845.454468,1508
845.572449,1515
845.69043,1561
845.808411,1559
845.926453,1505
846.044373,1502
846.162354,1559
846.280396,1512
846.398315,1514
846.516296,1575
846.634216,1536
846.752197,1479
846.870178,1480
846.988098,1522
847.106079,1526
847.22406,1511
847.34198,1523
847.4599,1551
847.577881,1498
847.695801,1521
847.813782,1544
847.931641,1539
848.049561,1563
848.167603,1522
848.285461,1491
848.403381,1543
848.521362,1487
848.639221,1540
848.75708,1554
848.875,1530
848.99292,1496
849.110901,1547
849.22876,1553
849.34668,1568
849.464539,1545
849.582458,1523
849.700317,1555
849.818176,1518
849.936096,1530
850.053955,1516
850.171875,1484
850.289673,1533
850.407593,1542
850.525452,1560
850.643311,1521
850.761169,1558
850.878967,1527
850.996887,1528
851.114746,1531
851.232544,1555
851.350403,1505
851.468262,1507
851.58606,1496
851.703979,1548
851.821777,1496
851.939636,1515
852.057434,1522
852.175232,1519
852.293091,1561
852.410889,1595
852.528687,1615
852.646545,1660
852.764343,1657
852.88208,1645
852.999939,1618
853.117676,1559
853.235535,1549
853.353271,1538
853.471069,1547
853.588928,1493
853.706604,1541
853.824402,1547
853.9422,1547
854.059998,1528
854.177734,1511
854.295532,1568
854.413269,1540
854.531006,1626
854.648804,1571
854.766541,1535
854.884277,1526
855.002014,1560
855.119751,1570
855.237549,1599
855.355225,1544
855.473022,1560
855.590698,1524
855.708435,1539
855.826172,1511
855.943848,1546
856.061646,1603
856.179321,1620
856.296997,1538
856.414795,1538
856.53241,1567
856.650085,1589
856.767822,1568
856.885559,1583
857.003174,1618
857.120911,1581
857.238586,1571
857.356201,1621
857.473938,1587
857.591614,1610
857.709351,1585
857.826965,1549
857.944641,1601
858.062317,1540
858.179993,1642
858.297668,1643
858.415283,1580
858.532959,1602
858.650574,1605
858.768188,1598
858.885803,1591
859.003479,1607
859.121094,1578
859.23877,1601
859.356384,1602
859.473999,1517
859.591675,1564
859.709229,1522
859.826843,1513
859.944458,1567
860.062012,1502
860.179626,1498
860.297302,1513
860.414856,1537
860.532471,1541
860.650024,1506
860.767639,1486
860.885193,1498
861.002808,1489
861.120361,1516
861.237976,1492
861.35553,1525
861.473022,1513
861.590698,1547
861.708191,1569
861.825745,1581
861.943298,1492
862.060852,1502
862.178406,1533
862.295959,1547
862.413513,1485
862.531006,1456
862.64856,1442
862.766113,1468
862.883667,1455
863.00116,1481
863.118713,1497
863.236206,1430
863.353699,1488
863.471252,1481
863.588745,1464
863.706177,1469
863.82373,1538
863.941162,1501
864.058716,1504
864.176208,1477
864.29364,1459
864.411194,1488
864.528687,1426
864.646118,1496
864.763611,1478
864.881042,1485
864.998535,1439
865.116028,1466
865.233459,1458
865.350891,1496
865.468384,1437
865.585754,1542
865.703308,1457
865.820679,1507
865.938171,1441
866.055542,1503
866.173035,1481
866.290466,1453
866.407837,1490
866.52533,1442
866.6427,1457
866.760071,1437
866.877563,1506
866.994934,1526
867.112305,1432
867.229736,1470
867.347107,1464
867.464539,1550
867.58197,1493
867.699341,1526
867.81665,1491
867.934082,1464
868.051453,1476
868.168823,1542
868.286194,1513
868.403564,1487
868.520935,1504
868.638306,1498
868.755676,1499
868.872986,1477
868.990295,1532
869.107727,1558
869.225037,1515
869.342346,1543
869.459717,1572
869.577026,1562
869.694336,1582
869.811707,1546
869.929016,1560
870.046326,1573
870.163635,1582
870.280945,1599
870.398254,1595
870.515564,1537
870.632812,1572
870.750183,1592
870.867432,1612
870.984741,1589
871.102051,1594
871.219299,1602
871.336609,1639
871.453918,1634
871.571106,1654
871.688416,1619
871.805664,1653
871.922852,1645
872.040222,1658
872.157471,1660
872.274719,1668
872.391968,1639
872.509155,1615
872.626465,1649
872.743652,1642
872.860962,1640
872.978149,1608
873.095337,1581
873.212646,1578
873.329834,1617
873.44696,1658
873.564209,1623
873.681396,1586
873.798645,1598
873.915894,1541
874.03302,1571
874.150208,1602
874.267456,1643
874.384583,1636
874.501831,1676
874.618958,1649
874.736145,1600
874.853333,1705
874.970459,1654
875.087646,1654
875.204834,1683
875.32196,1615
875.439148,1606
875.556274,1616
875.673401,1595
875.790527,1571
875.907715,1594
876.024841,1568
876.141968,1564
876.259094,1568
876.376282,1587
876.493347,1570
876.610474,1545
876.7276,1561
876.844727,1578
876.961853,1520
877.078918,1582
877.195984,1548
877.313171,1567
877.430237,1520
877.547302,1589
877.664368,1525
877.781433,1555
877.898499,1535
878.015625,1572
878.13269,1556
878.249695,1524
878.366821,1537
878.483887,1511
878.600952,1486
878.717957,1515
878.834961,1549
878.952087,1537
879.069092,1488
879.186157,1458
879.303162,1483
879.420227,1467
879.537231,1526
879.654236,1459
879.77124,1500
879.888306,1491
880.005249,1491
880.122314,1425
880.239319,1478
880.356323,1493
880.473328,1448
880.590271,1433
880.707275,1442
880.824341,1457
880.941284,1416
881.058228,1443
881.175232,1442
881.292236,1435
881.40918,1442
881.526123,1471
881.643066,1436
881.760071,1456
881.877014,1412
881.993958,1492
882.11084,1465
882.227783,1468
882.344727,1488
882.46167,1437
882.578613,1477
882.695618,1477
882.812439,1472
882.929382,1483
883.046326,1467
883.163208,1473
883.280151,1461
883.397034,1453
883.513916,1444
883.630798,1461
883.747742,1443
883.864563,1504
883.981506,1479
884.098389,1464
884.21521,1494
884.332153,1552
884.448975,1580
884.565796,1561
884.682678,1556
884.7995,1633
884.916443,1625
885.033264,1710
885.150085,1711
885.266968,1801
885.383789,1805
885.500671,1843
885.617493,1851
885.734314,1857
885.851196,1863
885.967896,1830
886.084717,1830
886.201599,1853
886.318359,1817
886.435181,1815
886.552002,1778
886.668762,1764
886.785645,1754
886.902344,1704
887.019165,1744
887.135925,1733
887.252747,1656
887.369446,1690
887.486267,1696
887.603027,1644
887.719788,1624
887.836548,1604
887.953247,1600
888.070068,1565
888.186829,1521
888.303528,1573
888.420288,1561
888.536987,1506
888.653687,1493
888.770447,1491
888.887146,1456
889.003967,1413
889.120667,1477
889.237305,1436
889.354065,1423
889.470703,1409
889.587463,1383
889.704163,1423
889.820862,1398
889.937561,1403
890.054199,1428
890.170837,1421
890.287598,1410
890.404236,1422
890.520874,1361
890.637634,1468
890.754211,1413
890.87085,1440
890.987549,1428
891.104187,1451
891.220886,1407
891.337463,1425
891.454102,1401
891.57074,1439
891.687378,1409
891.804077,1461
891.920654,1447
892.037231,1454
892.15387,1471
892.270447,1435
892.387085,1450
892.503723,1492
892.6203,1430
892.736877,1410
892.853516,1454
892.970032,1393
893.08667,1431
893.203186,1409
893.319763,1439
893.43634,1391
893.552917,1479
893.669556,1434
893.786011,1445
893.902588,1433
894.019165,1409
894.135681,1375
894.252197,1447
894.368835,1430
894.485291,1465
894.601868,1423
894.718384,1459
894.8349,1459
894.951355,1448
895.067932,1458
895.184448,1440
895.300964,1425
895.417419,1382
895.533936,1413
895.650452,1448
895.766907,1406
895.883423,1447
895.999878,1393
896.116333,1473
896.232849,1421
896.349304,1452
896.465759,1438
896.582214,1450
896.698669,1460
896.815125,1434
896.931641,1459
897.048035,1460
897.164551,1450
897.280884,1438
897.397339,1462
897.513794,1428
897.630249,1426
897.746582,1446
897.863098,1444
897.979431,1405
898.095886,1473
898.212341,1396
898.328674,1438
898.445129,1457
898.561462,1463
898.677795,1455
898.794312,1435
898.910645,1463
899.026978,1486
899.143433,1442
899.259766,1473
899.37616,1453
899.492493,1480
899.608765,1470
899.725159,1504
899.841553,1415
899.957947,1481
900.07428,1442
900.190552,1460
900.306946,1451
900.423157,1507
900.53949,1454
900.655884,1411
900.772156,1456
900.888489,1492
901.004822,1485
901.121033,1446
901.237366,1475
901.353699,1503
901.46991,1487
901.586304,1514
901.702515,1492
901.818787,1498
901.93512,1516
902.051331,1585
902.167603,1570
902.283875,1576
902.400085,1562
902.516418,1574
902.632629,1652
902.74884,1622
902.865112,1670
902.981384,1691
903.097595,1662
903.213867,1664
903.330017,1627
903.446289,1626
903.5625,1578
903.67865,1643
903.794922,1609
903.911072,1563
904.027344,1577
904.143494,1573
904.259705,1553
904.375916,1533
904.492065,1529
904.608215,1520
904.724426,1484
904.840576,1512
904.956726,1472
905.072876,1487
905.189087,1475
905.305176,1471
905.421387,1486
905.537537,1495
905.653687,1475
905.769775,1420
905.885925,1495
906.002014,1472
906.118164,1505
906.234314,1485
906.350403,1420
906.466492,1495
906.582642,1439
906.69873,1458
906.814758,1475
906.930908,1440
907.046936,1421
907.163086,1432
907.279175,1415
907.395264,1424
907.511353,1413
907.62738,1435
907.743408,1383
907.859497,1477
907.975525,1444
908.091553,1438
908.207703,1438
908.32373,1440
908.439758,1410
908.555786,1423
908.671814,1438
908.787842,1463
908.90387,1413
909.019775,1443
909.135864,1440
909.251892,1447
909.367859,1433
909.483826,1438
909.599854,1453
909.715881,1442
909.831848,1468
909.947815,1451
910.063782,1445
910.179749,1446
910.295776,1442
910.411743,1463
910.527649,1451
910.643616,1464
910.759583,1447
910.875488,1457
910.991455,1480
911.107361,1451
911.223267,1441
911.339294,1474
911.4552,1438
911.571106,1456
911.687073,1442
911.802979,1464
911.918823,1435
912.034729,1431
912.150635,1446
912.266602,1389
912.382446,1436
912.498352,1389
912.614197,1427
912.730103,1385
912.846008,1423
