792.44574,2127
792.56488,2153
792.68396,2133
792.80304,2094
792.92218,2081
793.041199,2086
793.160339,2066
793.279419,2062
793.398499,2056
793.517578,1983
793.636658,2030
793.755737,2012
793.874817,2031
793.993896,2053
794.112976,2009
794.232056,1953
794.351074,1985
794.470215,1964
794.589233,1979
794.708313,2003
794.827393,1938
794.946411,1990
795.065552,2003
795.18457,1958
795.303589,1951
795.422668,1953
795.541687,1924
795.660767,1910
795.779846,1929
795.898865,1880
796.017883,1942
796.136963,1908
796.255981,1930
796.375061,1934
796.49408,1909
796.613037,1970
796.732117,1909
796.851135,1922
796.970154,1925
797.089233,1853
797.208191,1908
797.327271,1877
797.446228,1967
797.565186,1920
797.684265,1905
797.803223,1890
797.922241,1904
798.04126,1921
798.160278,1939
798.279297,1909
798.398315,1899
798.517273,1922
798.636292,1836
798.75531,1924
798.874268,1916
798.993286,1864
799.112244,1907
799.231323,1909
799.350281,1891
799.469238,1922
799.588257,1934
799.707153,1903
799.826111,1874
799.945129,1866
800.064087,1908
800.183044,1910
800.302063,1892
800.421021,1920
800.539978,1898
800.658936,1897
800.777893,1927
800.896912,1866
801.015747,1909
801.134705,1937
801.253723,1935
801.37262,1911
801.491638,1924
801.610535,1950
801.729492,1954
801.84845,1942
801.967407,1935
802.086243,1965
802.205261,1988
802.324158,1967
802.443115,1949
802.562073,1937
802.680969,1987
802.799927,1952
802.918762,1935
803.037659,1998
803.156677,1984
803.275574,2034
803.39447,1977
803.513428,1977
803.632263,1987
803.751221,1990
803.870117,1999
803.989014,2012
804.107971,2010
804.226746,2028
804.345642,1956
804.4646,1988
804.583496,2040
804.702393,2008
804.821228,1972
804.940125,2067
805.059021,2034
805.177917,2046
805.296814,2099
805.415649,2090
805.534546,2055
805.653442,2061
805.772278,2080
805.891113,2026
806.01001,2084
806.128906,2078
806.247742,2088
806.366577,2066
806.485413,2068
806.604309,2071
806.723145,2066
806.84198,2067
806.960876,2077
807.079712,2111
807.198486,2067
807.317383,2104
807.436218,2121
807.554993,2055
807.673889,2107
807.792725,2083
807.91156,2125
808.030396,2077
808.14917,2158
808.268005,2064
808.386841,2141
808.505676,2119
808.624451,2098
808.743286,2120
808.862122,2203
808.980896,2119
809.099731,2146
809.218506,2146
809.337341,2210
809.456116,2177
809.57489,2177
809.693726,2143
809.8125,2168
809.931274,2180
810.050049,2210
810.168884,2165
810.287659,2171
810.406372,2121
810.525269,2198
810.643982,2141
810.762756,2178
810.881531,2171
811.000305,2142
811.11908,2162
811.237854,2183
811.356567,2184
811.475403,2180
811.594116,2113
811.71283,2182
811.831604,2156
811.950378,2185
812.069153,2155
812.187927,2177
812.30658,2135
812.425415,2121
812.544128,2170
812.662781,2139
812.781616,2176
812.900269,2250
813.019043,2220
813.137756,2147
813.256531,2212
813.375244,2160
813.493896,2183
813.612671,2166
813.731384,2139
813.850037,2239
813.96875,2168
814.087524,2119
814.206238,2176
814.324951,2109
814.443604,2150
814.562256,2146
814.68103,2112
814.799683,2086
814.918335,2168
815.037109,2131
815.155762,2065
815.274475,2160
815.393188,2128
815.511841,2068
815.630554,2138
815.749146,2117
815.867859,2082
815.986572,2093
816.105164,2043
816.223877,2039
816.342529,1997
816.461182,2075
816.579895,2096
816.698486,2135
816.817139,2111
816.935791,2087
817.054504,2103
817.173096,2075
817.291748,2047
817.4104,2037
817.529053,2035
817.647644,2015
817.766235,1955
817.884949,1920
818.00354,1865
818.122192,1840
818.240845,1824
818.359436,1807
818.478088,1788
818.59668,1726
818.715271,1685
818.833923,1708
818.952515,1634
819.071106,1609
819.189758,1590
819.30835,1660
819.426941,1549
819.545532,1567
819.664124,1584
819.782715,1580
819.901306,1524
820.019897,1545
820.138489,1530
820.25708,1548
820.375671,1490
820.494202,1496
820.612732,1490
820.731384,1517
820.849915,1512
820.968506,1477
821.087097,1510
821.205627,1486
821.324158,1436
821.442749,1484
821.561279,1452
821.679871,1463
821.798401,1483
821.916931,1479
822.035461,1427
822.154053,1451
822.272583,1455
822.391174,1443
822.509583,1457
822.628174,1453
822.746704,1466
822.865234,1398
822.983765,1454
823.102295,1414
823.220825,1437
823.339294,1440
823.457825,1430
823.576355,1485
823.694824,1414
823.813354,1437
823.931885,1413
824.050354,1438
824.168884,1447
824.287354,1438
824.405823,1474
824.524353,1448
824.642822,1440
824.761353,1480
824.879822,1468
824.998291,1442
825.116699,1461
825.235291,1447
825.353699,1471
825.472168,1409
825.590637,1385
825.709106,1405
825.827576,1395
825.946045,1436
826.064453,1420
826.182983,1352
826.301392,1407
826.4198,1388
826.53833,1410
826.656738,1378
826.775208,1392
826.893677,1389
827.012024,1313
827.130493,1387
827.248962,1373
827.36731,1322
827.485779,1326
827.604248,1362
827.722595,1341
827.841064,1391
827.959412,1346
828.077942,1355
828.196289,1357
828.314636,1357
828.433105,1302
828.551514,1343
828.669861,1345
828.78833,1353
828.906677,1345
829.025085,1343
829.143433,1352
829.261841,1319
829.38031,1341
829.498657,1305
829.617004,1356
829.735413,1345
829.85376,1310
829.972107,1314
830.090515,1323
830.208862,1338
830.327209,1340
830.445557,1323
830.563904,1317
830.682312,1324
830.800659,1313
830.919006,1303
831.037354,1271
831.155701,1353
831.274048,1303
831.392395,1311
831.51062,1347
831.629028,1337
831.747314,1343
831.865662,1338
831.984009,1318
832.102356,1318
832.220642,1317
832.338928,1312
832.457275,1333
832.575623,1341
832.693909,1257
832.812134,1289
832.930481,1324
833.048828,1335
833.167114,1272
833.2854,1323
833.403687,1312
833.521973,1331
833.640259,1330
833.758545,1360
833.876831,1279
833.995056,1302
834.113281,1328
834.231628,1302
834.349915,1318
834.468201,1328
834.586426,1309
834.704651,1315
834.822998,1325
834.941162,1326
835.059448,1309
835.177673,1342
835.295959,1296
835.414246,1324
835.53241,1323
835.650635,1309
835.768921,1313
835.887146,1346
836.005371,1339
836.123596,1359
836.241821,1382
836.360046,1333
836.478271,1368
836.596497,1375
836.714722,1375
836.832886,1389
836.95105,1392
837.069336,1393
837.1875,1375
837.305725,1398
837.423889,1364
837.542053,1383
837.660339,1351
837.778503,1391
837.896667,1393
838.014832,1382
838.132996,1389
838.25116,1389
838.369385,1395
838.487488,1395
838.605713,1352
838.723877,1395
838.84198,1383
838.960205,1358
839.078308,1366
839.196472,1366
839.314636,1422
839.4328,1410
839.550964,1380
839.669067,1399
839.787231,1377
839.905396,1391
840.023499,1352
840.141602,1353
840.259766,1366
840.377869,1372
840.495972,1345
840.614136,1329
840.732239,1350
840.850342,1367
840.968445,1319
841.086548,1324
841.204651,1335
841.322754,1343
841.440918,1344
841.55896,1318
841.677002,1303
841.795166,1332
841.913208,1316
842.031311,1350
842.149353,1310
842.267456,1286
842.385498,1302
842.503601,1326
842.621643,1357
842.739746,1295
842.857788,1270
842.97583,1292
843.093933,1258
843.211975,1280
843.330017,1252
843.44812,1310
843.566101,1285
843.684204,1304
843.802246,1253
843.920227,1315
844.038269,1257
844.156311,1267
844.274292,1252
844.392395,1282
844.510376,1285
844.628357,1237
844.74646,1274
844.864441,1255
844.982422,1250
845.100403,1304
845.218384,1224
845.336426,1272
845.454468,1298
845.572449,1250
845.69043,1303
845.808411,1281
845.926453,1295
846.044373,1243
846.162354,1273
846.280396,1299
846.398315,1240
846.516296,1257
846.634216,1265
846.752197,1290
846.870178,1280
846.988098,1289
847.106079,1285
847.22406,1253
847.34198,1219
847.4599,1280
847.577881,1267
847.695801,1244
847.813782,1286
847.931641,1278
848.049561,1249
848.167603,1232
848.285461,1258
848.403381,1260
848.521362,1279
848.639221,1273
848.75708,1227
848.875,1251
848.99292,1242
849.110901,1282
849.22876,1286
849.34668,1276
849.464539,1276
849.582458,1275
849.700317,1244
849.818176,1285
849.936096,1232
850.053955,1267
850.171875,1265
850.289673,1297
850.407593,1245
850.525452,1264
850.643311,1267
850.761169,1278
850.878967,1233
850.996887,1242
851.114746,1276
851.232544,1287
851.350403,1267
851.468262,1263
851.58606,1229
851.703979,1244
851.821777,1254
851.939636,1278
852.057434,1264
852.175232,1286
852.293091,1248
852.410889,1294
852.528687,1270
852.646545,1279
852.764343,1254
852.88208,1277
852.999939,1275
853.117676,1275
853.235535,1299
853.353271,1294
853.471069,1274
853.588928,1284
853.706604,1312
853.824402,1292
853.9422,1264
854.059998,1256
854.177734,1298
854.295532,1277
854.413269,1313
854.531006,1301
854.648804,1309
854.766541,1241
854.884277,1265
855.002014,1271
855.119751,1300
855.237549,1309
855.355225,1324
855.473022,1294
855.590698,1250
855.708435,1315
855.826172,1333
855.943848,1312
856.061646,1333
856.179321,1295
856.296997,1315
856.414795,1313
856.53241,1311
856.650085,1305
856.767822,1300
856.885559,1284
857.003174,1306
857.120911,1349
857.238586,1296
857.356201,1264
857.473938,1329
857.591614,1282
857.709351,1308
857.826965,1250
857.944641,1323
858.062317,1288
858.179993,1255
858.297668,1298
858.415283,1308
858.532959,1307
858.650574,1264
858.768188,1321
858.885803,1310
859.003479,1313
859.121094,1280
859.23877,1285
859.356384,1281
859.473999,1276
859.591675,1302
859.709229,1284
859.826843,1321
859.944458,1270
860.062012,1255
860.179626,1300
860.297302,1273
860.414856,1262
860.532471,1238
860.650024,1281
860.767639,1249
860.885193,1281
861.002808,1302
861.120361,1281
861.237976,1275
861.35553,1264
861.473022,1283
861.590698,1266
861.708191,1263
861.825745,1263
861.943298,1292
862.060852,1264
862.178406,1239
862.295959,1263
862.413513,1299
862.531006,1269
862.64856,1271
862.766113,1279
862.883667,1290
863.00116,1281
863.118713,1273
863.236206,1292
863.353699,1264
863.471252,1276
863.588745,1270
863.706177,1273
863.82373,1274
863.941162,1271
864.058716,1256
864.176208,1279
864.29364,1269
864.411194,1295
864.528687,1295
864.646118,1306
864.763611,1300
864.881042,1240
864.998535,1301
865.116028,1290
865.233459,1287
865.350891,1262
865.468384,1277
865.585754,1341
865.703308,1299
865.820679,1287
865.938171,1304
866.055542,1316
866.173035,1286
866.290466,1265
866.407837,1304
866.52533,1295
866.6427,1291
866.760071,1307
866.877563,1311
866.994934,1281
867.112305,1290
867.229736,1303
867.347107,1311
867.464539,1304
867.58197,1310
867.699341,1303
867.81665,1315
867.934082,1322
868.051453,1282
868.168823,1291
868.286194,1309
868.403564,1312
868.520935,1287
868.638306,1315
868.755676,1327
868.872986,1280
868.990295,1274
869.107727,1311
869.225037,1301
869.342346,1279
869.459717,1279
869.577026,1321
869.694336,1292
869.811707,1293
869.929016,1324
870.046326,1313
870.163635,1268
870.280945,1329
870.398254,1269
870.515564,1326
870.632812,1310
870.750183,1289
870.867432,1295
870.984741,1276
871.102051,1299
871.219299,1292
871.336609,1310
871.453918,1273
871.571106,1262
871.688416,1273
871.805664,1298
871.922852,1286
872.040222,1294
872.157471,1267
872.274719,1260
872.391968,1297
872.509155,1277
872.626465,1290
872.743652,1291
872.860962,1278
872.978149,1313
873.095337,1276
873.212646,1341
873.329834,1258
873.44696,1327
873.564209,1266
873.681396,1312
873.798645,1312
873.915894,1307
874.03302,1256
874.150208,1276
874.267456,1295
874.384583,1242
874.501831,1314
874.618958,1266
874.736145,1284
874.853333,1304
874.970459,1299
875.087646,1319
875.204834,1258
875.32196,1252
875.439148,1283
875.556274,1265
875.673401,1289
875.790527,1297
875.907715,1319
876.024841,1283
876.141968,1312
876.259094,1302
876.376282,1291
876.493347,1305
876.610474,1295
876.7276,1281
876.844727,1308
876.961853,1285
877.078918,1306
877.195984,1253
877.313171,1359
877.430237,1308
877.547302,1320
877.664368,1324
877.781433,1269
877.898499,1309
878.015625,1290
878.13269,1303
878.249695,1318
878.366821,1293
878.483887,1293
878.600952,1286
878.717957,1290
878.834961,1287
878.952087,1306
879.069092,1314
879.186157,1327
879.303162,1336
879.420227,1287
879.537231,1285
879.654236,1316
879.77124,1331
879.888306,1270
880.005249,1299
880.122314,1312
880.239319,1268
880.356323,1276
880.473328,1298
880.590271,1310
880.707275,1323
880.824341,1324
880.941284,1299
881.058228,1291
881.175232,1303
881.292236,1286
881.40918,1325
881.526123,1296
881.643066,1262
881.760071,1344
881.877014,1314
881.993958,1283
882.11084,1301
882.227783,1325
882.344727,1309
882.46167,1282
882.578613,1321
882.695618,1332
882.812439,1298
882.929382,1320
883.046326,1311
883.163208,1332
883.280151,1309
883.397034,1296
883.513916,1300
883.630798,1303
883.747742,1316
883.864563,1313
883.981506,1316
884.098389,1289
884.21521,1303
884.332153,1320
884.448975,1298
884.565796,1328
884.682678,1266
884.7995,1277
884.916443,1299
885.033264,1343
885.150085,1317
885.266968,1374
885.383789,1319
885.500671,1324
885.617493,1342
885.734314,1306
885.851196,1324
885.967896,1325
886.084717,1292
886.201599,1339
886.318359,1332
886.435181,1363
886.552002,1297
886.668762,1330
886.785645,1345
886.902344,1341
887.019165,1320
887.135925,1331
887.252747,1324
887.369446,1304
887.486267,1358
887.603027,1297
887.719788,1332
887.836548,1307
887.953247,1321
888.070068,1341
888.186829,1319
888.303528,1333
888.420288,1319
888.536987,1372
888.653687,1332
888.770447,1306
888.887146,1377
889.003967,1355
889.120667,1311
889.237305,1311
889.354065,1320
889.470703,1334
889.587463,1320
889.704163,1338
889.820862,1346
889.937561,1358
890.054199,1353
890.170837,1310
890.287598,1333
890.404236,1329
890.520874,1303
890.637634,1355
890.754211,1331
890.87085,1363
890.987549,1313
891.104187,1389
891.220886,1338
891.337463,1381
891.454102,1336
891.57074,1375
891.687378,1333
891.804077,1405
891.920654,1328
892.037231,1378
892.15387,1320
892.270447,1340
892.387085,1342
892.503723,1338
892.6203,1360
892.736877,1361
892.853516,1343
892.970032,1372
893.08667,1340
893.203186,1337
893.319763,1357
893.43634,1362
893.552917,1367
893.669556,1366
893.786011,1350
893.902588,1370
894.019165,1350
894.135681,1345
894.252197,1355
894.368835,1377
894.485291,1378
894.601868,1408
894.718384,1358
894.8349,1361
894.951355,1372
895.067932,1385
895.184448,1345
895.300964,1336
895.417419,1353
895.533936,1350
895.650452,1353
895.766907,1394
895.883423,1375
895.999878,1334
896.116333,1393
896.232849,1352
896.349304,1339
896.465759,1356
896.582214,1376
896.698669,1346
896.815125,1371
896.931641,1323
897.048035,1373
897.164551,1357
897.280884,1357
897.397339,1345
897.513794,1346
897.630249,1398
897.746582,1371
897.863098,1389
897.979431,1354
898.095886,1366
898.212341,1348
898.328674,1326
898.445129,1348
898.561462,1376
898.677795,1360
898.794312,1397
898.910645,1344
899.026978,1357
899.143433,1364
899.259766,1375
899.37616,1351
899.492493,1385
899.608765,1387
899.725159,1386
899.841553,1337
899.957947,1392
900.07428,1339
900.190552,1413
900.306946,1376
900.423157,1373
900.53949,1370
900.655884,1348
900.772156,1396
900.888489,1380
901.004822,1384
901.121033,1376
901.237366,1328
901.353699,1354
901.46991,1343
901.586304,1353
901.702515,1354
901.818787,1375
901.93512,1402
902.051331,1366
902.167603,1331
902.283875,1375
902.400085,1359
902.516418,1356
902.632629,1392
902.74884,1381
902.865112,1360
902.981384,1360
903.097595,1407
903.213867,1394
903.330017,1396
903.446289,1378
903.5625,1361
903.67865,1385
903.794922,1396
903.911072,1404
904.027344,1383
904.143494,1337
904.259705,1355
904.375916,1385
904.492065,1400
904.608215,1406
904.724426,1394
904.840576,1396
904.956726,1423
905.072876,1381
905.189087,1387
905.305176,1406
905.421387,1409
905.537537,1394
905.653687,1397
905.769775,1421
905.885925,1415
906.002014,1413
906.118164,1384
906.234314,1378
906.350403,1390
906.466492,1369
906.582642,1384
906.69873,1393
906.814758,1405
906.930908,1424
907.046936,1358
907.163086,1430
907.279175,1379
907.395264,1385
907.511353,1408
907.62738,1348
907.743408,1375
907.859497,1385
907.975525,1375
908.091553,1401
908.207703,1362
908.32373,1389
908.439758,1431
908.555786,1379
908.671814,1407
908.787842,1365
908.90387,1412
909.019775,1379
909.135864,1376
909.251892,1389
909.367859,1434
909.483826,1395
909.599854,1363
909.715881,1401
909.831848,1385
909.947815,1382
910.063782,1414
910.179749,1382
910.295776,1406
910.411743,1378
910.527649,1372
910.643616,1412
910.759583,1374
910.875488,1426
910.991455,1398
911.107361,1418
911.223267,1391
911.339294,1414
911.4552,1411
911.571106,1396
911.687073,1422
911.802979,1368
911.918823,1373
912.034729,1405
912.150635,1366
912.266602,1420
912.382446,1389
912.498352,1411
912.614197,1393
912.730103,1384
912.846008,1398
792.44574,2199
792.56488,2199
792.68396,2209
792.80304,2135
792.92218,2079
793.041199,2121
793.160339,2128
793.279419,2086
793.398499,2117
793.517578,2033
793.636658,2108
793.755737,2033
793.874817,2098
793.993896,2058
794.112976,2019
794.232056,2076
794.351074,2031
794.470215,2035
794.589233,1994
794.708313,2036
794.827393,2037
794.946411,1994
795.065552,1992
795.18457,1943
795.303589,2007
795.422668,2036
795.541687,1987
795.660767,1966
795.779846,1986
795.898865,1970
796.017883,1946
796.136963,1941
796.255981,1949
796.375061,1963
796.49408,2017
796.613037,1951
796.732117,1894
796.851135,1972
796.970154,1930
797.089233,1908
797.208191,1965
797.327271,1947
797.446228,1970
797.565186,1950
797.684265,1899
797.803223,1964
797.922241,1893
798.04126,1969
798.160278,1904
798.279297,1870
798.398315,1921
798.517273,1954
798.636292,1887
798.75531,1879
798.874268,1956
798.993286,1936
799.112244,1950
799.231323,1923
799.350281,1967
799.469238,1936
799.588257,1959
799.707153,1964
799.826111,1954
799.945129,1928
800.064087,1926
800.183044,1888
800.302063,1960
800.421021,1970
800.539978,1917
800.658936,1925
800.777893,1944
800.896912,1877
801.015747,1956
801.134705,1929
801.253723,1954
801.37262,1942
801.491638,1941
801.610535,1955
801.729492,1996
801.84845,1955
801.967407,1936
802.086243,1999
802.205261,1981
802.324158,1958
802.443115,1952
802.562073,2003
802.680969,1980
802.799927,1981
802.918762,2026
803.037659,1954
803.156677,2041
803.275574,1978
803.39447,2004
803.513428,2009
803.632263,2037
803.751221,2004
803.870117,2064
803.989014,2013
804.107971,2047
804.226746,2037
804.345642,2045
804.4646,2083
804.583496,2033
804.702393,2046
804.821228,2049
804.940125,2095
805.059021,2072
805.177917,2093
805.296814,2063
805.415649,2060
805.534546,2112
805.653442,2071
805.772278,2069
805.891113,2085
806.01001,2081
806.128906,2094
806.247742,2130
806.366577,2128
806.485413,2120
806.604309,2132
806.723145,2120
806.84198,2131
806.960876,2092
807.079712,2092
807.198486,2114
807.317383,2116
807.436218,2163
807.554993,2146
807.673889,2167
807.792725,2153
807.91156,2120
808.030396,2078
808.14917,2110
808.268005,2120
808.386841,2158
808.505676,2144
808.624451,2167
808.743286,2146
808.862122,2138
808.980896,2183
809.099731,2197
809.218506,2205
809.337341,2140
809.456116,2171
809.57489,2232
809.693726,2161
809.8125,2193
809.931274,2174
810.050049,2198
810.168884,2189
810.287659,2181
810.406372,2212
810.525269,2228
810.643982,2195
810.762756,2190
810.881531,2244
811.000305,2235
811.11908,2142
811.237854,2225
811.356567,2164
811.475403,2203
811.594116,2171
811.71283,2224
811.831604,2156
811.950378,2210
812.069153,2259
812.187927,2177
812.30658,2249
812.425415,2220
812.544128,2227
812.662781,2252
812.781616,2178
812.900269,2172
813.019043,2231
813.137756,2206
813.256531,2169
813.375244,2215
813.493896,2138
813.612671,2217
813.731384,2198
813.850037,2200
813.96875,2196
814.087524,2254
814.206238,2192
814.324951,2243
814.443604,2158
814.562256,2201
814.68103,2134
814.799683,2213
814.918335,2126
815.037109,2180
815.155762,2184
815.274475,2168
815.393188,2133
815.511841,2048
815.630554,2079
815.749146,2112
815.867859,2132
815.986572,2096
816.105164,2127
816.223877,2078
816.342529,2090
816.461182,2132
816.579895,2143
816.698486,2115
816.817139,2115
816.935791,2168
817.054504,2133
817.173096,2105
817.291748,2142
817.4104,2122
817.529053,2008
817.647644,2014
817.766235,2016
817.884949,1937
818.00354,1935
818.122192,1899
818.240845,1824
818.359436,1827
818.478088,1787
818.59668,1752
818.715271,1761
818.833923,1725
818.952515,1647
819.071106,1679
819.189758,1660
819.30835,1597
819.426941,1595
819.545532,1607
819.664124,1599
819.782715,1591
819.901306,1559
820.019897,1585
820.138489,1592
820.25708,1525
820.375671,1536
820.494202,1532
820.612732,1541
820.731384,1516
820.849915,1560
820.968506,1484
821.087097,1544
821.205627,1489
821.324158,1515
821.442749,1490
821.561279,1512
821.679871,1469
821.798401,1525
821.916931,1496
822.035461,1484
822.154053,1449
822.272583,1431
822.391174,1474
822.509583,1516
822.628174,1418
822.746704,1463
822.865234,1438
822.983765,1468
823.102295,1459
823.220825,1446
823.339294,1474
823.457825,1433
823.576355,1476
823.694824,1451
823.813354,1499
823.931885,1450
824.050354,1523
824.168884,1494
824.287354,1483
824.405823,1480
824.524353,1516
824.642822,1530
824.761353,1508
824.879822,1477
824.998291,1480
825.116699,1479
825.235291,1504
825.353699,1511
825.472168,1445
825.590637,1478
825.709106,1469
825.827576,1448
825.946045,1449
826.064453,1408
826.182983,1431
826.301392,1399
826.4198,1450
826.53833,1380
826.656738,1400
826.775208,1418
826.893677,1428
827.012024,1388
827.130493,1369
827.248962,1377
827.36731,1356
827.485779,1416
827.604248,1384
827.722595,1390
827.841064,1361
827.959412,1390
828.077942,1380
828.196289,1384
828.314636,1355
828.433105,1342
828.551514,1393
828.669861,1371
828.78833,1391
828.906677,1343
829.025085,1359
829.143433,1391
829.261841,1382
829.38031,1355
829.498657,1344
829.617004,1329
829.735413,1341
829.85376,1326
829.972107,1338
830.090515,1321
830.208862,1334
830.327209,1363
830.445557,1349
830.563904,1349
830.682312,1327
830.800659,1340
830.919006,1341
831.037354,1315
831.155701,1349
831.274048,1357
831.392395,1343
831.51062,1358
831.629028,1346
831.747314,1338
831.865662,1376
831.984009,1337
832.102356,1338
832.220642,1336
832.338928,1341
832.457275,1363
832.575623,1350
832.693909,1380
832.812134,1325
832.930481,1330
833.048828,1374
833.167114,1345
833.2854,1313
833.403687,1340
833.521973,1369
833.640259,1313
833.758545,1346
833.876831,1318
833.995056,1301
834.113281,1304
834.231628,1309
834.349915,1360
834.468201,1318
834.586426,1343
834.704651,1370
834.822998,1346
834.941162,1351
835.059448,1335
835.177673,1370
835.295959,1350
835.414246,1342
835.53241,1358
835.650635,1368
835.768921,1374
835.887146,1308
836.005371,1383
836.123596,1369
836.241821,1359
836.360046,1369
836.478271,1390
836.596497,1374
836.714722,1393
836.832886,1385
836.95105,1413
837.069336,1387
837.1875,1433
837.305725,1397
837.423889,1416
837.542053,1444
837.660339,1391
837.778503,1409
837.896667,1430
838.014832,1450
838.132996,1415
838.25116,1427
838.369385,1405
838.487488,1405
838.605713,1413
838.723877,1432
838.84198,1403
838.960205,1433
839.078308,1395
839.196472,1382
839.314636,1471
839.4328,1412
839.550964,1358
839.669067,1386
839.787231,1379
839.905396,1413
840.023499,1415
840.141602,1360
840.259766,1386
840.377869,1367
840.495972,1359
840.614136,1433
840.732239,1391
840.850342,1376
840.968445,1380
841.086548,1380
841.204651,1406
841.322754,1345
841.440918,1349
841.55896,1345
841.677002,1345
841.795166,1334
841.913208,1337
842.031311,1313
842.149353,1319
842.267456,1322
842.385498,1303
842.503601,1323
842.621643,1344
842.739746,1338
842.857788,1303
842.97583,1304
843.093933,1340
843.211975,1278
843.330017,1300
843.44812,1329
843.566101,1304
843.684204,1335
843.802246,1305
843.920227,1286
844.038269,1346
844.156311,1309
844.274292,1274
844.392395,1317
844.510376,1334
844.628357,1311
844.74646,1293
844.864441,1271
844.982422,1276
845.100403,1336
845.218384,1313
845.336426,1287
845.454468,1277
845.572449,1311
845.69043,1278
845.808411,1294
845.926453,1301
846.044373,1289
846.162354,1263
846.280396,1309
846.398315,1244
846.516296,1294
846.634216,1269
846.752197,1277
846.870178,1300
846.988098,1272
847.106079,1276
847.22406,1295
847.34198,1284
847.4599,1320
847.577881,1295
847.695801,1267
847.813782,1299
847.931641,1323
848.049561,1325
848.167603,1320
848.285461,1223
848.403381,1274
848.521362,1276
848.639221,1313
848.75708,1303
848.875,1324
848.99292,1290
849.110901,1298
849.22876,1307
849.34668,1243
849.464539,1313
849.582458,1268
849.700317,1267
849.818176,1314
849.936096,1289
850.053955,1315
850.171875,1297
850.289673,1285
850.407593,1220
850.525452,1302
850.643311,1263
850.761169,1323
850.878967,1263
850.996887,1284
851.114746,1299
851.232544,1274
851.350403,1305
851.468262,1304
851.58606,1287
851.703979,1275
851.821777,1296
851.939636,1257
852.057434,1263
852.175232,1296
852.293091,1309
852.410889,1302
852.528687,1297
852.646545,1279
852.764343,1308
852.88208,1312
852.999939,1319
853.117676,1341
853.235535,1343
853.353271,1298
853.471069,1322
853.588928,1265
853.706604,1293
853.824402,1341
853.9422,1311
854.059998,1282
854.177734,1338
854.295532,1269
854.413269,1312
854.531006,1321
854.648804,1314
854.766541,1307
854.884277,1307
855.002014,1322
855.119751,1294
855.237549,1331
855.355225,1320
855.473022,1299
855.590698,1306
855.708435,1344
855.826172,1327
855.943848,1309
856.061646,1336
856.179321,1323
856.296997,1321
856.414795,1308
856.53241,1346
856.650085,1341
856.767822,1331
856.885559,1312
857.003174,1327
857.120911,1345
857.238586,1355
857.356201,1330
857.473938,1358
857.591614,1330
857.709351,1356
857.826965,1342
857.944641,1318
858.062317,1348
858.179993,1333
858.297668,1339
858.415283,1325
858.532959,1344
858.650574,1312
858.768188,1360
858.885803,1313
859.003479,1318
859.121094,1330
859.23877,1321
859.356384,1339
859.473999,1332
859.591675,1312
859.709229,1374
859.826843,1301
859.944458,1303
860.062012,1312
860.179626,1319
860.297302,1307
860.414856,1319
860.532471,1289
860.650024,1341
860.767639,1298
860.885193,1313
861.002808,1294
861.120361,1334
861.237976,1339
861.35553,1305
861.473022,1294
861.590698,1286
861.708191,1296
861.825745,1339
861.943298,1271
862.060852,1308
862.178406,1293
862.295959,1276
862.413513,1293
862.531006,1307
862.64856,1277
862.766113,1293
862.883667,1284
863.00116,1300
863.118713,1293
863.236206,1295
863.353699,1294
863.471252,1339
863.588745,1279
863.706177,1298
863.82373,1321
863.941162,1345
864.058716,1311
864.176208,1305
864.29364,1277
864.411194,1285
864.528687,1311
864.646118,1337
864.763611,1279
864.881042,1314
864.998535,1337
865.116028,1375
865.233459,1291
865.350891,1274
865.468384,1357
865.585754,1309
865.703308,1313
865.820679,1367
865.938171,1302
866.055542,1330
866.173035,1345
866.290466,1314
866.407837,1317
866.52533,1338
866.6427,1340
866.760071,1353
866.877563,1305
866.994934,1348
867.112305,1277
867.229736,1305
867.347107,1289
867.464539,1329
867.58197,1344
867.699341,1323
867.81665,1380
867.934082,1317
868.051453,1318
868.168823,1360
868.286194,1305
868.403564,1351
868.520935,1312
868.638306,1312
868.755676,1290
868.872986,1316
868.990295,1290
869.107727,1333
869.225037,1288
869.342346,1313
869.459717,1326
869.577026,1302
869.694336,1373
869.811707,1307
869.929016,1310
870.046326,1350
870.163635,1320
870.280945,1355
870.398254,1279
870.515564,1303
870.632812,1310
870.750183,1354
870.867432,1302
870.984741,1316
871.102051,1283
871.219299,1297
871.336609,1324
871.453918,1289
871.571106,1313
871.688416,1317
871.805664,1321
871.922852,1308
872.040222,1294
872.157471,1333
872.274719,1277
872.391968,1340
872.509155,1297
872.626465,1296
872.743652,1315
872.860962,1313
872.978149,1295
873.095337,1326
873.212646,1319
873.329834,1298
873.44696,1342
873.564209,1312
873.681396,1360
873.798645,1325
873.915894,1323
874.03302,1324
874.150208,1284
874.267456,1303
874.384583,1300
874.501831,1327
874.618958,1312
874.736145,1346
874.853333,1350
874.970459,1328
875.087646,1344
875.204834,1300
875.32196,1330
875.439148,1367
875.556274,1344
875.673401,1335
875.790527,1287
875.907715,1340
876.024841,1334
876.141968,1355
876.259094,1315
876.376282,1361
876.493347,1334
876.610474,1343
876.7276,1319
876.844727,1332
876.961853,1298
877.078918,1351
877.195984,1332
877.313171,1319
877.430237,1331
877.547302,1335
877.664368,1298
877.781433,1314
877.898499,1348
878.015625,1375
878.13269,1338
878.249695,1327
878.366821,1364
878.483887,1333
878.600952,1343
878.717957,1326
878.834961,1324
878.952087,1349
879.069092,1358
879.186157,1323
879.303162,1353
879.420227,1327
879.537231,1336
879.654236,1344
879.77124,1332
879.888306,1345
880.005249,1310
880.122314,1306
880.239319,1322
880.356323,1338
880.473328,1337
880.590271,1313
880.707275,1335
880.824341,1306
880.941284,1348
881.058228,1357
881.175232,1347
881.292236,1340
881.40918,1349
881.526123,1366
881.643066,1337
881.760071,1370
881.877014,1317
881.993958,1323
882.11084,1314
882.227783,1353
882.344727,1324
882.46167,1327
882.578613,1319
882.695618,1298
882.812439,1327
882.929382,1351
883.046326,1375
883.163208,1338
883.280151,1330
883.397034,1315
883.513916,1332
883.630798,1316
883.747742,1310
883.864563,1344
883.981506,1360
884.098389,1350
884.21521,1362
884.332153,1360
884.448975,1339
884.565796,1367
884.682678,1302
884.7995,1327
884.916443,1346
885.033264,1320
885.150085,1317
885.266968,1354
885.383789,1323
885.500671,1388
885.617493,1325
885.734314,1333
885.851196,1336
885.967896,1340
886.084717,1337
886.201599,1318
886.318359,1333
886.435181,1324
886.552002,1372
886.668762,1364
886.785645,1351
886.902344,1381
887.019165,1343
887.135925,1342
887.252747,1351
887.369446,1357
887.486267,1343
887.603027,1370
887.719788,1353
887.836548,1315
887.953247,1336
888.070068,1328
888.186829,1397
888.303528,1329
888.420288,1397
888.536987,1300
888.653687,1336
888.770447,1342
888.887146,1354
889.003967,1335
889.120667,1367
889.237305,1377
889.354065,1376
889.470703,1339
889.587463,1350
889.704163,1370
889.820862,1328
889.937561,1387
890.054199,1369
890.170837,1384
890.287598,1368
890.404236,1407
890.520874,1313
890.637634,1427
890.754211,1381
890.87085,1374
890.987549,1366
891.104187,1379
891.220886,1372
891.337463,1380
891.454102,1369
891.57074,1415
891.687378,1404
891.804077,1416
891.920654,1348
892.037231,1393
892.15387,1443
892.270447,1377
892.387085,1382
892.503723,1386
892.6203,1362
892.736877,1367
892.853516,1343
892.970032,1393
893.08667,1376
893.203186,1369
893.319763,1423
893.43634,1396
893.552917,1399
893.669556,1373
893.786011,1381
893.902588,1388
894.019165,1391
894.135681,1374
894.252197,1415
894.368835,1373
894.485291,1401
894.601868,1395
894.718384,1369
894.8349,1374
894.951355,1373
895.067932,1384
895.184448,1416
895.300964,1389
895.417419,1384
895.533936,1396
895.650452,1406
895.766907,1389
895.883423,1446
895.999878,1374
896.116333,1375
896.232849,1364
896.349304,1419
896.465759,1359
896.582214,1363
896.698669,1384
896.815125,1386
896.931641,1415
897.048035,1365
897.164551,1387
897.280884,1419
897.397339,1412
897.513794,1329
897.630249,1381
897.746582,1395
897.863098,1376
897.979431,1383
898.095886,1430
898.212341,1394
898.328674,1440
898.445129,1394
898.561462,1389
898.677795,1393
898.794312,1390
898.910645,1423
899.026978,1393
899.143433,1420
899.259766,1416
899.37616,1401
899.492493,1383
899.608765,1388
899.725159,1380
899.841553,1399
899.957947,1448
900.07428,1408
900.190552,1411
900.306946,1395
900.423157,1419
900.53949,1415
900.655884,1396
900.772156,1422
900.888489,1392
901.004822,1425
901.121033,1386
901.237366,1388
901.353699,1390
901.46991,1405
901.586304,1420
901.702515,1446
901.818787,1378
901.93512,1416
902.051331,1407
902.167603,1416
902.283875,1418
902.400085,1395
902.516418,1404
902.632629,1466
902.74884,1407
902.865112,1410
902.981384,1395
903.097595,1399
903.213867,1428
903.330017,1429
903.446289,1428
903.5625,1407
903.67865,1399
903.794922,1415
903.911072,1392
904.027344,1417
904.143494,1403
904.259705,1433
904.375916,1442
904.492065,1446
904.608215,1424
904.724426,1428
904.840576,1409
904.956726,1376
905.072876,1448
905.189087,1426
905.305176,1427
905.421387,1406
905.537537,1406
905.653687,1400
905.769775,1416
905.885925,1434
906.002014,1421
906.118164,1446
906.234314,1445
906.350403,1411
906.466492,1400
906.582642,1424
906.69873,1461
906.814758,1425
906.930908,1473
907.046936,1439
907.163086,1429
907.279175,1438
907.395264,1447
907.511353,1400
907.62738,1475
907.743408,1415
907.859497,1440
907.975525,1441
908.091553,1426
908.207703,1373
908.32373,1444
908.439758,1408
908.555786,1455
908.671814,1424
908.787842,1434
908.90387,1392
909.019775,1441
909.135864,1438
909.251892,1431
909.367859,1442
909.483826,1471
909.599854,1466
909.715881,1446
909.831848,1422
909.947815,1447
910.063782,1467
910.179749,1497
910.295776,1441
910.411743,1484
910.527649,1403
910.643616,1419
910.759583,1421
910.875488,1454
910.991455,1476
911.107361,1424
911.223267,1469
911.339294,1420
911.4552,1427
911.571106,1396
911.687073,1391
911.802979,1411
911.918823,1410
912.034729,1402
912.150635,1456
912.266602,1433
912.382446,1427
912.498352,1434
912.614197,1403
912.730103,1448
912.846008,1441
792.44574,2192
792.56488,2200
792.68396,2271
792.80304,2206
792.92218,2139
793.041199,2146
793.160339,2154
793.279419,2157
793.398499,2115
793.517578,2097
793.636658,2101
793.755737,2083
793.874817,2037
793.993896,2099
794.112976,2050
794.232056,2081
794.351074,2053
794.470215,2048
794.589233,2044
794.708313,1999
794.827393,2042
794.946411,1972
795.065552,2030
795.18457,2007
795.303589,1997
795.422668,1991
795.541687,1989
795.660767,1982
795.779846,2010
795.898865,1965
796.017883,2001
796.136963,1949
796.255981,2005
796.375061,1976
796.49408,1970
796.613037,1998
796.732117,1982
796.851135,1944
796.970154,2007
797.089233,1933
797.208191,1960
797.327271,1995
797.446228,1974
797.565186,1993
797.684265,1947
797.803223,1954
797.922241,1934
798.04126,1930
798.160278,1988
798.279297,1891
798.398315,1866
798.517273,1998
798.636292,1913
798.75531,1967
798.874268,1963
798.993286,1920
799.112244,1967
799.231323,1968
799.350281,1944
799.469238,1939
799.588257,1945
799.707153,1963
799.826111,1976
799.945129,1985
800.064087,1931
800.183044,1950
800.302063,1947
800.421021,1959
800.539978,1953
800.658936,1930
800.777893,1950
800.896912,1902
801.015747,1969
801.134705,1964
801.253723,1987
801.37262,2003
801.491638,1970
801.610535,1956
801.729492,2012
801.84845,1987
801.967407,1956
802.086243,1992
802.205261,2054
802.324158,2021
802.443115,1981
802.562073,2005
802.680969,1996
802.799927,2039
802.918762,1972
803.037659,2022
803.156677,2037
803.275574,2041
803.39447,2061
803.513428,2015
803.632263,2059
803.751221,2020
803.870117,2061
803.989014,2062
804.107971,2030
804.226746,2077
804.345642,2099
804.4646,2063
804.583496,2082
804.702393,2041
804.821228,2046
804.940125,2051
805.059021,2036
805.177917,2106
805.296814,2096
805.415649,2064
805.534546,2155
805.653442,2139
805.772278,2091
805.891113,2154
806.01001,2085
806.128906,2151
806.247742,2138
806.366577,2128
806.485413,2137
806.604309,2112
806.723145,2127
806.84198,2095
806.960876,2134
807.079712,2118
807.198486,2139
807.317383,2112
807.436218,2049
807.554993,2179
807.673889,2180
807.792725,2167
807.91156,2163
808.030396,2133
808.14917,2157
808.268005,2124
808.386841,2202
808.505676,2203
808.624451,2145
808.743286,2197
808.862122,2178
808.980896,2205
809.099731,2140
809.218506,2167
809.337341,2170
809.456116,2247
809.57489,2194
809.693726,2197
809.8125,2172
809.931274,2224
810.050049,2168
810.168884,2225
810.287659,2190
810.406372,2165
810.525269,2248
810.643982,2158
810.762756,2228
810.881531,2218
811.000305,2172
811.11908,2213
811.237854,2190
811.356567,2224
811.475403,2255
811.594116,2187
811.71283,2199
811.831604,2249
811.950378,2283
812.069153,2202
812.187927,2242
812.30658,2200
812.425415,2253
812.544128,2202
812.662781,2194
812.781616,2216
812.900269,2176
813.019043,2253
813.137756,2233
813.256531,2235
813.375244,2176
813.493896,2228
813.612671,2170
813.731384,2173
813.850037,2209
813.96875,2223
814.087524,2201
814.206238,2230
814.324951,2176
814.443604,2193
814.562256,2153
814.68103,2213
814.799683,2148
814.918335,2201
815.037109,2156
815.155762,2168
815.274475,2187
815.393188,2206
815.511841,2158
815.630554,2207
815.749146,2178
815.867859,2084
815.986572,2155
816.105164,2085
816.223877,2093
816.342529,2098
816.461182,2101
816.579895,2080
816.698486,2120
816.817139,2125
816.935791,2108
817.054504,2234
817.173096,2166
817.291748,2128
817.4104,2102
817.529053,2010
817.647644,2119
817.766235,1978
817.884949,1982
818.00354,1964
818.122192,1927
818.240845,1875
818.359436,1832
818.478088,1778
818.59668,1801
818.715271,1781
818.833923,1742
818.952515,1659
819.071106,1664
819.189758,1678
819.30835,1656
819.426941,1645
819.545532,1634
819.664124,1656
819.782715,1600
819.901306,1604
820.019897,1554
820.138489,1619
820.25708,1533
820.375671,1560
820.494202,1540
820.612732,1580
820.731384,1558
820.849915,1494
820.968506,1536
821.087097,1524
821.205627,1515
821.324158,1525
821.442749,1493
821.561279,1469
821.679871,1473
821.798401,1522
821.916931,1497
822.035461,1496
822.154053,1520
822.272583,1477
822.391174,1466
822.509583,1473
822.628174,1455
822.746704,1423
822.865234,1477
822.983765,1468
823.102295,1473
823.220825,1422
823.339294,1439
823.457825,1505
823.576355,1490
823.694824,1493
823.813354,1494
823.931885,1519
824.050354,1439
824.168884,1512
824.287354,1508
824.405823,1515
824.524353,1497
824.642822,1514
824.761353,1498
824.879822,1494
824.998291,1447
825.116699,1498
825.235291,1496
825.353699,1466
825.472168,1465
825.590637,1448
825.709106,1492
825.827576,1406
825.946045,1427
826.064453,1418
826.182983,1460
826.301392,1448
826.4198,1422
826.53833,1453
826.656738,1429
826.775208,1408
826.893677,1404
827.012024,1385
827.130493,1379
827.248962,1396
827.36731,1368
827.485779,1425
827.604248,1422
827.722595,1355
827.841064,1381
827.959412,1421
828.077942,1375
828.196289,1370
828.314636,1365
828.433105,1398
828.551514,1371
828.669861,1394
828.78833,1366
828.906677,1350
829.025085,1353
829.143433,1369
829.261841,1407
829.38031,1356
829.498657,1374
829.617004,1393
829.735413,1372
829.85376,1368
829.972107,1341
830.090515,1358
830.208862,1319
830.327209,1365
830.445557,1327
830.563904,1392
830.682312,1363
830.800659,1325
830.919006,1340
831.037354,1369
831.155701,1352
831.274048,1339
831.392395,1355
831.51062,1355
831.629028,1324
831.747314,1334
831.865662,1401
831.984009,1352
832.102356,1375
832.220642,1356
832.338928,1384
832.457275,1348
832.575623,1352
832.693909,1372
832.812134,1361
832.930481,1385
833.048828,1370
833.167114,1343
833.2854,1365
833.403687,1359
833.521973,1373
833.640259,1360
833.758545,1379
833.876831,1345
833.995056,1382
834.113281,1369
834.231628,1359
834.349915,1364
834.468201,1361
834.586426,1378
834.704651,1380
834.822998,1372
834.941162,1397
835.059448,1357
835.177673,1343
835.295959,1345
835.414246,1343
835.53241,1365
835.650635,1421
835.768921,1338
835.887146,1406
836.005371,1385
836.123596,1368
836.241821,1363
836.360046,1410
836.478271,1399
836.596497,1419
836.714722,1403
836.832886,1433
836.95105,1444
837.069336,1415
837.1875,1412
837.305725,1395
837.423889,1425
837.542053,1457
837.660339,1465
837.778503,1468
837.896667,1404
838.014832,1459
838.132996,1470
838.25116,1434
838.369385,1407
838.487488,1428
838.605713,1423
838.723877,1451
838.84198,1371
838.960205,1450
839.078308,1418
839.196472,1456
839.314636,1408
839.4328,1427
839.550964,1430
839.669067,1390
839.787231,1350
839.905396,1436
840.023499,1387
840.141602,1419
840.259766,1404
840.377869,1400
840.495972,1389
840.614136,1377
840.732239,1414
840.850342,1374
840.968445,1362
841.086548,1335
841.204651,1417
841.322754,1393
841.440918,1356
841.55896,1394
841.677002,1387
841.795166,1343
841.913208,1395
842.031311,1320
842.149353,1358
842.267456,1333
842.385498,1335
842.503601,1338
842.621643,1308
842.739746,1328
842.857788,1314
842.97583,1276
843.093933,1296
843.211975,1337
843.330017,1364
843.44812,1291
843.566101,1345
843.684204,1328
843.802246,1311
843.920227,1320
844.038269,1359
844.156311,1342
844.274292,1352
844.392395,1311
844.510376,1281
844.628357,1306
844.74646,1309
844.864441,1307
844.982422,1306
845.100403,1323
845.218384,1303
845.336426,1297
845.454468,1300
845.572449,1305
845.69043,1313
845.808411,1283
845.926453,1293
846.044373,1319
846.162354,1298
846.280396,1303
846.398315,1311
846.516296,1306
846.634216,1259
846.752197,1319
846.870178,1277
846.988098,1301
847.106079,1260
847.22406,1301
847.34198,1332
847.4599,1306
847.577881,1317
847.695801,1312
847.813782,1301
847.931641,1322
848.049561,1308
848.167603,1262
848.285461,1272
848.403381,1317
848.521362,1315
848.639221,1271
848.75708,1310
848.875,1278
848.99292,1345
849.110901,1286
849.22876,1278
849.34668,1253
849.464539,1300
849.582458,1269
849.700317,1275
849.818176,1320
849.936096,1245
850.053955,1280
850.171875,1292
850.289673,1308
850.407593,1273
850.525452,1273
850.643311,1313
850.761169,1309
850.878967,1301
850.996887,1317
851.114746,1326
851.232544,1303
851.350403,1280
851.468262,1303
851.58606,1313
851.703979,1320
851.821777,1269
851.939636,1351
852.057434,1301
852.175232,1290
852.293091,1283
852.410889,1305
852.528687,1286
852.646545,1293
852.764343,1319
852.88208,1305
852.999939,1326
853.117676,1329
853.235535,1302
853.353271,1332
853.471069,1311
853.588928,1313
853.706604,1283
853.824402,1319
853.9422,1303
854.059998,1348
854.177734,1323
854.295532,1312
854.413269,1321
854.531006,1322
854.648804,1318
854.766541,1307
854.884277,1330
855.002014,1355
855.119751,1365
855.237549,1333
855.355225,1375
855.473022,1329
855.590698,1338
855.708435,1353
855.826172,1359
855.943848,1324
856.061646,1366
856.179321,1336
856.296997,1361
856.414795,1350
856.53241,1330
856.650085,1336
856.767822,1326
856.885559,1362
857.003174,1344
857.120911,1320
857.238586,1316
857.356201,1338
857.473938,1350
857.591614,1363
857.709351,1361
857.826965,1328
857.944641,1379
858.062317,1305
858.179993,1363
858.297668,1330
858.415283,1368
858.532959,1339
858.650574,1357
858.768188,1327
858.885803,1326
859.003479,1315
859.121094,1317
859.23877,1343
859.356384,1388
859.473999,1281
859.591675,1307
859.709229,1286
859.826843,1324
859.944458,1296
860.062012,1297
860.179626,1300
860.297302,1292
860.414856,1293
860.532471,1349
860.650024,1314
860.767639,1321
860.885193,1304
861.002808,1287
861.120361,1317
861.237976,1272
861.35553,1309
861.473022,1308
861.590698,1330
861.708191,1309
861.825745,1312
861.943298,1305
862.060852,1340
862.178406,1314
862.295959,1322
862.413513,1332
862.531006,1315
862.64856,1357
862.766113,1315
862.883667,1278
863.00116,1330
863.118713,1356
863.236206,1313
863.353699,1298
863.471252,1290
863.588745,1320
863.706177,1331
863.82373,1261
863.941162,1329
864.058716,1338
864.176208,1360
864.29364,1329
864.411194,1352
864.528687,1342
864.646118,1368
864.763611,1323
864.881042,1374
864.998535,1346
865.116028,1358
865.233459,1322
865.350891,1319
865.468384,1314
865.585754,1302
865.703308,1332
865.820679,1334
865.938171,1351
866.055542,1338
866.173035,1302
866.290466,1332
866.407837,1384
866.52533,1361
866.6427,1363
866.760071,1339
866.877563,1346
866.994934,1363
867.112305,1316
867.229736,1316
867.347107,1360
867.464539,1313
867.58197,1322
867.699341,1319
867.81665,1346
867.934082,1355
868.051453,1332
868.168823,1360
868.286194,1320
868.403564,1301
868.520935,1343
868.638306,1315
868.755676,1369
868.872986,1346
868.990295,1346
869.107727,1368
869.225037,1351
869.342346,1353
869.459717,1360
869.577026,1337
869.694336,1319
869.811707,1342
869.929016,1330
870.046326,1325
870.163635,1327
870.280945,1335
870.398254,1341
870.515564,1309
870.632812,1308
870.750183,1332
870.867432,1353
870.984741,1313
871.102051,1355
871.219299,1343
871.336609,1315
871.453918,1288
871.571106,1341
871.688416,1319
871.805664,1310
871.922852,1366
872.040222,1343
872.157471,1367
872.274719,1380
872.391968,1340
872.509155,1336
872.626465,1341
872.743652,1336
872.860962,1327
872.978149,1320
873.095337,1331
873.212646,1310
873.329834,1343
873.44696,1350
873.564209,1316
873.681396,1337
873.798645,1325
873.915894,1275
874.03302,1359
874.150208,1357
874.267456,1310
874.384583,1334
874.501831,1354
874.618958,1291
874.736145,1333
874.853333,1310
874.970459,1310
875.087646,1323
875.204834,1342
875.32196,1308
875.439148,1360
875.556274,1322
875.673401,1344
875.790527,1346
875.907715,1341
876.024841,1351
876.141968,1307
876.259094,1313
876.376282,1335
876.493347,1325
876.610474,1365
876.7276,1327
876.844727,1308
876.961853,1329
877.078918,1336
877.195984,1333
877.313171,1351
877.430237,1322
877.547302,1348
877.664368,1303
877.781433,1367
877.898499,1326
878.015625,1383
878.13269,1327
878.249695,1296
878.366821,1369
878.483887,1324
878.600952,1328
878.717957,1329
878.834961,1314
878.952087,1338
879.069092,1358
879.186157,1349
879.303162,1322
879.420227,1359
879.537231,1337
879.654236,1368
879.77124,1307
879.888306,1307
880.005249,1331
880.122314,1336
880.239319,1333
880.356323,1369
880.473328,1311
880.590271,1325
880.707275,1346
880.824341,1341
880.941284,1341
881.058228,1365
881.175232,1361
881.292236,1354
881.40918,1327
881.526123,1378
881.643066,1368
881.760071,1389
881.877014,1373
881.993958,1350
882.11084,1342
882.227783,1322
882.344727,1336
882.46167,1356
882.578613,1340
882.695618,1355
882.812439,1336
882.929382,1345
883.046326,1352
883.163208,1322
883.280151,1342
883.397034,1364
883.513916,1382
883.630798,1319
883.747742,1371
883.864563,1348
883.981506,1374
884.098389,1313
884.21521,1384
884.332153,1359
884.448975,1342
884.565796,1354
884.682678,1369
884.7995,1390
884.916443,1339
885.033264,1360
885.150085,1307
885.266968,1397
885.383789,1331
885.500671,1392
885.617493,1399
885.734314,1402
885.851196,1375
885.967896,1347
886.084717,1375
886.201599,1361
886.318359,1358
886.435181,1383
886.552002,1344
886.668762,1396
886.785645,1390
886.902344,1377
887.019165,1406
887.135925,1372
887.252747,1378
887.369446,1371
887.486267,1377
887.603027,1328
887.719788,1351
887.836548,1384
887.953247,1408
888.070068,1408
888.186829,1331
888.303528,1392
888.420288,1362
888.536987,1379
888.653687,1397
888.770447,1394
888.887146,1341
889.003967,1372
889.120667,1385
889.237305,1353
889.354065,1410
889.470703,1387
889.587463,1378
889.704163,1402
889.820862,1375
889.937561,1401
890.054199,1388
890.170837,1398
890.287598,1362
890.404236,1326
890.520874,1408
890.637634,1375
890.754211,1402
890.87085,1345
890.987549,1368
891.104187,1394
891.220886,1399
891.337463,1388
891.454102,1391
891.57074,1440
891.687378,1403
891.804077,1424
891.920654,1372
892.037231,1403
892.15387,1389
892.270447,1385
892.387085,1423
892.503723,1368
892.6203,1410
892.736877,1394
892.853516,1386
892.970032,1398
893.08667,1378
893.203186,1381
893.319763,1377
893.43634,1394
893.552917,1411
893.669556,1352
893.786011,1420
893.902588,1413
894.019165,1390
894.135681,1380
894.252197,1426
894.368835,1442
894.485291,1417
894.601868,1402
894.718384,1403
894.8349,1380
894.951355,1396
895.067932,1379
895.184448,1433
895.300964,1412
895.417419,1412
895.533936,1361
895.650452,1387
895.766907,1373
895.883423,1418
895.999878,1388
896.116333,1408
896.232849,1436
896.349304,1402
896.465759,1469
896.582214,1418
896.698669,1389
896.815125,1402
896.931641,1458
897.048035,1402
897.164551,1402
897.280884,1377
897.397339,1387
897.513794,1400
897.630249,1469
897.746582,1406
897.863098,1427
897.979431,1458
898.095886,1429
898.212341,1361
898.328674,1418
898.445129,1386
898.561462,1442
898.677795,1434
898.794312,1395
898.910645,1458
899.026978,1363
899.143433,1430
899.259766,1421
899.37616,1418
899.492493,1408
899.608765,1400
899.725159,1401
899.841553,1460
899.957947,1430
900.07428,1423
900.190552,1422
900.306946,1427
900.423157,1413
900.53949,1395
900.655884,1367
900.772156,1420
900.888489,1434
901.004822,1402
901.121033,1406
901.237366,1417
901.353699,1450
901.46991,1382
901.586304,1389
901.702515,1426
901.818787,1392
901.93512,1456
902.051331,1444
902.167603,1384
902.283875,1395
902.400085,1437
902.516418,1436
902.632629,1414
902.74884,1464
902.865112,1418
902.981384,1418
903.097595,1426
903.213867,1424
903.330017,1427
903.446289,1418
903.5625,1454
903.67865,1454
903.794922,1437
903.911072,1455
904.027344,1446
904.143494,1465
904.259705,1451
904.375916,1414
904.492065,1436
904.608215,1470
904.724426,1385
904.840576,1455
904.956726,1406
905.072876,1455
905.189087,1436
905.305176,1440
905.421387,1411
905.537537,1425
905.653687,1445
905.769775,1414
905.885925,1465
906.002014,1403
906.118164,1447
906.234314,1478
906.350403,1442
906.466492,1438
906.582642,1374
906.69873,1443
906.814758,1475
906.930908,1417
907.046936,1423
907.163086,1422
907.279175,1427
907.395264,1447
907.511353,1421
907.62738,1503
907.743408,1476
907.859497,1456
907.975525,1428
908.091553,1419
908.207703,1427
908.32373,1456
908.439758,1450
908.555786,1400
908.671814,1504
908.787842,1468
908.90387,1494
909.019775,1442
909.135864,1427
909.251892,1473
909.367859,1436
909.483826,1483
909.599854,1479
909.715881,1475
909.831848,1438
909.947815,1439
910.063782,1422
910.179749,1493
910.295776,1425
910.411743,1459
910.527649,1434
910.643616,1486
910.759583,1438
910.875488,1472
910.991455,1451
911.107361,1450
911.223267,1461
911.339294,1439
911.4552,1438
911.571106,1480
911.687073,1492
911.802979,1418
911.918823,1416
912.034729,1433
912.150635,1442
912.266602,1458
912.382446,1474
912.498352,1451
912.614197,1467
912.730103,1446
912.846008,1485
