792.44574,5408
792.56488,5188
792.68396,5073
792.80304,4917
792.92218,4869
793.041199,4691
793.160339,4466
793.279419,4424
793.398499,4316
793.517578,4178
793.636658,4134
793.755737,3999
793.874817,3988
793.993896,3877
794.112976,3772
794.232056,3687
794.351074,3628
794.470215,3625
794.589233,3549
794.708313,3457
794.827393,3378
794.946411,3340
795.065552,3249
795.18457,3243
795.303589,3245
795.422668,3217
795.541687,3140
795.660767,3137
795.779846,3098
795.898865,2957
796.017883,2972
796.136963,2962
796.255981,2856
796.375061,2855
796.49408,2786
796.613037,2782
796.732117,2779
796.851135,2740
796.970154,2734
797.089233,2710
797.208191,2677
797.327271,2585
797.446228,2574
797.565186,2588
797.684265,2600
797.803223,2624
797.922241,2524
798.04126,2521
798.160278,2559
798.279297,2544
798.398315,2521
798.517273,2489
798.636292,2463
798.75531,2405
798.874268,2402
798.993286,2431
799.112244,2413
799.231323,2398
799.350281,2408
799.469238,2389
799.588257,2382
799.707153,2354
799.826111,2323
799.945129,2346
800.064087,2290
800.183044,2317
800.302063,2350
800.421021,2221
800.539978,2283
800.658936,2266
800.777893,2292
800.896912,2262
801.015747,2230
801.134705,2247
801.253723,2220
801.37262,2248
801.491638,2214
801.610535,2209
801.729492,2234
801.84845,2198
801.967407,2173
802.086243,2166
802.205261,2186
802.324158,2138
802.443115,2155
802.562073,2142
802.680969,2154
802.799927,2133
802.918762,2084
803.037659,2152
803.156677,2064
803.275574,2121
803.39447,2128
803.513428,2095
803.632263,2086
803.751221,2110
803.870117,2036
803.989014,2058
804.107971,2096
804.226746,2037
804.345642,2055
804.4646,2023
804.583496,2041
804.702393,2064
804.821228,2075
804.940125,2073
805.059021,2017
805.177917,2031
805.296814,1992
805.415649,2010
805.534546,2006
805.653442,2013
805.772278,1989
805.891113,1999
806.01001,1964
806.128906,1996
806.247742,1996
806.366577,2024
806.485413,2010
806.604309,1971
806.723145,1960
806.84198,1976
806.960876,1971
807.079712,1965
807.198486,1974
807.317383,1928
807.436218,1985
807.554993,1919
807.673889,1964
807.792725,1925
807.91156,1926
808.030396,1922
808.14917,1900
808.268005,1924
808.386841,1964
808.505676,1936
808.624451,1916
808.743286,1892
808.862122,1928
808.980896,1889
809.099731,1867
809.218506,1914
809.337341,1920
809.456116,1964
809.57489,1907
809.693726,1931
809.8125,1925
809.931274,1926
810.050049,1895
810.168884,1965
810.287659,1869
810.406372,1916
810.525269,1907
810.643982,1869
810.762756,1903
810.881531,1912
811.000305,1948
811.11908,1922
811.237854,1934
811.356567,1875
811.475403,1901
811.594116,1933
811.71283,1957
811.831604,1934
811.950378,1933
812.069153,1954
812.187927,1959
812.30658,1922
812.425415,1968
812.544128,1938
812.662781,1965
812.781616,1966
812.900269,1941
813.019043,1961
813.137756,1960
813.256531,1931
813.375244,1931
813.493896,1910
813.612671,1877
813.731384,1891
813.850037,1860
813.96875,1875
814.087524,1875
814.206238,1903
814.324951,1854
814.443604,1908
814.562256,1890
814.68103,1882
814.799683,1846
814.918335,1855
815.037109,1866
815.155762,1830
815.274475,1852
815.393188,1915
815.511841,1823
815.630554,1885
815.749146,1860
815.867859,1781
815.986572,1881
816.105164,1870
816.223877,1853
816.342529,1900
816.461182,1929
816.579895,1933
816.698486,1903
816.817139,1921
816.935791,1901
817.054504,1933
817.173096,1932
817.291748,1899
817.4104,1921
817.529053,1848
817.647644,1843
817.766235,1844
817.884949,1845
818.00354,1844
818.122192,1824
818.240845,1789
818.359436,1797
818.478088,1813
818.59668,1795
818.715271,1772
818.833923,1818
818.952515,1778
819.071106,1708
819.189758,1763
819.30835,1732
819.426941,1660
819.545532,1709
819.664124,1773
819.782715,1687
819.901306,1707
820.019897,1704
820.138489,1704
820.25708,1699
820.375671,1715
820.494202,1708
820.612732,1664
820.731384,1699
820.849915,1675
820.968506,1716
821.087097,1754
821.205627,1698
821.324158,1668
821.442749,1688
821.561279,1661
821.679871,1652
821.798401,1696
821.916931,1689
822.035461,1652
822.154053,1657
822.272583,1654
822.391174,1596
822.509583,1641
822.628174,1615
822.746704,1648
822.865234,1626
822.983765,1633
823.102295,1622
823.220825,1654
823.339294,1645
823.457825,1639
823.576355,1613
823.694824,1620
823.813354,1595
823.931885,1610
824.050354,1648
824.168884,1658
824.287354,1644
824.405823,1662
824.524353,1671
824.642822,1658
824.761353,1644
824.879822,1648
824.998291,1680
825.116699,1673
825.235291,1621
825.353699,1649
825.472168,1613
825.590637,1625
825.709106,1642
825.827576,1626
825.946045,1660
826.064453,1647
826.182983,1617
826.301392,1613
826.4198,1591
826.53833,1591
826.656738,1570
826.775208,1574
826.893677,1581
827.012024,1568
827.130493,1652
827.248962,1616
827.36731,1663
827.485779,1631
827.604248,1557
827.722595,1607
827.841064,1527
827.959412,1558
828.077942,1603
828.196289,1594
828.314636,1557
828.433105,1569
828.551514,1580
828.669861,1577
828.78833,1574
828.906677,1564
829.025085,1597
829.143433,1585
829.261841,1563
829.38031,1617
829.498657,1568
829.617004,1606
829.735413,1605
829.85376,1560
829.972107,1528
830.090515,1542
830.208862,1569
830.327209,1600
830.445557,1556
830.563904,1604
830.682312,1535
830.800659,1549
830.919006,1595
831.037354,1610
831.155701,1613
831.274048,1654
831.392395,1633
831.51062,1654
831.629028,1591
831.747314,1619
831.865662,1629
831.984009,1656
832.102356,1626
832.220642,1655
832.338928,1659
832.457275,1661
832.575623,1638
832.693909,1680
832.812134,1604
832.930481,1623
833.048828,1603
833.167114,1623
833.2854,1598
833.403687,1611
833.521973,1582
833.640259,1589
833.758545,1633
833.876831,1630
833.995056,1611
834.113281,1583
834.231628,1635
834.349915,1662
834.468201,1636
834.586426,1675
834.704651,1640
834.822998,1618
834.941162,1658
835.059448,1663
835.177673,1687
835.295959,1698
835.414246,1615
835.53241,1632
835.650635,1589
835.768921,1608
835.887146,1576
836.005371,1603
836.123596,1577
836.241821,1592
836.360046,1576
836.478271,1571
836.596497,1555
836.714722,1605
836.832886,1534
836.95105,1583
837.069336,1599
837.1875,1534
837.305725,1544
837.423889,1556
837.542053,1618
837.660339,1603
837.778503,1578
837.896667,1599
838.014832,1599
838.132996,1572
838.25116,1590
838.369385,1564
838.487488,1619
838.605713,1637
838.723877,1612
838.84198,1646
838.960205,1621
839.078308,1612
839.196472,1589
839.314636,1646
839.4328,1631
839.550964,1638
839.669067,1694
839.787231,1702
839.905396,1705
840.023499,1685
840.141602,1719
840.259766,1763
840.377869,1716
840.495972,1755
840.614136,1762
840.732239,1772
840.850342,1780
840.968445,1755
841.086548,1778
841.204651,1816
841.322754,1835
841.440918,1762
841.55896,1809
841.677002,1804
841.795166,1854
841.913208,1845
842.031311,1869
842.149353,1883
842.267456,1853
842.385498,1844
842.503601,1773
842.621643,1837
842.739746,1748
842.857788,1786
842.97583,1793
843.093933,1841
843.211975,1780
843.330017,1782
843.44812,1796
843.566101,1794
843.684204,1788
843.802246,1785
843.920227,1801
844.038269,1784
844.156311,1767
844.274292,1765
844.392395,1818
844.510376,1782
844.628357,1771
844.74646,1757
844.864441,1768
844.982422,1764
845.100403,1714
845.218384,1723
845.336426,1715
845.454468,1716
845.572449,1721
845.69043,1724
845.808411,1707
845.926453,1725
846.044373,1712
846.162354,1776
846.280396,1753
846.398315,1733
846.516296,1782
846.634216,1779
846.752197,1725
846.870178,1770
846.988098,1775
847.106079,1789
847.22406,1775
847.34198,1737
847.4599,1781
847.577881,1789
847.695801,1763
847.813782,1788
847.931641,1801
848.049561,1693
848.167603,1780
848.285461,1767
848.403381,1758
848.521362,1784
848.639221,1731
848.75708,1780
848.875,1795
848.99292,1756
849.110901,1792
849.22876,1830
849.34668,1792
849.464539,1778
849.582458,1763
849.700317,1774
849.818176,1807
849.936096,1793
850.053955,1793
850.171875,1816
850.289673,1751
850.407593,1775
850.525452,1769
850.643311,1731
850.761169,1757
850.878967,1794
850.996887,1743
851.114746,1772
851.232544,1762
851.350403,1722
851.468262,1752
851.58606,1763
851.703979,1822
851.821777,1738
851.939636,1779
852.057434,1792
852.175232,1740
852.293091,1763
852.410889,1824
852.528687,1874
852.646545,1971
852.764343,1967
852.88208,1975
852.999939,1893
853.117676,1858
853.235535,1811
853.353271,1757
853.471069,1794
853.588928,1727
853.706604,1787
853.824402,1739
853.9422,1820
854.059998,1717
854.177734,1746
854.295532,1749
854.413269,1777
854.531006,1795
854.648804,1784
854.766541,1792
854.884277,1818
855.002014,1812
855.119751,1746
855.237549,1804
855.355225,1847
855.473022,1777
855.590698,1751
855.708435,1784
855.826172,1778
855.943848,1810
856.061646,1819
856.179321,1778
856.296997,1815
856.414795,1778
856.53241,1812
856.650085,1870
856.767822,1829
856.885559,1879
857.003174,1852
857.120911,1844
857.238586,1887
857.356201,1882
857.473938,1838
857.591614,1843
857.709351,1822
857.826965,1829
857.944641,1858
858.062317,1860
858.179993,1866
858.297668,1867
858.415283,1836
858.532959,1858
858.650574,1828
858.768188,1806
858.885803,1866
859.003479,1857
859.121094,1775
859.23877,1823
859.356384,1806
859.473999,1785
859.591675,1818
859.709229,1837
859.826843,1757
859.944458,1753
860.062012,1759
860.179626,1730
860.297302,1735
860.414856,1750
860.532471,1791
860.650024,1724
860.767639,1732
860.885193,1746
861.002808,1735
861.120361,1710
861.237976,1721
861.35553,1753
861.473022,1784
861.590698,1779
861.708191,1726
861.825745,1717
861.943298,1754
862.060852,1709
862.178406,1681
862.295959,1670
862.413513,1672
862.531006,1634
862.64856,1630
862.766113,1626
862.883667,1668
863.00116,1664
863.118713,1619
863.236206,1623
863.353699,1629
863.471252,1599
863.588745,1684
863.706177,1665
863.82373,1672
863.941162,1651
864.058716,1683
864.176208,1726
864.29364,1670
864.411194,1669
864.528687,1630
864.646118,1682
864.763611,1662
864.881042,1676
864.998535,1661
865.116028,1647
865.233459,1625
865.350891,1569
865.468384,1651
865.585754,1663
865.703308,1669
865.820679,1687
865.938171,1720
866.055542,1623
866.173035,1638
866.290466,1662
866.407837,1611
866.52533,1656
866.6427,1654
866.760071,1632
866.877563,1668
866.994934,1691
867.112305,1698
867.229736,1676
867.347107,1719
867.464539,1695
867.58197,1676
867.699341,1688
867.81665,1730
867.934082,1683
868.051453,1668
868.168823,1683
868.286194,1667
868.403564,1710
868.520935,1679
868.638306,1667
868.755676,1684
868.872986,1685
868.990295,1694
869.107727,1779
869.225037,1707
869.342346,1772
869.459717,1708
869.577026,1766
869.694336,1755
869.811707,1737
869.929016,1760
870.046326,1779
870.163635,1812
870.280945,1747
870.398254,1850
870.515564,1780
870.632812,1852
870.750183,1878
870.867432,1918
870.984741,1864
871.102051,1858
871.219299,1904
871.336609,1873
871.453918,1879
871.571106,1907
871.688416,1911
871.805664,1910
871.922852,1886
872.040222,1931
872.157471,1918
872.274719,1933
872.391968,1889
872.509155,1917
872.626465,1902
872.743652,1943
872.860962,1880
872.978149,1899
873.095337,1848
873.212646,1854
873.329834,1881
873.44696,1835
873.564209,1831
873.681396,1832
873.798645,1839
873.915894,1808
874.03302,1826
874.150208,1841
874.267456,1860
874.384583,1881
874.501831,1879
874.618958,1942
874.736145,1882
874.853333,1885
874.970459,1885
875.087646,1924
875.204834,1942
875.32196,1898
875.439148,1939
875.556274,1863
875.673401,1813
875.790527,1835
875.907715,1841
876.024841,1853
876.141968,1768
876.259094,1782
876.376282,1824
876.493347,1820
876.610474,1764
876.7276,1835
876.844727,1717
876.961853,1801
877.078918,1823
877.195984,1721
877.313171,1780
877.430237,1761
877.547302,1794
877.664368,1767
877.781433,1745
877.898499,1791
878.015625,1768
878.13269,1760
878.249695,1766
878.366821,1690
878.483887,1710
878.600952,1654
878.717957,1676
878.834961,1699
878.952087,1704
879.069092,1668
879.186157,1688
879.303162,1615
879.420227,1653
879.537231,1650
879.654236,1622
879.77124,1621
879.888306,1633
880.005249,1574
880.122314,1581
880.239319,1599
880.356323,1610
880.473328,1579
880.590271,1582
880.707275,1549
880.824341,1534
880.941284,1630
881.058228,1639
881.175232,1640
881.292236,1607
881.40918,1610
881.526123,1607
881.643066,1544
881.760071,1575
881.877014,1589
881.993958,1616
882.11084,1593
882.227783,1574
882.344727,1617
882.46167,1606
882.578613,1627
882.695618,1641
882.812439,1595
882.929382,1600
883.046326,1599
883.163208,1624
883.280151,1603
883.397034,1620
883.513916,1634
883.630798,1648
883.747742,1628
883.864563,1650
883.981506,1668
884.098389,1653
884.21521,1670
884.332153,1682
884.448975,1695
884.565796,1689
884.682678,1768
884.7995,1827
884.916443,1913
885.033264,1942
885.150085,2075
885.266968,2068
885.383789,2115
885.500671,2135
885.617493,2179
885.734314,2119
885.851196,2150
885.967896,2168
886.084717,2151
886.201599,2153
886.318359,2133
886.435181,2172
886.552002,2141
886.668762,2059
886.785645,2060
886.902344,2019
887.019165,2014
887.135925,1984
887.252747,2032
887.369446,1973
887.486267,1957
887.603027,1859
887.719788,1834
887.836548,1804
887.953247,1740
888.070068,1738
888.186829,1703
888.303528,1719
888.420288,1631
888.536987,1607
888.653687,1539
888.770447,1582
888.887146,1566
889.003967,1589
889.120667,1540
889.237305,1524
889.354065,1519
889.470703,1479
889.587463,1495
889.704163,1520
889.820862,1503
889.937561,1526
890.054199,1503
890.170837,1476
890.287598,1480
890.404236,1515
890.520874,1471
890.637634,1517
890.754211,1527
890.87085,1485
890.987549,1481
891.104187,1504
891.220886,1494
891.337463,1520
891.454102,1496
891.57074,1510
891.687378,1514
891.804077,1524
891.920654,1560
892.037231,1550
892.15387,1540
892.270447,1511
892.387085,1501
892.503723,1536
892.6203,1500
892.736877,1516
892.853516,1499
892.970032,1508
893.08667,1510
893.203186,1461
893.319763,1503
893.43634,1500
893.552917,1546
893.669556,1515
893.786011,1541
893.902588,1485
894.019165,1535
894.135681,1502
894.252197,1475
894.368835,1533
894.485291,1520
894.601868,1539
894.718384,1511
894.8349,1511
894.951355,1558
895.067932,1501
895.184448,1491
895.300964,1501
895.417419,1487
895.533936,1449
895.650452,1494
895.766907,1453
895.883423,1458
895.999878,1496
896.116333,1496
896.232849,1467
896.349304,1464
896.465759,1495
896.582214,1500
896.698669,1453
896.815125,1454
896.931641,1516
897.048035,1468
897.164551,1523
897.280884,1502
897.397339,1510
897.513794,1523
897.630249,1514
897.746582,1493
897.863098,1538
897.979431,1479
898.095886,1495
898.212341,1496
898.328674,1512
898.445129,1539
898.561462,1567
898.677795,1554
898.794312,1552
898.910645,1553
899.026978,1487
899.143433,1529
899.259766,1554
899.37616,1543
899.492493,1510
899.608765,1571
899.725159,1549
899.841553,1523
899.957947,1555
900.07428,1548
900.190552,1544
900.306946,1539
900.423157,1538
900.53949,1537
900.655884,1542
900.772156,1552
900.888489,1524
901.004822,1526
901.121033,1517
901.237366,1544
901.353699,1581
901.46991,1633
901.586304,1616
901.702515,1598
901.818787,1639
901.93512,1691
902.051331,1671
902.167603,1753
902.283875,1689
902.400085,1698
902.516418,1801
902.632629,1809
902.74884,1826
902.865112,1893
902.981384,1836
903.097595,1866
903.213867,1831
903.330017,1833
903.446289,1796
903.5625,1807
903.67865,1810
903.794922,1748
903.911072,1760
904.027344,1730
904.143494,1740
904.259705,1738
904.375916,1653
904.492065,1680
904.608215,1593
904.724426,1617
904.840576,1566
904.956726,1559
905.072876,1568
905.189087,1592
905.305176,1525
905.421387,1540
905.537537,1524
905.653687,1529
905.769775,1480
905.885925,1503
906.002014,1499
906.118164,1496
906.234314,1500
906.350403,1515
906.466492,1519
906.582642,1468
906.69873,1476
906.814758,1503
906.930908,1485
907.046936,1491
907.163086,1478
907.279175,1434
907.395264,1450
907.511353,1460
907.62738,1457
907.743408,1444
907.859497,1506
907.975525,1436
908.091553,1457
908.207703,1451
908.32373,1478
908.439758,1483
908.555786,1467
908.671814,1515
908.787842,1448
908.90387,1478
909.019775,1422
909.135864,1481
909.251892,1489
909.367859,1486
909.483826,1488
909.599854,1449
909.715881,1458
909.831848,1520
909.947815,1500
910.063782,1481
910.179749,1451
910.295776,1518
910.411743,1479
910.527649,1512
910.643616,1477
910.759583,1493
910.875488,1469
910.991455,1467
911.107361,1466
911.223267,1456
911.339294,1470
911.4552,1487
911.571106,1438
911.687073,1465
911.802979,1467
911.918823,1467
912.034729,1443
912.150635,1445
912.266602,1428
912.382446,1440
912.498352,1400
912.614197,1433
912.730103,1435
912.846008,1457
792.44574,5482
792.56488,5193
792.68396,5125
792.80304,5005
792.92218,4806
793.041199,4753
793.160339,4566
793.279419,4468
793.398499,4345
793.517578,4179
793.636658,4093
793.755737,4114
793.874817,3996
793.993896,3827
794.112976,3745
794.232056,3694
794.351074,3661
794.470215,3615
794.589233,3510
794.708313,3471
794.827393,3433
794.946411,3432
795.065552,3328
795.18457,3287
795.303589,3260
795.422668,3235
795.541687,3168
795.660767,3108
795.779846,3092
795.898865,3095
796.017883,3005
796.136963,2867
796.255981,2910
796.375061,2914
796.49408,2877
796.613037,2815
796.732117,2823
796.851135,2755
796.970154,2759
797.089233,2668
797.208191,2705
797.327271,2632
797.446228,2625
797.565186,2625
797.684265,2658
797.803223,2574
797.922241,2603
798.04126,2547
798.160278,2549
798.279297,2461
798.398315,2519
798.517273,2495
798.636292,2464
798.75531,2436
798.874268,2475
798.993286,2427
799.112244,2384
799.231323,2392
799.350281,2422
799.469238,2464
799.588257,2436
799.707153,2424
799.826111,2367
799.945129,2369
800.064087,2362
800.183044,2372
800.302063,2364
800.421021,2349
800.539978,2281
800.658936,2337
800.777893,2231
800.896912,2288
801.015747,2235
801.134705,2303
801.253723,2238
801.37262,2224
801.491638,2189
801.610535,2239
801.729492,2229
801.84845,2198
801.967407,2193
802.086243,2153
802.205261,2173
802.324158,2105
802.443115,2172
802.562073,2188
802.680969,2131
802.799927,2150
802.918762,2148
803.037659,2137
803.156677,2098
803.275574,2109
803.39447,2068
803.513428,2124
803.632263,2073
803.751221,2068
803.870117,2120
803.989014,2067
804.107971,2054
804.226746,2060
804.345642,2083
804.4646,2084
804.583496,2036
804.702393,2020
804.821228,2048
804.940125,2050
805.059021,2035
805.177917,2066
805.296814,2066
805.415649,2056
805.534546,2000
805.653442,1998
805.772278,2016
805.891113,2036
806.01001,1967
806.128906,2073
806.247742,2041
806.366577,1959
806.485413,1959
806.604309,2010
806.723145,1987
806.84198,2037
806.960876,1963
807.079712,1982
807.198486,1970
807.317383,1992
807.436218,1952
807.554993,1949
807.673889,1937
807.792725,1946
807.91156,1996
808.030396,1918
808.14917,1916
808.268005,1867
808.386841,1916
808.505676,1937
808.624451,1933
808.743286,1948
808.862122,1940
808.980896,1859
809.099731,1865
809.218506,1946
809.337341,1937
809.456116,1928
809.57489,1928
809.693726,1907
809.8125,1925
809.931274,1924
810.050049,1909
810.168884,1947
810.287659,1929
810.406372,1909
810.525269,1902
810.643982,1864
810.762756,1940
810.881531,1964
811.000305,1851
811.11908,1927
811.237854,1900
811.356567,1923
811.475403,1955
811.594116,1914
811.71283,1987
811.831604,1926
811.950378,1982
812.069153,1949
812.187927,1946
812.30658,1942
812.425415,1911
812.544128,1930
812.662781,1971
812.781616,1945
812.900269,1972
813.019043,1912
813.137756,1917
813.256531,1891
813.375244,1936
813.493896,1896
813.612671,1909
813.731384,1881
813.850037,1888
813.96875,1891
814.087524,1886
814.206238,1855
814.324951,1875
814.443604,1857
814.562256,1839
814.68103,1926
814.799683,1924
814.918335,1885
815.037109,1909
815.155762,1844
815.274475,1864
815.393188,1856
815.511841,1871
815.630554,1835
815.749146,1853
815.867859,1830
815.986572,1824
816.105164,1847
816.223877,1903
816.342529,1853
816.461182,1871
816.579895,1910
816.698486,1866
816.817139,1891
816.935791,1936
817.054504,1927
817.173096,1907
817.291748,1915
817.4104,1838
817.529053,1879
817.647644,1911
817.766235,1836
817.884949,1811
818.00354,1823
818.122192,1787
818.240845,1823
818.359436,1847
818.478088,1812
818.59668,1767
818.715271,1787
818.833923,1750
818.952515,1714
819.071106,1749
819.189758,1728
819.30835,1735
819.426941,1674
819.545532,1701
819.664124,1740
819.782715,1668
819.901306,1726
820.019897,1698
820.138489,1708
820.25708,1699
820.375671,1662
820.494202,1722
820.612732,1717
820.731384,1712
820.849915,1659
820.968506,1691
821.087097,1771
821.205627,1638
821.324158,1723
821.442749,1622
821.561279,1644
821.679871,1708
821.798401,1694
821.916931,1656
822.035461,1654
822.154053,1678
822.272583,1585
822.391174,1682
822.509583,1651
822.628174,1667
822.746704,1602
822.865234,1656
822.983765,1589
823.102295,1605
823.220825,1570
823.339294,1612
823.457825,1655
823.576355,1620
823.694824,1608
823.813354,1689
823.931885,1657
824.050354,1671
824.168884,1676
824.287354,1622
824.405823,1612
824.524353,1680
824.642822,1681
824.761353,1651
824.879822,1641
824.998291,1673
825.116699,1639
825.235291,1678
825.353699,1631
825.472168,1583
825.590637,1588
825.709106,1662
825.827576,1609
825.946045,1633
826.064453,1651
826.182983,1570
826.301392,1610
826.4198,1597
826.53833,1554
826.656738,1626
826.775208,1533
826.893677,1602
827.012024,1577
827.130493,1608
827.248962,1592
827.36731,1633
827.485779,1614
827.604248,1643
827.722595,1567
827.841064,1563
827.959412,1566
828.077942,1579
828.196289,1580
828.314636,1551
828.433105,1578
828.551514,1602
828.669861,1622
828.78833,1579
828.906677,1564
829.025085,1575
829.143433,1585
829.261841,1580
829.38031,1585
829.498657,1640
829.617004,1555
829.735413,1604
829.85376,1585
829.972107,1557
830.090515,1597
830.208862,1543
830.327209,1620
830.445557,1503
830.563904,1571
830.682312,1602
830.800659,1569
830.919006,1611
831.037354,1616
831.155701,1672
831.274048,1649
831.392395,1645
831.51062,1629
831.629028,1592
831.747314,1570
831.865662,1571
831.984009,1665
832.102356,1560
832.220642,1606
832.338928,1633
832.457275,1646
832.575623,1602
832.693909,1610
832.812134,1672
832.930481,1644
833.048828,1605
833.167114,1551
833.2854,1585
833.403687,1624
833.521973,1610
833.640259,1569
833.758545,1685
833.876831,1636
833.995056,1611
834.113281,1631
834.231628,1621
834.349915,1661
834.468201,1667
834.586426,1599
834.704651,1646
834.822998,1656
834.941162,1626
835.059448,1586
835.177673,1620
835.295959,1658
835.414246,1643
835.53241,1614
835.650635,1619
835.768921,1627
835.887146,1643
836.005371,1601
836.123596,1595
836.241821,1558
836.360046,1592
836.478271,1598
836.596497,1593
836.714722,1563
836.832886,1572
836.95105,1580
837.069336,1550
837.1875,1547
837.305725,1583
837.423889,1597
837.542053,1590
837.660339,1587
837.778503,1587
837.896667,1560
838.014832,1583
838.132996,1586
838.25116,1568
838.369385,1612
838.487488,1648
838.605713,1652
838.723877,1612
838.84198,1614
838.960205,1626
839.078308,1624
839.196472,1634
839.314636,1641
839.4328,1684
839.550964,1648
839.669067,1697
839.787231,1705
839.905396,1718
840.023499,1709
840.141602,1766
840.259766,1745
840.377869,1780
840.495972,1781
840.614136,1784
840.732239,1764
840.850342,1732
840.968445,1726
841.086548,1760
841.204651,1806
841.322754,1770
841.440918,1771
841.55896,1817
841.677002,1797
841.795166,1828
841.913208,1821
842.031311,1848
842.149353,1817
842.267456,1786
842.385498,1809
842.503601,1759
842.621643,1789
842.739746,1791
842.857788,1755
842.97583,1777
843.093933,1789
843.211975,1803
843.330017,1783
843.44812,1804
843.566101,1820
843.684204,1815
843.802246,1833
843.920227,1829
844.038269,1806
844.156311,1777
844.274292,1768
844.392395,1792
844.510376,1762
844.628357,1740
844.74646,1697
844.864441,1757
844.982422,1752
845.100403,1732
845.218384,1719
845.336426,1738
845.454468,1753
845.572449,1750
845.69043,1729
845.808411,1709
845.926453,1739
846.044373,1746
846.162354,1722
846.280396,1762
846.398315,1756
846.516296,1796
846.634216,1774
846.752197,1800
846.870178,1760
846.988098,1720
847.106079,1726
847.22406,1815
847.34198,1781
847.4599,1763
847.577881,1765
847.695801,1771
847.813782,1775
847.931641,1739
848.049561,1770
848.167603,1751
848.285461,1784
848.403381,1749
848.521362,1712
848.639221,1745
848.75708,1806
848.875,1770
848.99292,1799
849.110901,1781
849.22876,1761
849.34668,1810
849.464539,1786
849.582458,1769
849.700317,1777
849.818176,1777
849.936096,1749
850.053955,1745
850.171875,1765
850.289673,1765
850.407593,1756
850.525452,1793
850.643311,1781
850.761169,1758
850.878967,1765
850.996887,1777
851.114746,1731
851.232544,1737
851.350403,1731
851.468262,1756
851.58606,1732
851.703979,1711
851.821777,1739
851.939636,1764
852.057434,1701
852.175232,1723
852.293091,1769
852.410889,1809
852.528687,1946
852.646545,1928
852.764343,2002
852.88208,1937
852.999939,1808
853.117676,1815
853.235535,1765
853.353271,1796
853.471069,1776
853.588928,1747
853.706604,1778
853.824402,1755
853.9422,1749
854.059998,1751
854.177734,1773
854.295532,1793
854.413269,1757
854.531006,1752
854.648804,1848
854.766541,1774
854.884277,1777
855.002014,1797
855.119751,1763
855.237549,1804
855.355225,1771
855.473022,1777
855.590698,1774
855.708435,1813
855.826172,1796
855.943848,1764
856.061646,1807
856.179321,1777
856.296997,1775
856.414795,1818
856.53241,1856
856.650085,1809
856.767822,1820
856.885559,1829
857.003174,1846
857.120911,1876
857.238586,1864
857.356201,1824
857.473938,1863
857.591614,1869
857.709351,1828
857.826965,1884
857.944641,1888
858.062317,1820
858.179993,1828
858.297668,1840
858.415283,1810
858.532959,1812
858.650574,1834
858.768188,1877
858.885803,1803
859.003479,1823
859.121094,1810
859.23877,1807
859.356384,1812
859.473999,1817
859.591675,1757
859.709229,1777
859.826843,1777
859.944458,1747
860.062012,1791
860.179626,1751
860.297302,1749
860.414856,1750
860.532471,1735
860.650024,1775
860.767639,1736
860.885193,1732
861.002808,1750
861.120361,1713
861.237976,1707
861.35553,1740
861.473022,1767
861.590698,1754
861.708191,1777
861.825745,1807
861.943298,1727
862.060852,1712
862.178406,1646
862.295959,1647
862.413513,1634
862.531006,1637
862.64856,1619
862.766113,1666
862.883667,1610
863.00116,1604
863.118713,1653
863.236206,1641
863.353699,1636
863.471252,1623
863.588745,1680
863.706177,1663
863.82373,1666
863.941162,1678
864.058716,1695
864.176208,1707
864.29364,1653
864.411194,1660
864.528687,1641
864.646118,1617
864.763611,1644
864.881042,1642
864.998535,1660
865.116028,1619
865.233459,1613
865.350891,1665
865.468384,1599
865.585754,1645
865.703308,1626
865.820679,1616
865.938171,1621
866.055542,1647
866.173035,1604
866.290466,1646
866.407837,1619
866.52533,1609
866.6427,1650
866.760071,1650
866.877563,1659
866.994934,1680
867.112305,1653
867.229736,1693
867.347107,1693
867.464539,1720
867.58197,1679
867.699341,1697
867.81665,1678
867.934082,1652
868.051453,1678
868.168823,1691
868.286194,1710
868.403564,1718
868.520935,1696
868.638306,1694
868.755676,1701
868.872986,1709
868.990295,1686
869.107727,1758
869.225037,1719
869.342346,1682
869.459717,1715
869.577026,1757
869.694336,1745
869.811707,1760
869.929016,1802
870.046326,1794
870.163635,1768
870.280945,1846
870.398254,1833
870.515564,1822
870.632812,1813
870.750183,1849
870.867432,1837
870.984741,1867
871.102051,1850
871.219299,1852
871.336609,1903
871.453918,1853
871.571106,1929
871.688416,1900
871.805664,1893
871.922852,1903
872.040222,1887
872.157471,1880
872.274719,1898
872.391968,1903
872.509155,1897
872.626465,1878
872.743652,1863
872.860962,1896
872.978149,1889
873.095337,1878
873.212646,1826
873.329834,1856
873.44696,1848
873.564209,1818
873.681396,1862
873.798645,1846
873.915894,1887
874.03302,1825
874.150208,1867
874.267456,1862
874.384583,1862
874.501831,1919
874.618958,1899
874.736145,1920
874.853333,1920
874.970459,1903
875.087646,1911
875.204834,1932
875.32196,1898
875.439148,1860
875.556274,1824
875.673401,1824
875.790527,1857
875.907715,1796
876.024841,1780
876.141968,1825
876.259094,1786
876.376282,1784
876.493347,1799
876.610474,1777
876.7276,1732
876.844727,1788
876.961853,1774
877.078918,1763
877.195984,1733
877.313171,1795
877.430237,1717
877.547302,1770
877.664368,1749
877.781433,1796
877.898499,1756
878.015625,1744
878.13269,1759
878.249695,1723
878.366821,1716
878.483887,1722
878.600952,1684
878.717957,1727
878.834961,1708
878.952087,1669
879.069092,1694
879.186157,1711
879.303162,1628
879.420227,1668
879.537231,1633
879.654236,1621
879.77124,1671
879.888306,1607
880.005249,1605
880.122314,1615
880.239319,1601
880.356323,1596
880.473328,1593
880.590271,1596
880.707275,1596
880.824341,1629
880.941284,1578
881.058228,1629
881.175232,1606
881.292236,1585
881.40918,1595
881.526123,1612
881.643066,1577
881.760071,1617
881.877014,1589
881.993958,1609
882.11084,1643
882.227783,1600
882.344727,1602
882.46167,1578
882.578613,1608
882.695618,1607
882.812439,1608
882.929382,1644
883.046326,1607
883.163208,1624
883.280151,1619
883.397034,1610
883.513916,1651
883.630798,1614
883.747742,1624
883.864563,1654
883.981506,1672
884.098389,1665
884.21521,1665
884.332153,1677
884.448975,1705
884.565796,1767
884.682678,1848
884.7995,1821
884.916443,1897
885.033264,1975
885.150085,2031
885.266968,2070
885.383789,2056
885.500671,2143
885.617493,2188
885.734314,2188
885.851196,2143
885.967896,2184
886.084717,2149
886.201599,2114
886.318359,2186
886.435181,2052
886.552002,2082
886.668762,2085
886.785645,2028
886.902344,2055
887.019165,2032
887.135925,2005
887.252747,1910
887.369446,1965
887.486267,1944
887.603027,1900
887.719788,1841
887.836548,1828
887.953247,1799
888.070068,1731
888.186829,1749
888.303528,1659
888.420288,1653
888.536987,1620
888.653687,1609
888.770447,1601
888.887146,1551
889.003967,1578
889.120667,1526
889.237305,1537
889.354065,1559
889.470703,1536
889.587463,1511
889.704163,1588
889.820862,1501
889.937561,1512
890.054199,1520
890.170837,1484
890.287598,1480
890.404236,1517
890.520874,1539
890.637634,1519
890.754211,1525
890.87085,1511
890.987549,1547
891.104187,1538
891.220886,1526
891.337463,1539
891.454102,1537
891.57074,1487
891.687378,1515
891.804077,1530
891.920654,1512
892.037231,1517
892.15387,1574
892.270447,1514
892.387085,1531
892.503723,1537
892.6203,1512
892.736877,1531
892.853516,1537
892.970032,1515
893.08667,1473
893.203186,1579
893.319763,1519
893.43634,1493
893.552917,1518
893.669556,1506
893.786011,1522
893.902588,1493
894.019165,1479
894.135681,1489
894.252197,1565
894.368835,1560
894.485291,1535
894.601868,1519
894.718384,1521
894.8349,1485
894.951355,1472
895.067932,1529
895.184448,1504
895.300964,1489
895.417419,1508
895.533936,1496
895.650452,1486
895.766907,1470
895.883423,1460
895.999878,1476
896.116333,1474
896.232849,1509
896.349304,1480
896.465759,1549
896.582214,1494
896.698669,1533
896.815125,1465
896.931641,1558
897.048035,1533
897.164551,1514
897.280884,1477
897.397339,1494
897.513794,1476
897.630249,1519
897.746582,1548
897.863098,1498
897.979431,1531
898.095886,1476
898.212341,1506
898.328674,1521
898.445129,1571
898.561462,1537
898.677795,1526
898.794312,1595
898.910645,1544
899.026978,1553
899.143433,1549
899.259766,1578
899.37616,1532
899.492493,1547
899.608765,1529
899.725159,1558
899.841553,1538
899.957947,1571
900.07428,1533
900.190552,1489
900.306946,1576
900.423157,1550
900.53949,1563
900.655884,1590
900.772156,1520
900.888489,1558
901.004822,1580
901.121033,1581
901.237366,1577
901.353699,1576
901.46991,1604
901.586304,1663
901.702515,1646
901.818787,1659
901.93512,1650
902.051331,1694
902.167603,1725
902.283875,1753
902.400085,1740
902.516418,1769
902.632629,1833
902.74884,1865
902.865112,1872
902.981384,1874
903.097595,1863
903.213867,1866
903.330017,1859
903.446289,1846
903.5625,1778
903.67865,1802
903.794922,1779
903.911072,1803
904.027344,1789
904.143494,1751
904.259705,1713
904.375916,1659
904.492065,1680
904.608215,1669
904.724426,1639
904.840576,1576
904.956726,1652
905.072876,1600
905.189087,1581
905.305176,1581
905.421387,1596
905.537537,1537
905.653687,1535
905.769775,1546
905.885925,1469
906.002014,1537
906.118164,1496
906.234314,1521
906.350403,1532
906.466492,1528
906.582642,1474
906.69873,1515
906.814758,1486
906.930908,1487
907.046936,1438
907.163086,1489
907.279175,1487
907.395264,1485
907.511353,1517
907.62738,1472
907.743408,1464
907.859497,1517
907.975525,1474
908.091553,1522
908.207703,1497
908.32373,1504
908.439758,1517
908.555786,1484
908.671814,1499
908.787842,1509
908.90387,1447
909.019775,1498
909.135864,1460
909.251892,1520
909.367859,1517
909.483826,1489
909.599854,1543
909.715881,1518
909.831848,1532
909.947815,1494
910.063782,1464
910.179749,1511
910.295776,1527
910.411743,1499
910.527649,1512
910.643616,1519
910.759583,1465
910.875488,1509
910.991455,1461
911.107361,1524
911.223267,1496
911.339294,1503
911.4552,1488
911.571106,1451
911.687073,1502
911.802979,1470
911.918823,1434
912.034729,1506
912.150635,1448
912.266602,1487
912.382446,1447
912.498352,1439
912.614197,1466
912.730103,1493
912.846008,1458
792.44574,5454
792.56488,5301
792.68396,5133
792.80304,4983
792.92218,4763
793.041199,4677
793.160339,4616
793.279419,4509
793.398499,4345
793.517578,4155
793.636658,4131
793.755737,4154
793.874817,3903
793.993896,3890
794.112976,3796
794.232056,3728
794.351074,3687
794.470215,3620
794.589233,3528
794.708313,3453
794.827393,3480
794.946411,3304
795.065552,3342
795.18457,3266
795.303589,3238
795.422668,3177
795.541687,3191
795.660767,3075
795.779846,3065
795.898865,2994
796.017883,3023
796.136963,3018
796.255981,2894
796.375061,2927
796.49408,2876
796.613037,2825
796.732117,2742
796.851135,2795
796.970154,2827
797.089233,2711
797.208191,2727
797.327271,2655
797.446228,2607
797.565186,2632
797.684265,2599
797.803223,2562
797.922241,2521
798.04126,2527
798.160278,2541
798.279297,2506
798.398315,2530
798.517273,2455
798.636292,2477
798.75531,2413
798.874268,2469
798.993286,2440
799.112244,2417
799.231323,2425
799.350281,2417
799.469238,2386
799.588257,2428
799.707153,2363
799.826111,2422
799.945129,2423
800.064087,2334
800.183044,2318
800.302063,2258
800.421021,2339
800.539978,2266
800.658936,2320
800.777893,2300
800.896912,2258
801.015747,2251
801.134705,2217
801.253723,2240
801.37262,2233
801.491638,2244
801.610535,2229
801.729492,2231
801.84845,2188
801.967407,2237
802.086243,2190
802.205261,2143
802.324158,2203
802.443115,2125
802.562073,2107
802.680969,2178
802.799927,2180
802.918762,2151
803.037659,2113
803.156677,2144
803.275574,2130
803.39447,2117
803.513428,2078
803.632263,2125
803.751221,2050
803.870117,2140
803.989014,2125
804.107971,2039
804.226746,2032
804.345642,2074
804.4646,2115
804.583496,2064
804.702393,2112
804.821228,2076
804.940125,2027
805.059021,2068
805.177917,2040
805.296814,1994
805.415649,2012
805.534546,2074
805.653442,2045
805.772278,2060
805.891113,1977
806.01001,2020
806.128906,2040
806.247742,2015
806.366577,1996
806.485413,1992
806.604309,2011
806.723145,1943
806.84198,1966
806.960876,1971
807.079712,1978
807.198486,1972
807.317383,1962
807.436218,1962
807.554993,1986
807.673889,1923
807.792725,1947
807.91156,1889
808.030396,1960
808.14917,1933
808.268005,1913
808.386841,1940
808.505676,1960
808.624451,1926
808.743286,1916
808.862122,1907
808.980896,1889
809.099731,1921
809.218506,1883
809.337341,1933
809.456116,1983
809.57489,1917
809.693726,1920
809.8125,1970
809.931274,1976
810.050049,1918
810.168884,1892
810.287659,1889
810.406372,1935
810.525269,1944
810.643982,1886
810.762756,1924
810.881531,1904
811.000305,1952
811.11908,1875
811.237854,1988
811.356567,1949
811.475403,1942
811.594116,1919
811.71283,1941
811.831604,1953
811.950378,2003
812.069153,1925
812.187927,1989
812.30658,1921
812.425415,1939
812.544128,1975
812.662781,1954
812.781616,1967
812.900269,1956
813.019043,1934
813.137756,1949
813.256531,1999
813.375244,1912
813.493896,1907
813.612671,1911
813.731384,1899
813.850037,1890
813.96875,1873
814.087524,1896
814.206238,1845
814.324951,1858
814.443604,1835
814.562256,1853
814.68103,1864
814.799683,1894
814.918335,1897
815.037109,1851
815.155762,1889
815.274475,1888
815.393188,1825
815.511841,1863
815.630554,1900
815.749146,1863
815.867859,1827
815.986572,1870
816.105164,1837
816.223877,1854
816.342529,1874
816.461182,1886
816.579895,1866
816.698486,1894
816.817139,1890
816.935791,1885
817.054504,1940
817.173096,1912
817.291748,1915
817.4104,1892
817.529053,1882
817.647644,1877
817.766235,1800
817.884949,1817
818.00354,1833
818.122192,1827
818.240845,1817
818.359436,1814
818.478088,1793
818.59668,1784
818.715271,1773
818.833923,1725
818.952515,1729
819.071106,1733
819.189758,1714
819.30835,1726
819.426941,1757
819.545532,1695
819.664124,1699
819.782715,1769
819.901306,1655
820.019897,1720
820.138489,1688
820.25708,1748
820.375671,1672
820.494202,1725
820.612732,1770
820.731384,1714
820.849915,1714
820.968506,1679
821.087097,1718
821.205627,1679
821.324158,1676
821.442749,1688
821.561279,1649
821.679871,1600
821.798401,1606
821.916931,1642
822.035461,1671
822.154053,1673
822.272583,1655
822.391174,1645
822.509583,1617
822.628174,1647
822.746704,1667
822.865234,1616
822.983765,1589
823.102295,1637
823.220825,1654
823.339294,1618
823.457825,1655
823.576355,1682
823.694824,1637
823.813354,1623
823.931885,1656
824.050354,1598
824.168884,1619
824.287354,1648
824.405823,1617
824.524353,1656
824.642822,1677
824.761353,1630
824.879822,1672
824.998291,1639
825.116699,1645
825.235291,1629
825.353699,1620
825.472168,1578
825.590637,1598
825.709106,1617
825.827576,1657
825.946045,1616
826.064453,1645
826.182983,1615
826.301392,1584
826.4198,1574
826.53833,1592
826.656738,1578
826.775208,1549
826.893677,1587
827.012024,1601
827.130493,1604
827.248962,1653
827.36731,1628
827.485779,1644
827.604248,1633
827.722595,1617
827.841064,1580
827.959412,1606
828.077942,1585
828.196289,1534
828.314636,1586
828.433105,1567
828.551514,1576
828.669861,1608
828.78833,1608
828.906677,1558
829.025085,1538
829.143433,1593
829.261841,1555
829.38031,1557
829.498657,1527
829.617004,1597
829.735413,1589
829.85376,1528
829.972107,1533
830.090515,1579
830.208862,1543
830.327209,1560
830.445557,1573
830.563904,1579
830.682312,1536
830.800659,1614
830.919006,1568
831.037354,1625
831.155701,1611
831.274048,1624
831.392395,1617
831.51062,1644
831.629028,1636
831.747314,1628
831.865662,1605
831.984009,1568
832.102356,1626
832.220642,1644
832.338928,1631
832.457275,1664
832.575623,1668
832.693909,1570
832.812134,1631
832.930481,1632
833.048828,1566
833.167114,1595
833.2854,1604
833.403687,1592
833.521973,1601
833.640259,1589
833.758545,1559
833.876831,1589
833.995056,1573
834.113281,1613
834.231628,1652
834.349915,1600
834.468201,1611
834.586426,1584
834.704651,1603
834.822998,1593
834.941162,1631
835.059448,1603
835.177673,1626
835.295959,1613
835.414246,1655
835.53241,1618
835.650635,1601
835.768921,1630
835.887146,1615
836.005371,1582
836.123596,1598
836.241821,1569
836.360046,1538
836.478271,1607
836.596497,1568
836.714722,1535
836.832886,1580
836.95105,1561
837.069336,1558
837.1875,1561
837.305725,1556
837.423889,1529
837.542053,1593
837.660339,1552
837.778503,1546
837.896667,1573
838.014832,1579
838.132996,1558
838.25116,1567
838.369385,1598
838.487488,1621
838.605713,1605
838.723877,1612
838.84198,1595
838.960205,1590
839.078308,1618
839.196472,1620
839.314636,1608
839.4328,1649
839.550964,1668
839.669067,1658
839.787231,1704
839.905396,1739
840.023499,1732
840.141602,1723
840.259766,1746
840.377869,1742
840.495972,1745
840.614136,1746
840.732239,1769
840.850342,1723
840.968445,1765
841.086548,1754
841.204651,1795
841.322754,1764
841.440918,1809
841.55896,1789
841.677002,1815
841.795166,1830
841.913208,1826
842.031311,1867
842.149353,1849
842.267456,1822
842.385498,1760
842.503601,1772
842.621643,1761
842.739746,1773
842.857788,1753
842.97583,1796
843.093933,1770
843.211975,1819
843.330017,1757
843.44812,1834
843.566101,1789
843.684204,1807
843.802246,1805
843.920227,1802
844.038269,1772
844.156311,1776
844.274292,1738
844.392395,1787
844.510376,1770
844.628357,1744
844.74646,1744
844.864441,1751
844.982422,1757
845.100403,1716
845.218384,1768
845.336426,1706
845.454468,1697
845.572449,1737
845.69043,1702
845.808411,1704
845.926453,1732
846.044373,1723
846.162354,1733
846.280396,1727
846.398315,1719
846.516296,1713
846.634216,1742
846.752197,1713
846.870178,1760
846.988098,1700
847.106079,1734
847.22406,1770
847.34198,1749
847.4599,1786
847.577881,1762
847.695801,1766
847.813782,1742
847.931641,1770
848.049561,1723
848.167603,1733
848.285461,1722
848.403381,1760
848.521362,1723
848.639221,1707
848.75708,1719
848.875,1748
848.99292,1767
849.110901,1801
849.22876,1771
849.34668,1806
849.464539,1765
849.582458,1748
849.700317,1777
849.818176,1768
849.936096,1735
850.053955,1790
850.171875,1710
850.289673,1755
850.407593,1804
850.525452,1782
850.643311,1809
850.761169,1797
850.878967,1681
850.996887,1715
851.114746,1742
851.232544,1754
851.350403,1692
851.468262,1707
851.58606,1751
851.703979,1711
851.821777,1721
851.939636,1674
852.057434,1679
852.175232,1742
852.293091,1764
852.410889,1831
852.528687,1893
852.646545,1977
852.764343,1928
852.88208,1948
852.999939,1887
853.117676,1839
853.235535,1786
853.353271,1782
853.471069,1747
853.588928,1813
853.706604,1776
853.824402,1739
853.9422,1698
854.059998,1750
854.177734,1724
854.295532,1750
854.413269,1745
854.531006,1774
854.648804,1807
854.766541,1816
854.884277,1764
855.002014,1831
855.119751,1759
855.237549,1779
855.355225,1740
855.473022,1774
855.590698,1758
855.708435,1770
855.826172,1781
855.943848,1775
856.061646,1751
856.179321,1805
856.296997,1766
856.414795,1805
856.53241,1785
856.650085,1841
856.767822,1842
856.885559,1837
857.003174,1862
857.120911,1905
857.238586,1816
857.356201,1902
857.473938,1822
857.591614,1834
857.709351,1840
857.826965,1827
857.944641,1872
858.062317,1848
858.179993,1784
858.297668,1865
858.415283,1843
858.532959,1844
858.650574,1798
858.768188,1829
858.885803,1852
859.003479,1793
859.121094,1822
859.23877,1842
859.356384,1786
859.473999,1751
859.591675,1713
859.709229,1740
859.826843,1778
859.944458,1734
860.062012,1767
860.179626,1760
860.297302,1744
860.414856,1709
860.532471,1759
860.650024,1719
860.767639,1731
860.885193,1741
861.002808,1731
861.120361,1729
861.237976,1755
861.35553,1734
861.473022,1738
861.590698,1756
861.708191,1756
861.825745,1714
861.943298,1689
862.060852,1638
862.178406,1676
862.295959,1668
862.413513,1635
862.531006,1642
862.64856,1648
862.766113,1627
862.883667,1646
863.00116,1616
863.118713,1655
863.236206,1679
863.353699,1623
863.471252,1596
863.588745,1643
863.706177,1650
863.82373,1683
863.941162,1631
864.058716,1683
864.176208,1653
864.29364,1670
864.411194,1634
864.528687,1630
864.646118,1640
864.763611,1636
864.881042,1628
864.998535,1605
865.116028,1650
865.233459,1633
865.350891,1656
865.468384,1617
865.585754,1645
865.703308,1627
865.820679,1628
865.938171,1621
866.055542,1588
866.173035,1637
866.290466,1606
866.407837,1605
866.52533,1635
866.6427,1632
866.760071,1638
866.877563,1668
866.994934,1648
867.112305,1628
867.229736,1666
867.347107,1652
867.464539,1766
867.58197,1694
867.699341,1698
867.81665,1663
867.934082,1704
868.051453,1754
868.168823,1681
868.286194,1654
868.403564,1697
868.520935,1718
868.638306,1684
868.755676,1724
868.872986,1697
868.990295,1694
869.107727,1743
869.225037,1696
869.342346,1701
869.459717,1743
869.577026,1782
869.694336,1748
869.811707,1743
869.929016,1810
870.046326,1772
870.163635,1790
870.280945,1806
870.398254,1772
870.515564,1844
870.632812,1729
870.750183,1830
870.867432,1819
870.984741,1826
871.102051,1862
871.219299,1863
871.336609,1832
871.453918,1870
871.571106,1859
871.688416,1915
871.805664,1901
871.922852,1889
872.040222,1881
872.157471,1872
872.274719,1965
872.391968,1895
872.509155,1920
872.626465,1878
872.743652,1907
872.860962,1837
872.978149,1846
873.095337,1837
873.212646,1896
873.329834,1838
873.44696,1793
873.564209,1826
873.681396,1842
873.798645,1825
873.915894,1821
874.03302,1853
874.150208,1849
874.267456,1873
874.384583,1850
874.501831,1847
874.618958,1862
874.736145,1936
874.853333,1897
874.970459,1887
875.087646,1917
875.204834,1936
875.32196,1870
875.439148,1931
875.556274,1836
875.673401,1864
875.790527,1857
875.907715,1822
876.024841,1825
876.141968,1801
876.259094,1794
876.376282,1816
876.493347,1761
876.610474,1787
876.7276,1736
876.844727,1805
876.961853,1728
877.078918,1738
877.195984,1758
877.313171,1768
877.430237,1753
877.547302,1741
877.664368,1729
877.781433,1740
877.898499,1748
878.015625,1775
878.13269,1712
878.249695,1755
878.366821,1703
878.483887,1677
878.600952,1687
878.717957,1674
878.834961,1676
878.952087,1717
879.069092,1652
879.186157,1624
879.303162,1640
879.420227,1688
879.537231,1615
879.654236,1667
879.77124,1648
879.888306,1632
880.005249,1603
880.122314,1621
880.239319,1636
880.356323,1565
880.473328,1592
880.590271,1569
880.707275,1579
880.824341,1579
880.941284,1568
881.058228,1621
881.175232,1541
881.292236,1573
881.40918,1583
881.526123,1596
881.643066,1607
881.760071,1588
881.877014,1607
881.993958,1597
882.11084,1587
882.227783,1598
882.344727,1602
882.46167,1543
882.578613,1600
882.695618,1603
882.812439,1567
882.929382,1589
883.046326,1600
883.163208,1608
883.280151,1581
883.397034,1589
883.513916,1600
883.630798,1598
883.747742,1607
883.864563,1634
883.981506,1661
884.098389,1652
884.21521,1663
884.332153,1677
884.448975,1692
884.565796,1736
884.682678,1821
884.7995,1824
884.916443,1876
885.033264,1934
885.150085,1988
885.266968,2095
885.383789,2114
885.500671,2201
885.617493,2136
885.734314,2231
885.851196,2133
885.967896,2154
886.084717,2165
886.201599,2131
886.318359,2136
886.435181,2122
886.552002,2124
886.668762,2084
886.785645,2063
886.902344,2030
887.019165,1991
887.135925,2012
887.252747,1936
887.369446,1965
887.486267,1919
887.603027,1918
887.719788,1821
887.836548,1819
887.953247,1798
888.070068,1753
888.186829,1762
888.303528,1673
888.420288,1625
888.536987,1640
888.653687,1628
888.770447,1586
888.887146,1529
889.003967,1576
889.120667,1543
889.237305,1542
889.354065,1545
889.470703,1530
889.587463,1516
889.704163,1498
889.820862,1503
889.937561,1507
890.054199,1515
890.170837,1486
890.287598,1493
890.404236,1453
890.520874,1469
890.637634,1482
890.754211,1506
890.87085,1548
890.987549,1492
891.104187,1515
891.220886,1551
891.337463,1491
891.454102,1567
891.57074,1551
891.687378,1480
891.804077,1557
891.920654,1534
892.037231,1560
892.15387,1562
892.270447,1550
892.387085,1510
892.503723,1534
892.6203,1545
892.736877,1492
892.853516,1562
892.970032,1491
893.08667,1487
893.203186,1531
893.319763,1463
893.43634,1542
893.552917,1481
893.669556,1525
893.786011,1491
893.902588,1477
894.019165,1562
894.135681,1562
894.252197,1484
894.368835,1503
894.485291,1533
894.601868,1507
894.718384,1524
894.8349,1513
894.951355,1539
895.067932,1543
895.184448,1467
895.300964,1542
895.417419,1495
895.533936,1443
895.650452,1498
895.766907,1475
895.883423,1482
895.999878,1463
896.116333,1504
896.232849,1504
896.349304,1489
896.465759,1515
896.582214,1488
896.698669,1482
896.815125,1490
896.931641,1499
897.048035,1504
897.164551,1580
897.280884,1519
897.397339,1491
897.513794,1554
897.630249,1538
897.746582,1507
897.863098,1547
897.979431,1506
898.095886,1526
898.212341,1496
898.328674,1536
898.445129,1542
898.561462,1528
898.677795,1515
898.794312,1587
898.910645,1506
899.026978,1561
899.143433,1537
899.259766,1522
899.37616,1545
899.492493,1570
899.608765,1555
899.725159,1597
899.841553,1538
899.957947,1552
900.07428,1532
900.190552,1561
900.306946,1586
900.423157,1552
900.53949,1525
900.655884,1561
900.772156,1548
900.888489,1568
901.004822,1556
901.121033,1548
901.237366,1579
901.353699,1586
901.46991,1588
901.586304,1610
901.702515,1630
901.818787,1629
901.93512,1655
902.051331,1698
902.167603,1696
902.283875,1723
902.400085,1777
902.516418,1828
902.632629,1840
902.74884,1858
902.865112,1872
902.981384,1895
903.097595,1881
903.213867,1844
903.330017,1866
903.446289,1865
903.5625,1800
903.67865,1795
903.794922,1787
903.911072,1760
904.027344,1701
904.143494,1714
904.259705,1707
904.375916,1676
904.492065,1691
904.608215,1644
904.724426,1635
904.840576,1611
904.956726,1617
905.072876,1586
905.189087,1560
905.305176,1544
905.421387,1542
905.537537,1596
905.653687,1537
905.769775,1563
905.885925,1554
906.002014,1562
906.118164,1546
906.234314,1515
906.350403,1581
906.466492,1493
906.582642,1493
906.69873,1497
906.814758,1530
906.930908,1511
907.046936,1536
907.163086,1503
907.279175,1487
907.395264,1540
907.511353,1458
907.62738,1473
907.743408,1467
907.859497,1428
907.975525,1480
908.091553,1462
908.207703,1495
908.32373,1463
908.439758,1466
908.555786,1471
908.671814,1490
908.787842,1482
908.90387,1485
909.019775,1476
909.135864,1473
909.251892,1503
909.367859,1497
909.483826,1516
909.599854,1522
909.715881,1502
909.831848,1469
909.947815,1510
910.063782,1490
910.179749,1522
910.295776,1486
910.411743,1502
910.527649,1511
910.643616,1474
910.759583,1505
910.875488,1500
910.991455,1493
911.107361,1472
911.223267,1487
911.339294,1466
911.4552,1528
911.571106,1471
911.687073,1449
911.802979,1508
911.918823,1499
912.034729,1478
912.150635,1444
912.266602,1448
912.382446,1451
912.498352,1437
912.614197,1459
912.730103,1486
912.846008,1440
