792.44574,4858
792.56488,4630
792.68396,4460
792.80304,4421
792.92218,4286
793.041199,4162
793.160339,4091
793.279419,4008
793.398499,3887
793.517578,3815
793.636658,3621
793.755737,3588
793.874817,3455
793.993896,3479
794.112976,3422
794.232056,3342
794.351074,3273
794.470215,3226
794.589233,3170
794.708313,3145
794.827393,3049
794.946411,3012
795.065552,2935
795.18457,2913
795.303589,2893
795.422668,2892
795.541687,2839
795.660767,2845
795.779846,2758
795.898865,2754
796.017883,2686
796.136963,2672
796.255981,2617
796.375061,2611
796.49408,2578
796.613037,2575
796.732117,2517
796.851135,2539
796.970154,2479
797.089233,2426
797.208191,2490
797.327271,2391
797.446228,2419
797.565186,2331
797.684265,2324
797.803223,2405
797.922241,2361
798.04126,2324
798.160278,2314
798.279297,2286
798.398315,2219
798.517273,2290
798.636292,2266
798.75531,2247
798.874268,2232
798.993286,2239
799.112244,2304
799.231323,2289
799.350281,2231
799.469238,2223
799.588257,2164
799.707153,2189
799.826111,2200
799.945129,2194
800.064087,2188
800.183044,2163
800.302063,2173
800.421021,2156
800.539978,2146
800.658936,2131
800.777893,2079
800.896912,2102
801.015747,2077
801.134705,2106
801.253723,2110
801.37262,2070
801.491638,2085
801.610535,2069
801.729492,2074
801.84845,2027
801.967407,1980
802.086243,2046
802.205261,2057
802.324158,2044
802.443115,1982
802.562073,1994
802.680969,2023
802.799927,1965
802.918762,1973
803.037659,1989
803.156677,1977
803.275574,1992
803.39447,1976
803.513428,1917
803.632263,1975
803.751221,1930
803.870117,1909
803.989014,1954
804.107971,1899
804.226746,1973
804.345642,1918
804.4646,1926
804.583496,1954
804.702393,1959
804.821228,1892
804.940125,2076
805.059021,14173
805.177917,1593
805.296814,1888
805.415649,1862
805.534546,1913
805.653442,1886
805.772278,1891
805.891113,1891
806.01001,1904
806.128906,1896
806.247742,1859
806.366577,1889
806.485413,1829
806.604309,1896
806.723145,1872
806.84198,1883
806.960876,1851
807.079712,1863
807.198486,1829
807.317383,1848
807.436218,1856
807.554993,1810
807.673889,1825
807.792725,1837
807.91156,1854
808.030396,1853
808.14917,1818
808.268005,1812
808.386841,1830
808.505676,1816
808.624451,1838
808.743286,1808
808.862122,1820
808.980896,1838
809.099731,1809
809.218506,1764
809.337341,1802
809.456116,1796
809.57489,1838
809.693726,1812
809.8125,1830
809.931274,1805
810.050049,1784
810.168884,1783
810.287659,1803
810.406372,1780
810.525269,1807
810.643982,1805
810.762756,1774
810.881531,1807
811.000305,1871
811.11908,1802
811.237854,1794
811.356567,1794
811.475403,1832
811.594116,1817
811.71283,1799
811.831604,1848
811.950378,1825
812.069153,1824
812.187927,1832
812.30658,1805
812.425415,1826
812.544128,1840
812.662781,1823
812.781616,1879
812.900269,1816
813.019043,1897
813.137756,1790
813.256531,1845
813.375244,1836
813.493896,1799
813.612671,1819
813.731384,1791
813.850037,1797
813.96875,1772
814.087524,1768
814.206238,1793
814.324951,1780
814.443604,1797
814.562256,1789
814.68103,1760
814.799683,1767
814.918335,1758
815.037109,1748
815.155762,1763
815.274475,1743
815.393188,1741
815.511841,1719
815.630554,1747
815.749146,1774
815.867859,1722
815.986572,1767
816.105164,1809
816.223877,1729
816.342529,1738
816.461182,1789
816.579895,1754
816.698486,1788
816.817139,1805
816.935791,1778
817.054504,1812
817.173096,1835
817.291748,1797
817.4104,1742
817.529053,1763
817.647644,1732
817.766235,1717
817.884949,1694
818.00354,1718
818.122192,1715
818.240845,1715
818.359436,1707
818.478088,1664
818.59668,1640
818.715271,1637
818.833923,1648
818.952515,1613
819.071106,1599
819.189758,1590
819.30835,1598
819.426941,1623
819.545532,1599
819.664124,1599
819.782715,1545
819.901306,1596
820.019897,1559
820.138489,1541
820.25708,1585
820.375671,1581
820.494202,1586
820.612732,1591
820.731384,1592
820.849915,1573
820.968506,1530
821.087097,1615
821.205627,1563
821.324158,1537
821.442749,1551
821.561279,1538
821.679871,1542
821.798401,1502
821.916931,1537
822.035461,1573
822.154053,1530
822.272583,1540
822.391174,1478
822.509583,1488
822.628174,1499
822.746704,1528
822.865234,1486
822.983765,1468
823.102295,1519
823.220825,1509
823.339294,1487
823.457825,1510
823.576355,1497
823.694824,1551
823.813354,1489
823.931885,1506
824.050354,1520
824.168884,1518
824.287354,1507
824.405823,1561
824.524353,1552
824.642822,1532
824.761353,1519
824.879822,1544
824.998291,1504
825.116699,1519
825.235291,1531
825.353699,1570
825.472168,1504
825.590637,1523
825.709106,1518
825.827576,1530
825.946045,1486
826.064453,1500
826.182983,1503
826.301392,1463
826.4198,1513
826.53833,1507
826.656738,1465
826.775208,1438
826.893677,1531
827.012024,1473
827.130493,1457
827.248962,1472
827.36731,1523
827.485779,1489
827.604248,1533
827.722595,1495
827.841064,1438
827.959412,1414
828.077942,1426
828.196289,1448
828.314636,1475
828.433105,1420
828.551514,1438
828.669861,1452
828.78833,1431
828.906677,1472
829.025085,1425
829.143433,1477
829.261841,1449
829.38031,1457
829.498657,1458
829.617004,1427
829.735413,1427
829.85376,1410
829.972107,1421
830.090515,1443
830.208862,1437
830.327209,1476
830.445557,1471
830.563904,1407
830.682312,1442
830.800659,1444
830.919006,1493
831.037354,1489
831.155701,1547
831.274048,1480
831.392395,1510
831.51062,1478
831.629028,1513
831.747314,1478
831.865662,1509
831.984009,1458
832.102356,1486
832.220642,1504
832.338928,1536
832.457275,1485
832.575623,1513
832.693909,1552
832.812134,1486
832.930481,1514
833.048828,1510
833.167114,1465
833.2854,1448
833.403687,1500
833.521973,1462
833.640259,1498
833.758545,1508
833.876831,1507
833.995056,1508
834.113281,1511
834.231628,1482
834.349915,1472
834.468201,1499
834.586426,1488
834.704651,1530
834.822998,1460
834.941162,1513
835.059448,1483
835.177673,1489
835.295959,1528
835.414246,1541
835.53241,1475
835.650635,1532
835.768921,1485
835.887146,1468
836.005371,1452
836.123596,1480
836.241821,1473
836.360046,1478
836.478271,1486
836.596497,1460
836.714722,1464
836.832886,1474
836.95105,1449
837.069336,1455
837.1875,1439
837.305725,1454
837.423889,1470
837.542053,1439
837.660339,1457
837.778503,1439
837.896667,1508
838.014832,1457
838.132996,1493
838.25116,1496
838.369385,1491
838.487488,1483
838.605713,1485
838.723877,1509
838.84198,1505
838.960205,1537
839.078308,1470
839.196472,1541
839.314636,1499
839.4328,1554
839.550964,1539
839.669067,1533
839.787231,1561
839.905396,1556
840.023499,1565
840.141602,1631
840.259766,1608
840.377869,1599
840.495972,1637
840.614136,1580
840.732239,1648
840.850342,1600
840.968445,1624
841.086548,1636
841.204651,1619
841.322754,1639
841.440918,1666
841.55896,1698
841.677002,1716
841.795166,1704
841.913208,1669
842.031311,1665
842.149353,1630
842.267456,1642
842.385498,1680
842.503601,1650
842.621643,1622
842.739746,1637
842.857788,1674
842.97583,1640
843.093933,1650
843.211975,1622
843.330017,1654
843.44812,1680
843.566101,1700
843.684204,1649
843.802246,1661
843.920227,1640
844.038269,1644
844.156311,1684
844.274292,1694
844.392395,1650
844.510376,1598
844.628357,1599
844.74646,1611
844.864441,1621
844.982422,1629
845.100403,1604
845.218384,1619
845.336426,1589
845.454468,1589
845.572449,1586
845.69043,1573
845.808411,1532
845.926453,1638
846.044373,1583
846.162354,1619
846.280396,1587
846.398315,1654
846.516296,1606
846.634216,1608
846.752197,1587
846.870178,1611
846.988098,1667
847.106079,1666
847.22406,1599
847.34198,1637
847.4599,1643
847.577881,1579
847.695801,1564
847.813782,1600
847.931641,1587
848.049561,1586
848.167603,1587
848.285461,1559
848.403381,1578
848.521362,1577
848.639221,1556
848.75708,1558
848.875,1581
848.99292,1627
849.110901,1573
849.22876,1641
849.34668,1633
849.464539,1636
849.582458,1636
849.700317,1630
849.818176,1568
849.936096,1638
850.053955,1596
850.171875,1628
850.289673,1642
850.407593,1586
850.525452,1636
850.643311,1611
850.761169,1599
850.878967,1608
850.996887,1598
851.114746,1605
851.232544,1629
851.350403,1607
851.468262,1573
851.58606,1585
851.703979,1544
851.821777,1570
851.939636,1605
852.057434,1596
852.175232,1584
852.293091,1620
852.410889,1702
852.528687,1718
852.646545,1813
852.764343,1779
852.88208,1754
852.999939,1649
853.117676,1668
853.235535,1690
853.353271,1633
853.471069,1625
853.588928,1619
853.706604,1604
853.824402,1594
853.9422,1623
854.059998,1617
854.177734,1648
854.295532,1649
854.413269,1636
854.531006,1640
854.648804,1714
854.766541,1653
854.884277,1678
855.002014,1607
855.119751,1627
855.237549,1649
855.355225,1682
855.473022,1611
855.590698,1582
855.708435,1651
855.826172,1617
855.943848,1653
856.061646,1663
856.179321,1578
856.296997,1646
856.414795,1695
856.53241,1672
856.650085,1663
856.767822,1706
856.885559,1681
857.003174,1751
857.120911,1707
857.238586,1709
857.356201,1766
857.473938,1715
857.591614,1696
857.709351,1713
857.826965,1722
857.944641,1681
858.062317,1730
858.179993,1667
858.297668,1674
858.415283,1710
858.532959,1676
858.650574,1644
858.768188,1695
858.885803,1701
859.003479,1693
859.121094,1643
859.23877,1685
859.356384,1632
859.473999,1633
859.591675,1653
859.709229,1632
859.826843,1640
859.944458,1607
860.062012,1562
860.179626,1601
860.297302,1602
860.414856,1544
860.532471,1553
860.650024,1625
860.767639,1617
860.885193,1622
861.002808,1585
861.120361,1593
861.237976,1602
861.35553,1603
861.473022,1578
861.590698,1593
861.708191,1614
861.825745,1626
861.943298,1559
862.060852,1620
862.178406,1551
862.295959,1533
862.413513,1490
862.531006,1465
862.64856,1507
862.766113,1516
862.883667,1500
863.00116,1514
863.118713,1526
863.236206,1535
863.353699,1552
863.471252,1509
863.588745,1514
863.706177,1557
863.82373,1517
863.941162,1584
864.058716,1614
864.176208,1574
864.29364,1559
864.411194,1498
864.528687,1497
864.646118,1508
864.763611,1492
864.881042,1520
864.998535,1452
865.116028,1493
865.233459,1550
865.350891,1525
865.468384,1492
865.585754,1586
865.703308,1515
865.820679,1535
865.938171,1506
866.055542,1481
866.173035,1531
866.290466,1510
866.407837,1504
866.52533,1504
866.6427,1548
866.760071,1490
866.877563,1549
866.994934,1522
867.112305,1534
867.229736,1516
867.347107,1520
867.464539,1537
867.58197,1558
867.699341,1552
867.81665,1577
867.934082,1562
868.051453,1489
868.168823,1556
868.286194,1572
868.403564,1565
868.520935,1585
868.638306,1541
868.755676,1516
868.872986,1545
868.990295,1574
869.107727,1590
869.225037,1612
869.342346,1565
869.459717,1595
869.577026,1659
869.694336,1600
869.811707,1631
869.929016,1634
870.046326,1632
870.163635,1645
870.280945,1670
870.398254,1665
870.515564,1662
870.632812,1730
870.750183,1686
870.867432,1685
870.984741,1737
871.102051,1724
871.219299,1722
871.336609,1771
871.453918,1736
871.571106,1739
871.688416,1760
871.805664,1778
871.922852,1792
872.040222,1753
872.157471,1776
872.274719,1783
872.391968,1736
872.509155,1767
872.626465,1753
872.743652,1744
872.860962,1706
872.978149,1703
873.095337,1722
873.212646,1689
873.329834,1678
873.44696,1692
873.564209,1706
873.681396,1686
873.798645,1688
873.915894,1757
874.03302,1713
874.150208,1718
874.267456,1696
874.384583,1753
874.501831,1743
874.618958,1756
874.736145,1823
874.853333,1797
874.970459,1785
875.087646,1750
875.204834,1730
875.32196,1747
875.439148,1744
875.556274,1678
875.673401,1686
875.790527,1689
875.907715,1709
876.024841,1661
876.141968,1656
876.259094,1633
876.376282,1638
876.493347,1624
876.610474,1605
876.7276,1617
876.844727,1616
876.961853,1611
877.078918,1611
877.195984,1624
877.313171,1600
877.430237,1628
877.547302,1568
877.664368,1600
877.781433,1616
877.898499,1595
878.015625,1629
878.13269,1588
878.249695,1572
878.366821,1563
878.483887,1569
878.600952,1496
878.717957,1491
878.834961,1556
878.952087,1592
879.069092,1527
879.186157,1527
879.303162,1553
879.420227,1540
879.537231,1509
879.654236,1490
879.77124,1495
879.888306,1523
880.005249,1474
880.122314,1501
880.239319,1515
880.356323,1473
880.473328,1473
880.590271,1497
880.707275,1505
880.824341,1461
880.941284,1412
881.058228,1506
881.175232,1455
881.292236,1502
881.40918,1490
881.526123,1459
881.643066,1480
881.760071,1464
881.877014,1440
881.993958,1488
882.11084,1446
882.227783,1481
882.344727,1440
882.46167,1506
882.578613,1451
882.695618,1458
882.812439,1488
882.929382,1477
883.046326,1497
883.163208,1482
883.280151,1492
883.397034,1483
883.513916,1454
883.630798,1551
883.747742,1498
883.864563,1561
883.981506,1520
884.098389,1525
884.21521,1579
884.332153,1600
884.448975,1581
884.565796,1620
884.682678,1680
884.7995,1679
884.916443,1805
885.033264,1869
885.150085,1927
885.266968,2026
885.383789,2058
885.500671,2099
885.617493,2076
885.734314,2073
885.851196,2067
885.967896,2097
886.084717,2089
886.201599,2024
886.318359,1978
886.435181,1991
886.552002,2017
886.668762,1965
886.785645,1943
886.902344,1943
887.019165,1897
887.135925,1875
887.252747,1860
887.369446,1872
887.486267,1787
887.603027,1738
887.719788,1731
887.836548,1680
887.953247,1651
888.070068,1650
888.186829,1589
888.303528,1607
888.420288,1538
888.536987,1517
888.653687,1510
888.770447,1483
888.887146,1473
889.003967,1422
889.120667,1447
889.237305,1426
889.354065,1465
889.470703,1421
889.587463,1425
889.704163,1391
889.820862,1397
889.937561,1405
890.054199,1403
890.170837,1385
890.287598,1424
890.404236,1392
890.520874,1386
890.637634,1407
890.754211,1431
890.87085,1417
890.987549,1431
891.104187,1472
891.220886,1425
891.337463,1444
891.454102,1435
891.57074,1485
891.687378,1407
891.804077,1454
891.920654,1403
892.037231,1468
892.15387,1427
892.270447,1438
892.387085,1433
892.503723,1426
892.6203,1445
892.736877,1419
892.853516,1419
892.970032,1390
893.08667,1448
893.203186,1413
893.319763,1382
893.43634,1358
893.552917,1421
893.669556,1427
893.786011,1430
893.902588,1450
894.019165,1420
894.135681,1411
894.252197,1358
894.368835,1480
894.485291,1418
894.601868,1406
894.718384,1390
894.8349,1387
894.951355,1411
895.067932,1474
895.184448,1375
895.300964,1407
895.417419,1399
895.533936,1349
895.650452,1390
895.766907,1435
895.883423,1399
895.999878,1413
896.116333,1445
896.232849,1370
896.349304,1422
896.465759,1367
896.582214,1427
896.698669,1420
896.815125,1406
896.931641,1388
897.048035,1391
897.164551,1428
897.280884,1410
897.397339,1397
897.513794,1381
897.630249,1415
897.746582,1415
897.863098,1451
897.979431,1406
898.095886,1414
898.212341,1405
898.328674,1437
898.445129,1429
898.561462,1406
898.677795,1426
898.794312,1477
898.910645,1422
899.026978,1455
899.143433,1447
899.259766,1426
899.37616,1497
899.492493,1402
899.608765,1484
899.725159,1418
899.841553,1435
899.957947,1399
900.07428,1452
900.190552,1435
900.306946,1412
900.423157,1431
900.53949,1417
900.655884,1438
900.772156,1469
900.888489,1411
901.004822,1467
901.121033,1505
901.237366,1438
901.353699,1440
901.46991,1522
901.586304,1480
901.702515,1504
901.818787,1519
901.93512,1532
902.051331,1608
902.167603,1626
902.283875,1638
902.400085,1695
902.516418,1706
902.632629,1708
902.74884,1748
902.865112,1772
902.981384,1720
903.097595,1803
903.213867,1739
903.330017,1715
903.446289,1660
903.5625,1696
903.67865,1735
903.794922,1664
903.911072,1623
904.027344,1642
904.143494,1621
904.259705,1593
904.375916,1584
904.492065,1563
904.608215,1519
904.724426,1524
904.840576,1492
904.956726,1492
905.072876,1459
905.189087,1442
905.305176,1456
905.421387,1482
905.537537,1465
905.653687,1428
905.769775,1455
905.885925,1490
906.002014,1442
906.118164,1378
906.234314,1410
906.350403,1438
906.466492,1419
906.582642,1406
906.69873,1425
906.814758,1398
906.930908,1375
907.046936,1385
907.163086,1435
907.279175,1399
907.395264,1439
907.511353,1409
907.62738,1381
907.743408,1365
907.859497,1389
907.975525,1416
908.091553,1427
908.207703,1360
908.32373,1410
908.439758,1436
908.555786,1404
908.671814,1416
908.787842,1429
908.90387,1367
909.019775,1411
909.135864,1373
909.251892,1397
909.367859,1401
909.483826,1419
909.599854,1406
909.715881,1417
909.831848,1404
909.947815,1445
910.063782,1424
910.179749,1438
910.295776,1447
910.411743,1455
910.527649,1446
910.643616,1418
910.759583,1442
910.875488,1439
910.991455,1414
911.107361,1390
911.223267,1414
911.339294,1418
911.4552,1369
911.571106,1400
911.687073,1415
911.802979,1412
911.918823,1413
912.034729,1381
912.150635,1415
912.266602,1414
912.382446,1383
912.498352,1369
912.614197,1378
912.730103,1381
912.846008,1384
792.44574,4831
792.56488,4709
792.68396,4610
792.80304,4445
792.92218,4341
793.041199,4195
793.160339,4148
793.279419,4053
793.398499,4007
793.517578,3806
793.636658,3723
793.755737,3688
793.874817,3581
793.993896,3472
794.112976,3335
794.232056,3317
794.351074,3338
794.470215,3260
794.589233,3212
794.708313,3121
794.827393,3082
794.946411,3121
795.065552,3039
795.18457,2960
795.303589,2946
795.422668,2879
795.541687,2863
795.660767,2869
795.779846,2816
795.898865,2777
796.017883,2719
796.136963,2742
796.255981,2704
796.375061,2608
796.49408,2639
796.613037,2575
796.732117,2535
796.851135,2600
796.970154,2500
797.089233,2469
797.208191,2484
797.327271,2448
797.446228,2458
797.565186,2399
797.684265,2435
797.803223,2349
797.922241,2353
798.04126,2382
798.160278,2401
798.279297,2382
798.398315,2291
798.517273,2318
798.636292,2327
798.75531,2292
798.874268,2320
798.993286,2268
799.112244,2262
799.231323,2166
799.350281,2240
799.469238,2255
799.588257,2263
799.707153,2248
799.826111,2220
799.945129,2229
800.064087,2204
800.183044,2159
800.302063,2274
800.421021,2170
800.539978,2128
800.658936,2137
800.777893,2181
800.896912,2119
801.015747,2092
801.134705,2146
801.253723,2109
801.37262,2055
801.491638,2122
801.610535,2057
801.729492,2105
801.84845,2044
801.967407,2091
802.086243,2073
802.205261,2071
802.324158,2066
802.443115,2045
802.562073,2045
802.680969,2080
802.799927,2035
802.918762,2034
803.037659,2015
803.156677,2055
803.275574,1991
803.39447,1995
803.513428,2019
803.632263,1980
803.751221,1963
803.870117,2008
803.989014,1953
804.107971,1963
804.226746,1990
804.345642,1986
804.4646,1959
804.583496,1972
804.702393,1931
804.821228,1991
804.940125,1952
805.059021,1975
805.177917,1957
805.296814,1924
805.415649,1910
805.534546,1949
805.653442,1862
805.772278,1940
805.891113,1939
806.01001,1908
806.128906,1948
806.247742,1896
806.366577,1872
806.485413,1903
806.604309,1888
806.723145,1939
806.84198,1892
806.960876,1854
807.079712,1912
807.198486,1873
807.317383,1883
807.436218,1879
807.554993,1853
807.673889,1874
807.792725,1837
807.91156,1909
808.030396,1859
808.14917,1848
808.268005,1865
808.386841,1851
808.505676,1880
808.624451,1835
808.743286,1851
808.862122,1828
808.980896,1738
809.099731,1806
809.218506,1856
809.337341,1864
809.456116,1833
809.57489,1875
809.693726,1829
809.8125,1831
809.931274,1872
810.050049,1787
810.168884,1812
810.287659,1797
810.406372,1818
810.525269,1852
810.643982,1820
810.762756,1835
810.881531,1857
811.000305,1820
811.11908,1849
811.237854,1821
811.356567,1830
811.475403,1849
811.594116,1824
811.71283,1876
811.831604,1850
811.950378,1852
812.069153,1889
812.187927,1898
812.30658,1910
812.425415,1882
812.544128,1863
812.662781,1868
812.781616,1899
812.900269,1842
813.019043,1842
813.137756,1809
813.256531,1830
813.375244,1840
813.493896,1825
813.612671,1811
813.731384,1788
813.850037,1809
813.96875,1830
814.087524,1830
814.206238,1772
814.324951,1799
814.443604,1823
814.562256,1807
814.68103,1813
814.799683,1791
814.918335,1783
815.037109,1844
815.155762,1809
815.274475,1831
815.393188,1755
815.511841,1803
815.630554,1810
815.749146,1795
815.867859,1768
815.986572,1784
816.105164,1782
816.223877,1805
816.342529,1781
816.461182,1811
816.579895,1797
816.698486,1813
816.817139,1819
816.935791,1826
817.054504,1782
817.173096,1855
817.291748,1792
817.4104,1753
817.529053,1792
817.647644,1767
817.766235,1781
817.884949,1747
818.00354,1735
818.122192,1685
818.240845,1710
818.359436,1688
818.478088,1660
818.59668,1651
818.715271,1719
818.833923,1650
818.952515,1654
819.071106,1692
819.189758,1636
819.30835,1576
819.426941,1615
819.545532,1623
819.664124,1523
819.782715,1610
819.901306,1550
820.019897,1636
820.138489,1600
820.25708,1603
820.375671,1594
820.494202,1612
820.612732,1639
820.731384,1613
820.849915,1598
820.968506,1592
821.087097,1560
821.205627,1576
821.324158,1602
821.442749,1566
821.561279,1571
821.679871,1520
821.798401,1589
821.916931,1473
822.035461,1564
822.154053,1551
822.272583,1535
822.391174,1570
822.509583,1546
822.628174,1537
822.746704,1563
822.865234,1543
822.983765,1500
823.102295,1511
823.220825,1533
823.339294,1527
823.457825,1529
823.576355,1571
823.694824,1555
823.813354,1553
823.931885,1532
824.050354,1515
824.168884,1577
824.287354,1541
824.405823,1533
824.524353,1540
824.642822,1523
824.761353,1567
824.879822,1550
824.998291,1570
825.116699,1542
825.235291,1554
825.353699,1557
825.472168,1516
825.590637,1566
825.709106,1486
825.827576,1507
825.946045,1528
826.064453,1540
826.182983,1518
826.301392,1472
826.4198,1500
826.53833,1479
826.656738,1484
826.775208,1474
826.893677,1488
827.012024,1502
827.130493,1506
827.248962,1512
827.36731,1495
827.485779,1514
827.604248,1517
827.722595,1533
827.841064,1420
827.959412,1496
828.077942,1492
828.196289,1462
828.314636,1471
828.433105,1486
828.551514,1438
828.669861,1455
828.78833,1433
828.906677,1444
829.025085,1454
829.143433,1504
829.261841,1485
829.38031,1455
829.498657,1432
829.617004,1487
829.735413,1415
829.85376,1455
829.972107,1480
830.090515,1484
830.208862,1448
830.327209,1499
830.445557,1498
830.563904,1459
830.682312,1471
830.800659,1509
830.919006,1555
831.037354,1514
831.155701,1592
831.274048,1525
831.392395,1585
831.51062,1556
831.629028,1521
831.747314,1523
831.865662,1520
831.984009,1514
832.102356,1518
832.220642,1543
832.338928,1560
832.457275,1536
832.575623,1510
832.693909,1535
832.812134,1604
832.930481,1540
833.048828,1520
833.167114,1523
833.2854,1485
833.403687,1493
833.521973,1553
833.640259,1524
833.758545,1494
833.876831,1526
833.995056,1522
834.113281,1533
834.231628,1518
834.349915,1501
834.468201,1529
834.586426,1495
834.704651,1539
834.822998,1519
834.941162,1537
835.059448,1505
835.177673,1530
835.295959,1560
835.414246,1578
835.53241,1475
835.650635,1492
835.768921,1500
835.887146,1486
836.005371,1456
836.123596,1484
836.241821,1484
836.360046,1459
836.478271,1476
836.596497,1454
836.714722,1494
836.832886,1492
836.95105,1522
837.069336,1448
837.1875,1469
837.305725,1492
837.423889,1497
837.542053,1479
837.660339,1506
837.778503,1486
837.896667,1478
838.014832,1524
838.132996,1515
838.25116,1539
838.369385,1522
838.487488,1538
838.605713,1520
838.723877,1534
838.84198,1563
838.960205,1511
839.078308,1554
839.196472,1510
839.314636,1520
839.4328,1550
839.550964,1524
839.669067,1536
839.787231,1617
839.905396,1551
840.023499,1581
840.141602,1611
840.259766,1608
840.377869,1680
840.495972,1640
840.614136,1650
840.732239,1626
840.850342,1625
840.968445,1638
841.086548,1677
841.204651,1654
841.322754,1700
841.440918,1675
841.55896,1729
841.677002,1661
841.795166,1726
841.913208,1675
842.031311,1676
842.149353,1710
842.267456,1673
842.385498,1642
842.503601,1715
842.621643,1693
842.739746,1665
842.857788,1661
842.97583,1625
843.093933,1684
843.211975,1711
843.330017,1692
843.44812,1695
843.566101,1675
843.684204,1653
843.802246,1669
843.920227,1657
844.038269,1680
844.156311,1712
844.274292,1648
844.392395,1666
844.510376,1655
844.628357,1660
844.74646,1587
844.864441,1630
844.982422,1623
845.100403,1611
845.218384,1614
845.336426,1588
845.454468,1613
845.572449,1565
845.69043,1624
845.808411,1604
845.926453,1577
846.044373,1606
846.162354,1603
846.280396,1609
846.398315,1612
846.516296,1614
846.634216,1645
846.752197,1597
846.870178,1649
846.988098,1616
847.106079,1658
847.22406,1624
847.34198,1621
847.4599,1635
847.577881,1620
847.695801,1639
847.813782,1628
847.931641,1632
848.049561,1603
848.167603,1621
848.285461,1628
848.403381,1595
848.521362,1564
848.639221,1584
848.75708,1615
848.875,1644
848.99292,1593
849.110901,1626
849.22876,1624
849.34668,1604
849.464539,1655
849.582458,1640
849.700317,1620
849.818176,1641
849.936096,1671
850.053955,1692
850.171875,1649
850.289673,1623
850.407593,1615
850.525452,1625
850.643311,1617
850.761169,1633
850.878967,1603
850.996887,1672
851.114746,1622
851.232544,1591
851.350403,1630
851.468262,1578
851.58606,1633
851.703979,1589
851.821777,1599
851.939636,1622
852.057434,1610
852.175232,1569
852.293091,1699
852.410889,1713
852.528687,1781
852.646545,1850
852.764343,1829
852.88208,1790
852.999939,1709
853.117676,1760
853.235535,1691
853.353271,1672
853.471069,1642
853.588928,1623
853.706604,1621
853.824402,1651
853.9422,1615
854.059998,1629
854.177734,1627
854.295532,1664
854.413269,1654
854.531006,1698
854.648804,1725
854.766541,1678
854.884277,1693
855.002014,1685
855.119751,1661
855.237549,1638
855.355225,1652
855.473022,1649
855.590698,1610
855.708435,1670
855.826172,1661
855.943848,1650
856.061646,1679
856.179321,1637
856.296997,1659
856.414795,1706
856.53241,1697
856.650085,1654
856.767822,1676
856.885559,1758
857.003174,1728
857.120911,1785
857.238586,1762
857.356201,1731
857.473938,1774
857.591614,1739
857.709351,1714
857.826965,1727
857.944641,1787
858.062317,1718
858.179993,1686
858.297668,1725
858.415283,1750
858.532959,1706
858.650574,1707
858.768188,1757
858.885803,1759
859.003479,1728
859.121094,1711
859.23877,1709
859.356384,1668
859.473999,1673
859.591675,1653
859.709229,1706
859.826843,1639
859.944458,1625
860.062012,1612
860.179626,1598
860.297302,1581
860.414856,1651
860.532471,1612
860.650024,1621
860.767639,1580
860.885193,1618
861.002808,1602
861.120361,1621
861.237976,1634
861.35553,1662
861.473022,1643
861.590698,1581
861.708191,1605
861.825745,1662
861.943298,1605
862.060852,1621
862.178406,1601
862.295959,1556
862.413513,1562
862.531006,1563
862.64856,1494
862.766113,1516
862.883667,1539
863.00116,1524
863.118713,1539
863.236206,1539
863.353699,1546
863.471252,1602
863.588745,1610
863.706177,1578
863.82373,1598
863.941162,1624
864.058716,1578
864.176208,1588
864.29364,1549
864.411194,1528
864.528687,1507
864.646118,1555
864.763611,1538
864.881042,1547
864.998535,1575
865.116028,1521
865.233459,1525
865.350891,1571
865.468384,1569
865.585754,1512
865.703308,1523
865.820679,1604
865.938171,1510
866.055542,1525
866.173035,1549
866.290466,1515
866.407837,1540
866.52533,1504
866.6427,1516
866.760071,1558
866.877563,1554
866.994934,1571
867.112305,1541
867.229736,1555
867.347107,1588
867.464539,1555
867.58197,1586
867.699341,1591
867.81665,1576
867.934082,1583
868.051453,1588
868.168823,1622
868.286194,1572
868.403564,1550
868.520935,1534
868.638306,1581
868.755676,1599
868.872986,1573
868.990295,1603
869.107727,1635
869.225037,1588
869.342346,1621
869.459717,1627
869.577026,1633
869.694336,1660
869.811707,1654
869.929016,1638
870.046326,1679
870.163635,1688
870.280945,1656
870.398254,1700
870.515564,1725
870.632812,1736
870.750183,1735
870.867432,1688
870.984741,1768
871.102051,1757
871.219299,1764
871.336609,1727
871.453918,1754
871.571106,1819
871.688416,1780
871.805664,1792
871.922852,1797
872.040222,1798
872.157471,1789
872.274719,1812
872.391968,1809
872.509155,1786
872.626465,1759
872.743652,1810
872.860962,1750
872.978149,1796
873.095337,1747
873.212646,1747
873.329834,1719
873.44696,1741
873.564209,1717
873.681396,1708
873.798645,1660
873.915894,1673
874.03302,1679
874.150208,1778
874.267456,1711
874.384583,1737
874.501831,1818
874.618958,1818
874.736145,1852
874.853333,1846
874.970459,1856
875.087646,1801
875.204834,1805
875.32196,1801
875.439148,1775
875.556274,1786
875.673401,1766
875.790527,1735
875.907715,1729
876.024841,1704
876.141968,1687
876.259094,1674
876.376282,1716
876.493347,1709
876.610474,1680
876.7276,1613
876.844727,1651
876.961853,1654
877.078918,1662
877.195984,1658
877.313171,1681
877.430237,1672
877.547302,1613
877.664368,1611
877.781433,1625
877.898499,1632
878.015625,1617
878.13269,1590
878.249695,1601
878.366821,1573
878.483887,1592
878.600952,1604
878.717957,1564
878.834961,1555
878.952087,1560
879.069092,1587
879.186157,1565
879.303162,1591
879.420227,1572
879.537231,1560
879.654236,1504
879.77124,1566
879.888306,1518
880.005249,1509
880.122314,1497
880.239319,1555
880.356323,1503
880.473328,1534
880.590271,1526
880.707275,1512
880.824341,1520
880.941284,1533
881.058228,1484
881.175232,1525
881.292236,1501
881.40918,1513
881.526123,1507
881.643066,1461
881.760071,1500
881.877014,1536
881.993958,1480
882.11084,1504
882.227783,1479
882.344727,1467
882.46167,1499
882.578613,1469
882.695618,1502
882.812439,1523
882.929382,1500
883.046326,1546
883.163208,1517
883.280151,1520
883.397034,1500
883.513916,1544
883.630798,1511
883.747742,1541
883.864563,1545
883.981506,1603
884.098389,1582
884.21521,1617
884.332153,1655
884.448975,1615
884.565796,1670
884.682678,1723
884.7995,1758
884.916443,1795
885.033264,1912
885.150085,2003
885.266968,1976
885.383789,2088
885.500671,2084
885.617493,2086
885.734314,2104
885.851196,2131
885.967896,2133
886.084717,2120
886.201599,2078
886.318359,2036
886.435181,1978
886.552002,2047
886.668762,1997
886.785645,1950
886.902344,1938
887.019165,1929
887.135925,1936
887.252747,1859
887.369446,1833
887.486267,1818
887.603027,1772
887.719788,1769
887.836548,1756
887.953247,1686
888.070068,1647
888.186829,1677
888.303528,1637
888.420288,1576
888.536987,1569
888.653687,1550
888.770447,1504
888.887146,1454
889.003967,1476
889.120667,1451
889.237305,1480
889.354065,1446
889.470703,1466
889.587463,1469
889.704163,1433
889.820862,1451
889.937561,1466
890.054199,1456
890.170837,1431
890.287598,1416
890.404236,1429
890.520874,1426
890.637634,1452
890.754211,1438
890.87085,1463
890.987549,1443
891.104187,1452
891.220886,1466
891.337463,1454
891.454102,1455
891.57074,1483
891.687378,1474
891.804077,1476
891.920654,1460
892.037231,1502
892.15387,1495
892.270447,1456
892.387085,1486
892.503723,1466
892.6203,1466
892.736877,1466
892.853516,1457
892.970032,1500
893.08667,1435
893.203186,1456
893.319763,1416
893.43634,1485
893.552917,1437
893.669556,1454
893.786011,1430
893.902588,1457
894.019165,1417
894.135681,1418
894.252197,1481
894.368835,1489
894.485291,1450
894.601868,1507
894.718384,1460
894.8349,1445
894.951355,1507
895.067932,1447
895.184448,1407
895.300964,1468
895.417419,1440
895.533936,1443
895.650452,1483
895.766907,1393
895.883423,1459
895.999878,1444
896.116333,1448
896.232849,1441
896.349304,1421
896.465759,1442
896.582214,1455
896.698669,1406
896.815125,1438
896.931641,1448
897.048035,1429
897.164551,1467
897.280884,1439
897.397339,1448
897.513794,1443
897.630249,1455
897.746582,1461
897.863098,1476
897.979431,1435
898.095886,1440
898.212341,1461
898.328674,1485
898.445129,1463
898.561462,1505
898.677795,1481
898.794312,1498
898.910645,1463
899.026978,1452
899.143433,1487
899.259766,1438
899.37616,1450
899.492493,1499
899.608765,1452
899.725159,1513
899.841553,1473
899.957947,1471
900.07428,1496
900.190552,1472
900.306946,1463
900.423157,1477
900.53949,1487
900.655884,1457
900.772156,1484
900.888489,1491
901.004822,1479
901.121033,1500
901.237366,1494
901.353699,1509
901.46991,1507
901.586304,1546
901.702515,1556
901.818787,1601
901.93512,1572
902.051331,1602
902.167603,1614
902.283875,1676
902.400085,1688
902.516418,1728
902.632629,1732
902.74884,1820
902.865112,1773
902.981384,1806
903.097595,1793
903.213867,1792
903.330017,1753
903.446289,1728
903.5625,1729
903.67865,1721
903.794922,1682
903.911072,1659
904.027344,1643
904.143494,1634
904.259705,1669
904.375916,1630
904.492065,1556
904.608215,1574
904.724426,1570
904.840576,1556
904.956726,1556
905.072876,1563
905.189087,1506
905.305176,1480
905.421387,1459
905.537537,1444
905.653687,1466
905.769775,1477
905.885925,1504
906.002014,1486
906.118164,1454
906.234314,1466
906.350403,1449
906.466492,1472
906.582642,1425
906.69873,1465
906.814758,1467
906.930908,1431
907.046936,1408
907.163086,1431
907.279175,1448
907.395264,1433
907.511353,1434
907.62738,1468
907.743408,1463
907.859497,1430
907.975525,1432
908.091553,1475
908.207703,1423
908.32373,1457
908.439758,1443
908.555786,1407
908.671814,1457
908.787842,1440
908.90387,1439
909.019775,1492
909.135864,1454
909.251892,1448
909.367859,1488
909.483826,1496
909.599854,1481
909.715881,1462
909.831848,1427
909.947815,1489
910.063782,1479
910.179749,1467
910.295776,1459
910.411743,1479
910.527649,1438
910.643616,1478
910.759583,1469
910.875488,1490
910.991455,1431
911.107361,1460
911.223267,1410
911.339294,1422
911.4552,1385
911.571106,1458
911.687073,1459
911.802979,1450
911.918823,1460
912.034729,1417
912.150635,1443
912.266602,1461
912.382446,1422
912.498352,1410
912.614197,1422
912.730103,1405
912.846008,1467
792.44574,4859
792.56488,4750
792.68396,4674
792.80304,4460
792.92218,4331
793.041199,4191
793.160339,4073
793.279419,3940
793.398499,3894
793.517578,3886
793.636658,3707
793.755737,3699
793.874817,3587
793.993896,3455
794.112976,3454
794.232056,3350
794.351074,3308
794.470215,3215
794.589233,3216
794.708313,3129
794.827393,3083
794.946411,3072
795.065552,3049
795.18457,3052
795.303589,3027
795.422668,2904
795.541687,2942
795.660767,2805
795.779846,2786
795.898865,2768
796.017883,2736
796.136963,2674
796.255981,2672
796.375061,2666
796.49408,2601
796.613037,2626
796.732117,2526
796.851135,2563
796.970154,2533
797.089233,2509
797.208191,2418
797.327271,2439
797.446228,2448
797.565186,2405
797.684265,2445
797.803223,2382
797.922241,2379
798.04126,2359
798.160278,2327
798.279297,2342
798.398315,2325
798.517273,2293
798.636292,2329
798.75531,2293
798.874268,2278
798.993286,2248
799.112244,2226
799.231323,2295
799.350281,2264
799.469238,2204
799.588257,2299
799.707153,2215
799.826111,2271
799.945129,2179
800.064087,2246
800.183044,2179
800.302063,2198
800.421021,2169
800.539978,2185
800.658936,2171
800.777893,2140
800.896912,2145
801.015747,2138
801.134705,2088
801.253723,2105
801.37262,2119
801.491638,2096
801.610535,2087
801.729492,2105
801.84845,2073
801.967407,2034
802.086243,2063
802.205261,2102
802.324158,2076
802.443115,2036
802.562073,2086
802.680969,2102
802.799927,2083
802.918762,2002
803.037659,2003
803.156677,1999
803.275574,2017
803.39447,1997
803.513428,1982
803.632263,1996
803.751221,1995
803.870117,1960
803.989014,1973
804.107971,1977
804.226746,2014
804.345642,1942
804.4646,1974
804.583496,1988
804.702393,1969
804.821228,1983
804.940125,1910
805.059021,1941
805.177917,1914
805.296814,1936
805.415649,1938
805.534546,1997
805.653442,1914
805.772278,1893
805.891113,1932
806.01001,1923
806.128906,1969
806.247742,1878
806.366577,1900
806.485413,1933
806.604309,1922
806.723145,1928
806.84198,1850
806.960876,1904
807.079712,1903
807.198486,1892
807.317383,1901
807.436218,1892
807.554993,1880
807.673889,1869
807.792725,1918
807.91156,1846
808.030396,1835
808.14917,1872
808.268005,1844
808.386841,1893
808.505676,1863
808.624451,1874
808.743286,1823
808.862122,1890
808.980896,1883
809.099731,1841
809.218506,1842
809.337341,1833
809.456116,1871
809.57489,1897
809.693726,1826
809.8125,1834
809.931274,1844
810.050049,1843
810.168884,1860
810.287659,1791
810.406372,1830
810.525269,1836
810.643982,1806
810.762756,1826
810.881531,1863
811.000305,1812
811.11908,1839
811.237854,1888
811.356567,1854
811.475403,1841
811.594116,1825
811.71283,1882
811.831604,1915
811.950378,1878
812.069153,1903
812.187927,1912
812.30658,1852
812.425415,1858
812.544128,1886
812.662781,1885
812.781616,1876
812.900269,1887
813.019043,1847
813.137756,1831
813.256531,1863
813.375244,1832
813.493896,1882
813.612671,1874
813.731384,1795
813.850037,1799
813.96875,1784
814.087524,1844
814.206238,1804
814.324951,1801
814.443604,1855
814.562256,1769
814.68103,1840
814.799683,1827
814.918335,1841
815.037109,1871
815.155762,1812
815.274475,1808
815.393188,1769
815.511841,1754
815.630554,1752
815.749146,1790
815.867859,1761
815.986572,1814
816.105164,1776
816.223877,1765
816.342529,1784
816.461182,1797
816.579895,1806
816.698486,1786
816.817139,1778
816.935791,1837
817.054504,1823
817.173096,1816
817.291748,1778
817.4104,1830
817.529053,1773
817.647644,1757
817.766235,1797
817.884949,1754
818.00354,1725
818.122192,1770
818.240845,1737
818.359436,1670
818.478088,1708
818.59668,1693
818.715271,1697
818.833923,1695
818.952515,1694
819.071106,1629
819.189758,1658
819.30835,1616
819.426941,1604
819.545532,1643
819.664124,1626
819.782715,1606
819.901306,1626
820.019897,1614
820.138489,1590
820.25708,1614
820.375671,1629
820.494202,1612
820.612732,1646
820.731384,1645
820.849915,1604
820.968506,1566
821.087097,1583
821.205627,1531
821.324158,1561
821.442749,1557
821.561279,1570
821.679871,1533
821.798401,1541
821.916931,1586
822.035461,1541
822.154053,1563
822.272583,1549
822.391174,1603
822.509583,1567
822.628174,1569
822.746704,1523
822.865234,1573
822.983765,1569
823.102295,1535
823.220825,1526
823.339294,1527
823.457825,1537
823.576355,1548
823.694824,1555
823.813354,1581
823.931885,1570
824.050354,1498
824.168884,1568
824.287354,1608
824.405823,1547
824.524353,1537
824.642822,1566
824.761353,1567
824.879822,1542
824.998291,1541
825.116699,1594
825.235291,1587
825.353699,1538
825.472168,1559
825.590637,1522
825.709106,1556
825.827576,1531
825.946045,1494
826.064453,1539
826.182983,1554
826.301392,1481
826.4198,1488
826.53833,1496
826.656738,1502
826.775208,1539
826.893677,1485
827.012024,1484
827.130493,1504
827.248962,1561
827.36731,1532
827.485779,1512
827.604248,1553
827.722595,1488
827.841064,1499
827.959412,1495
828.077942,1481
828.196289,1465
828.314636,1495
828.433105,1485
828.551514,1498
828.669861,1491
828.78833,1492
828.906677,1481
829.025085,1492
829.143433,1490
829.261841,1456
829.38031,1474
829.498657,1483
829.617004,1476
829.735413,1466
829.85376,1442
829.972107,1498
830.090515,1518
830.208862,1477
830.327209,1443
830.445557,1459
830.563904,1499
830.682312,1487
830.800659,1499
830.919006,1485
831.037354,1526
831.155701,1562
831.274048,1573
831.392395,1560
831.51062,1553
831.629028,1552
831.747314,1540
831.865662,1544
831.984009,1467
832.102356,1528
832.220642,1516
832.338928,1565
832.457275,1566
832.575623,1509
832.693909,1524
832.812134,1576
832.930481,1512
833.048828,1514
833.167114,1552
833.2854,1527
833.403687,1498
833.521973,1534
833.640259,1492
833.758545,1530
833.876831,1509
833.995056,1559
834.113281,1510
834.231628,1487
834.349915,1539
834.468201,1517
834.586426,1537
834.704651,1501
834.822998,1525
834.941162,1510
835.059448,1510
835.177673,1500
835.295959,1519
835.414246,1529
835.53241,1544
835.650635,1530
835.768921,1511
835.887146,1514
836.005371,1505
836.123596,1517
836.241821,1508
836.360046,1485
836.478271,1497
836.596497,1479
836.714722,1479
836.832886,1489
836.95105,1459
837.069336,1507
837.1875,1470
837.305725,1496
837.423889,1446
837.542053,1487
837.660339,1504
837.778503,1521
837.896667,1498
838.014832,1498
838.132996,1537
838.25116,1493
838.369385,1510
838.487488,1525
838.605713,1545
838.723877,1562
838.84198,1524
838.960205,1560
839.078308,1572
839.196472,1567
839.314636,1543
839.4328,1554
839.550964,1579
839.669067,1561
839.787231,1555
839.905396,1613
840.023499,1573
840.141602,1602
840.259766,1648
840.377869,1649
840.495972,1630
840.614136,1673
840.732239,1651
840.850342,1679
840.968445,1696
841.086548,1677
841.204651,1615
841.322754,1627
841.440918,1743
841.55896,1690
841.677002,1693
841.795166,1684
841.913208,1735
842.031311,1686
842.149353,1694
842.267456,1694
842.385498,1692
842.503601,1639
842.621643,1689
842.739746,1669
842.857788,1677
842.97583,1644
843.093933,1654
843.211975,1684
843.330017,1684
843.44812,1692
843.566101,1706
843.684204,1693
843.802246,1684
843.920227,1709
844.038269,1671
844.156311,1651
844.274292,1627
844.392395,1676
844.510376,1676
844.628357,1657
844.74646,1613
844.864441,1625
844.982422,1616
845.100403,1643
845.218384,1642
845.336426,1626
845.454468,1596
845.572449,1625
845.69043,1590
845.808411,1576
845.926453,1600
846.044373,1615
846.162354,1641
846.280396,1583
846.398315,1656
846.516296,1591
846.634216,1646
846.752197,1627
846.870178,1609
846.988098,1652
847.106079,1647
847.22406,1613
847.34198,1652
847.4599,1629
847.577881,1620
847.695801,1678
847.813782,1644
847.931641,1619
848.049561,1616
848.167603,1603
848.285461,1616
848.403381,1647
848.521362,1623
848.639221,1560
848.75708,1591
848.875,1649
848.99292,1666
849.110901,1651
849.22876,1637
849.34668,1696
849.464539,1665
849.582458,1631
849.700317,1645
849.818176,1650
849.936096,1645
850.053955,1628
850.171875,1661
850.289673,1637
850.407593,1625
850.525452,1645
850.643311,1675
850.761169,1656
850.878967,1627
850.996887,1663
851.114746,1645
851.232544,1584
851.350403,1564
851.468262,1630
851.58606,1657
851.703979,1619
851.821777,1641
851.939636,1630
852.057434,1658
852.175232,1580
852.293091,1631
852.410889,1724
852.528687,1758
852.646545,1807
852.764343,1823
852.88208,1766
852.999939,1780
853.117676,1711
853.235535,1720
853.353271,1687
853.471069,1649
853.588928,1586
853.706604,1643
853.824402,1661
853.9422,1632
854.059998,1628
854.177734,1685
854.295532,1689
854.413269,1664
854.531006,1712
854.648804,1694
854.766541,1660
854.884277,1702
855.002014,1693
855.119751,1648
855.237549,1667
855.355225,1667
855.473022,1634
855.590698,1660
855.708435,1710
855.826172,1613
855.943848,1679
856.061646,1649
856.179321,1713
856.296997,1712
856.414795,1681
856.53241,1723
856.650085,1688
856.767822,1747
856.885559,1760
857.003174,1793
857.120911,1739
857.238586,1733
857.356201,1733
857.473938,1739
857.591614,1713
857.709351,1675
857.826965,1697
857.944641,1682
858.062317,1730
858.179993,1686
858.297668,1716
858.415283,1689
858.532959,1742
858.650574,1735
858.768188,1765
858.885803,1727
859.003479,1696
859.121094,1692
859.23877,1705
859.356384,1648
859.473999,1682
859.591675,1674
859.709229,1668
859.826843,1666
859.944458,1631
860.062012,1603
860.179626,1562
860.297302,1618
860.414856,1614
860.532471,1570
860.650024,1637
860.767639,1630
860.885193,1655
861.002808,1624
861.120361,1632
861.237976,1628
861.35553,1637
861.473022,1653
861.590698,1693
861.708191,1601
861.825745,1652
861.943298,1650
862.060852,1598
862.178406,1624
862.295959,1613
862.413513,1551
862.531006,1563
862.64856,1551
862.766113,1551
862.883667,1593
863.00116,1557
863.118713,1507
863.236206,1553
863.353699,1536
863.471252,1561
863.588745,1539
863.706177,1578
863.82373,1599
863.941162,1620
864.058716,1630
864.176208,1594
864.29364,1586
864.411194,1556
864.528687,1524
864.646118,1617
864.763611,1565
864.881042,1536
864.998535,1526
865.116028,1526
865.233459,1545
865.350891,1561
865.468384,1573
865.585754,1578
865.703308,1566
865.820679,1520
865.938171,1567
866.055542,1580
866.173035,1518
866.290466,1527
866.407837,1510
866.52533,1551
866.6427,1577
866.760071,1538
866.877563,1560
866.994934,1582
867.112305,1573
867.229736,1567
867.347107,1586
867.464539,1570
867.58197,1618
867.699341,1593
867.81665,1581
867.934082,1572
868.051453,1609
868.168823,1575
868.286194,1594
868.403564,1536
868.520935,1611
868.638306,1584
868.755676,1575
868.872986,1606
868.990295,1637
869.107727,1654
869.225037,1628
869.342346,1630
869.459717,1639
869.577026,1612
869.694336,1644
869.811707,1643
869.929016,1709
870.046326,1676
870.163635,1693
870.280945,1689
870.398254,1694
870.515564,1688
870.632812,1704
870.750183,1714
870.867432,1717
870.984741,1694
871.102051,1750
871.219299,1814
871.336609,1767
871.453918,1774
871.571106,1792
871.688416,1796
871.805664,1788
871.922852,1810
872.040222,1774
872.157471,1811
872.274719,1810
872.391968,1833
872.509155,1757
872.626465,1813
872.743652,1757
872.860962,1785
872.978149,1758
873.095337,1762
873.212646,1771
873.329834,1786
873.44696,1695
873.564209,1737
873.681396,1722
873.798645,1722
873.915894,1684
874.03302,1806
874.150208,1798
874.267456,1761
874.384583,1815
874.501831,1806
874.618958,1796
874.736145,1818
874.853333,1805
874.970459,1799
875.087646,1854
875.204834,1830
875.32196,1780
875.439148,1709
875.556274,1760
875.673401,1763
875.790527,1712
875.907715,1733
876.024841,1649
876.141968,1682
876.259094,1669
876.376282,1681
876.493347,1651
876.610474,1688
876.7276,1629
876.844727,1660
876.961853,1676
877.078918,1678
877.195984,1662
877.313171,1690
877.430237,1631
877.547302,1625
877.664368,1630
877.781433,1634
877.898499,1659
878.015625,1649
878.13269,1631
878.249695,1624
878.366821,1642
878.483887,1606
878.600952,1633
878.717957,1601
878.834961,1618
878.952087,1581
879.069092,1585
879.186157,1607
879.303162,1580
879.420227,1567
879.537231,1591
879.654236,1513
879.77124,1548
879.888306,1535
880.005249,1537
880.122314,1506
880.239319,1539
880.356323,1531
880.473328,1505
880.590271,1493
880.707275,1495
880.824341,1481
880.941284,1519
881.058228,1491
881.175232,1492
881.292236,1519
881.40918,1538
881.526123,1501
881.643066,1523
881.760071,1493
881.877014,1530
881.993958,1509
882.11084,1503
882.227783,1542
882.344727,1495
882.46167,1533
882.578613,1512
882.695618,1489
882.812439,1520
882.929382,1482
883.046326,1516
883.163208,1479
883.280151,1561
883.397034,1540
883.513916,1501
883.630798,1591
883.747742,1552
883.864563,1534
883.981506,1602
884.098389,1607
884.21521,1614
884.332153,1634
884.448975,1657
884.565796,1700
884.682678,1732
884.7995,1801
884.916443,1805
885.033264,1918
885.150085,2005
885.266968,2045
885.383789,2095
885.500671,2132
885.617493,2154
885.734314,2112
885.851196,2112
885.967896,2110
886.084717,2076
886.201599,2067
886.318359,2054
886.435181,2074
886.552002,2036
886.668762,1974
886.785645,1932
886.902344,1890
887.019165,1961
887.135925,1924
887.252747,1901
887.369446,1876
887.486267,1814
887.603027,1851
887.719788,1719
887.836548,1726
887.953247,1689
888.070068,1677
888.186829,1621
888.303528,1643
888.420288,1612
888.536987,1569
888.653687,1539
888.770447,1521
888.887146,1491
889.003967,1536
889.120667,1479
889.237305,1498
889.354065,1421
889.470703,1427
889.587463,1483
889.704163,1456
889.820862,1467
889.937561,1457
890.054199,1437
890.170837,1435
890.287598,1451
890.404236,1463
890.520874,1432
890.637634,1417
890.754211,1430
890.87085,1463
890.987549,1472
891.104187,1499
891.220886,1476
891.337463,1484
891.454102,1481
891.57074,1477
891.687378,1457
891.804077,1464
891.920654,1503
892.037231,1512
892.15387,1493
892.270447,1476
892.387085,1469
892.503723,1479
892.6203,1507
892.736877,1455
892.853516,1477
892.970032,1479
893.08667,1473
893.203186,1455
893.319763,1431
893.43634,1448
893.552917,1438
893.669556,1499
893.786011,1433
893.902588,1477
894.019165,1421
894.135681,1485
894.252197,1484
894.368835,1499
894.485291,1504
894.601868,1485
894.718384,1465
894.8349,1464
894.951355,1453
895.067932,1437
895.184448,1426
895.300964,1440
895.417419,1454
895.533936,1430
895.650452,1471
895.766907,1471
895.883423,1439
895.999878,1451
896.116333,1448
896.232849,1474
896.349304,1489
896.465759,1451
896.582214,1468
896.698669,1429
896.815125,1462
896.931641,1433
897.048035,1454
897.164551,1489
897.280884,1466
897.397339,1410
897.513794,1454
897.630249,1423
897.746582,1412
897.863098,1429
897.979431,1461
898.095886,1439
898.212341,1467
898.328674,1462
898.445129,1527
898.561462,1515
898.677795,1449
898.794312,1495
898.910645,1500
899.026978,1494
899.143433,1505
899.259766,1473
899.37616,1501
899.492493,1452
899.608765,1470
899.725159,1477
899.841553,1506
899.957947,1513
900.07428,1474
900.190552,1523
900.306946,1447
900.423157,1508
900.53949,1484
900.655884,1466
900.772156,1505
900.888489,1520
901.004822,1482
901.121033,1465
901.237366,1509
901.353699,1539
901.46991,1516
901.586304,1520
901.702515,1548
901.818787,1593
901.93512,1609
902.051331,1600
902.167603,1682
902.283875,1698
902.400085,1732
902.516418,1794
902.632629,1757
902.74884,1799
902.865112,1830
902.981384,1853
903.097595,1787
903.213867,1753
903.330017,1844
903.446289,1778
903.5625,1773
903.67865,1730
903.794922,1711
903.911072,1720
904.027344,1682
904.143494,1692
904.259705,1647
904.375916,1630
904.492065,1598
904.608215,1597
904.724426,1540
904.840576,1581
904.956726,1534
905.072876,1570
905.189087,1540
905.305176,1490
905.421387,1469
905.537537,1532
905.653687,1481
905.769775,1512
905.885925,1524
906.002014,1483
906.118164,1482
906.234314,1464
906.350403,1489
906.466492,1478
906.582642,1421
906.69873,1470
906.814758,1470
906.930908,1472
907.046936,1415
907.163086,1477
907.279175,1425
907.395264,1442
907.511353,1464
907.62738,1453
907.743408,1476
907.859497,1424
907.975525,1432
908.091553,1456
908.207703,1418
908.32373,1431
908.439758,1437
908.555786,1452
908.671814,1463
908.787842,1425
908.90387,1453
909.019775,1448
909.135864,1452
909.251892,1481
909.367859,1486
909.483826,1468
909.599854,1450
909.715881,1491
909.831848,1472
909.947815,1453
910.063782,1494
910.179749,1470
910.295776,1502
910.411743,1518
910.527649,1457
910.643616,1477
910.759583,1526
910.875488,1507
910.991455,1446
911.107361,1469
911.223267,1438
911.339294,1431
911.4552,1453
911.571106,1462
911.687073,1443
911.802979,1457
911.918823,1478
912.034729,1464
912.150635,1436
912.266602,1449
912.382446,1482
912.498352,1427
912.614197,1465
912.730103,1414
912.846008,1452
