792.44574,2246
792.56488,2280
792.68396,2205
792.80304,2260
792.92218,2160
793.041199,2145
793.160339,2120
793.279419,2135
793.398499,2035
793.517578,2061
793.636658,2075
793.755737,2057
793.874817,2093
793.993896,2083
794.112976,2037
794.232056,2040
794.351074,2033
794.470215,2023
794.589233,2013
794.708313,1991
794.827393,1976
794.946411,1988
795.065552,1992
795.18457,2005
795.303589,1986
795.422668,1991
795.541687,1961
795.660767,1987
795.779846,1934
795.898865,1933
796.017883,1979
796.136963,1960
796.255981,1968
796.375061,2013
796.49408,1989
796.613037,1933
796.732117,1952
796.851135,1927
796.970154,1901
797.089233,1877
797.208191,1911
797.327271,1947
797.446228,1957
797.565186,1899
797.684265,1922
797.803223,1947
797.922241,1932
798.04126,1912
798.160278,1925
798.279297,1910
798.398315,1925
798.517273,1940
798.636292,1919
798.75531,1913
798.874268,1878
798.993286,1946
799.112244,1888
799.231323,1913
799.350281,1929
799.469238,1893
799.588257,1930
799.707153,1923
799.826111,1951
799.945129,1889
800.064087,1938
800.183044,1867
800.302063,1933
800.421021,1895
800.539978,1945
800.658936,1936
800.777893,1932
800.896912,1931
801.015747,1939
801.134705,1882
801.253723,1906
801.37262,1907
801.491638,1899
801.610535,1919
801.729492,1908
801.84845,1908
801.967407,1960
802.086243,1971
802.205261,1941
802.324158,1912
802.443115,1952
802.562073,1937
802.680969,1966
802.799927,1941
802.918762,1998
803.037659,2008
803.156677,1993
803.275574,2001
803.39447,2009
803.513428,1949
803.632263,1994
803.751221,1973
803.870117,2003
803.989014,2009
804.107971,1993
804.226746,1964
804.345642,1968
804.4646,2020
804.583496,2006
804.702393,2023
804.821228,1984
804.940125,2046
805.059021,2015
805.177917,2027
805.296814,2044
805.415649,2090
805.534546,2047
805.653442,2058
805.772278,2084
805.891113,2057
806.01001,2130
806.128906,2042
806.247742,2082
806.366577,2025
806.485413,2046
806.604309,2097
806.723145,2083
806.84198,2098
806.960876,2091
807.079712,2104
807.198486,2096
807.317383,2108
807.436218,2086
807.554993,2033
807.673889,2084
807.792725,2070
807.91156,2115
808.030396,2112
808.14917,2078
808.268005,2047
808.386841,2150
808.505676,2091
808.624451,2120
808.743286,2132
808.862122,2087
808.980896,2102
809.099731,2090
809.218506,2137
809.337341,2130
809.456116,2098
809.57489,2107
809.693726,2134
809.8125,2123
809.931274,2183
810.050049,2156
810.168884,2138
810.287659,2152
810.406372,2136
810.525269,2134
810.643982,2147
810.762756,2111
810.881531,2134
811.000305,2151
811.11908,2141
811.237854,2164
811.356567,2157
811.475403,2166
811.594116,2179
811.71283,2139
811.831604,2135
811.950378,2171
812.069153,2116
812.187927,2150
812.30658,2177
812.425415,2157
812.544128,2157
812.662781,2178
812.781616,2125
812.900269,2131
813.019043,2180
813.137756,2139
813.256531,2160
813.375244,2181
813.493896,2141
813.612671,2113
813.731384,2139
813.850037,2206
813.96875,2156
814.087524,2147
814.206238,2135
814.324951,2161
814.443604,2125
814.562256,2124
814.68103,2109
814.799683,2164
814.918335,2099
815.037109,2136
815.155762,2145
815.274475,2074
815.393188,2073
815.511841,2084
815.630554,2099
815.749146,2037
815.867859,2085
815.986572,2008
816.105164,2059
816.223877,2060
816.342529,2036
816.461182,2063
816.579895,2045
816.698486,2082
816.817139,2079
816.935791,2087
817.054504,2115
817.173096,2104
817.291748,2032
817.4104,2026
817.529053,1994
817.647644,1970
817.766235,1951
817.884949,1913
818.00354,1874
818.122192,1884
818.240845,1851
818.359436,1742
818.478088,1749
818.59668,1780
818.715271,1682
818.833923,1720
818.952515,1621
819.071106,1611
819.189758,1573
819.30835,1560
819.426941,1585
819.545532,1608
819.664124,1569
819.782715,1581
819.901306,1560
820.019897,1537
820.138489,1538
820.25708,1494
820.375671,1508
820.494202,1509
820.612732,1474
820.731384,1522
820.849915,1481
820.968506,1486
821.087097,1475
821.205627,1496
821.324158,1504
821.442749,1480
821.561279,1448
821.679871,1419
821.798401,1470
821.916931,1461
822.035461,1416
822.154053,1475
822.272583,1485
822.391174,1453
822.509583,1511
822.628174,1449
822.746704,1446
822.865234,1445
822.983765,1432
823.102295,1431
823.220825,1411
823.339294,1442
823.457825,1438
823.576355,1471
823.694824,1434
823.813354,1424
823.931885,1467
824.050354,1466
824.168884,1480
824.287354,1470
824.405823,1455
824.524353,1425
824.642822,1465
824.761353,1441
824.879822,1495
824.998291,1400
825.116699,1444
825.235291,1447
825.353699,1454
825.472168,1436
825.590637,1439
825.709106,1448
825.827576,1433
825.946045,1431
826.064453,1393
826.182983,1349
826.301392,1401
826.4198,1392
826.53833,1411
826.656738,1421
826.775208,1366
826.893677,1388
827.012024,1354
827.130493,1376
827.248962,1370
827.36731,1364
827.485779,1405
827.604248,1366
827.722595,1365
827.841064,1340
827.959412,1362
828.077942,1349
828.196289,1362
828.314636,1327
828.433105,1370
828.551514,1344
828.669861,1339
828.78833,1338
828.906677,1336
829.025085,1293
829.143433,1336
829.261841,1353
829.38031,1331
829.498657,1366
829.617004,1330
829.735413,1312
829.85376,1286
829.972107,1302
830.090515,1331
830.208862,1338
830.327209,1299
830.445557,1303
830.563904,1334
830.682312,1319
830.800659,1363
830.919006,1293
831.037354,1336
831.155701,1326
831.274048,1298
831.392395,1342
831.51062,1335
831.629028,1328
831.747314,1322
831.865662,1309
831.984009,1357
832.102356,1308
832.220642,1362
832.338928,1302
832.457275,1290
832.575623,1289
832.693909,1343
832.812134,1326
832.930481,1288
833.048828,1333
833.167114,1336
833.2854,1346
833.403687,1365
833.521973,1302
833.640259,1298
833.758545,1310
833.876831,1287
833.995056,1303
834.113281,1362
834.231628,1326
834.349915,1321
834.468201,1328
834.586426,1318
834.704651,1332
834.822998,1342
834.941162,1309
835.059448,1348
835.177673,1355
835.295959,1345
835.414246,1370
835.53241,1321
835.650635,1341
835.768921,1317
835.887146,1304
836.005371,1377
836.123596,1314
836.241821,1338
836.360046,1359
836.478271,1328
836.596497,1404
836.714722,1354
836.832886,1425
836.95105,1401
837.069336,1417
837.1875,1415
837.305725,1410
837.423889,1419
837.542053,1425
837.660339,1395
837.778503,1413
837.896667,1417
838.014832,1402
838.132996,1387
838.25116,1436
838.369385,1360
838.487488,1410
838.605713,1425
838.723877,1442
838.84198,1420
838.960205,1369
839.078308,1399
839.196472,1364
839.314636,1402
839.4328,1397
839.550964,1358
839.669067,1372
839.787231,1385
839.905396,1379
840.023499,1391
840.141602,1406
840.259766,1375
840.377869,1369
840.495972,1362
840.614136,1380
840.732239,1314
840.850342,1343
840.968445,1355
841.086548,1359
841.204651,1365
841.322754,1335
841.440918,1353
841.55896,1340
841.677002,1336
841.795166,1311
841.913208,1346
842.031311,1352
842.149353,1319
842.267456,1333
842.385498,1311
842.503601,1307
842.621643,1306
842.739746,1330
842.857788,1285
842.97583,1309
843.093933,1303
843.211975,1302
843.330017,1288
843.44812,1306
843.566101,1273
843.684204,1289
843.802246,1278
843.920227,1287
844.038269,1270
844.156311,1263
844.274292,1298
844.392395,1330
844.510376,1312
844.628357,1297
844.74646,1294
844.864441,1296
844.982422,1262
845.100403,1268
845.218384,1306
845.336426,1267
845.454468,1314
845.572449,1298
845.69043,1272
845.808411,1245
845.926453,1255
846.044373,1266
846.162354,1259
846.280396,1298
846.398315,1279
846.516296,1277
846.634216,1291
846.752197,1298
846.870178,1282
846.988098,1248
847.106079,1253
847.22406,1254
847.34198,1280
847.4599,1259
847.577881,1287
847.695801,1268
847.813782,1271
847.931641,1247
848.049561,1281
848.167603,1258
848.285461,1254
848.403381,1279
848.521362,1265
848.639221,1284
848.75708,1294
848.875,1293
848.99292,1277
849.110901,1274
849.22876,1286
849.34668,1305
849.464539,1256
849.582458,1265
849.700317,1282
849.818176,1243
849.936096,1254
850.053955,1266
850.171875,1287
850.289673,1265
850.407593,1272
850.525452,1260
850.643311,1228
850.761169,1270
850.878967,1281
850.996887,1282
851.114746,1275
851.232544,1292
851.350403,1294
851.468262,1288
851.58606,1268
851.703979,1294
851.821777,1291
851.939636,1276
852.057434,1292
852.175232,1278
852.293091,1283
852.410889,1288
852.528687,1314
852.646545,1301
852.764343,1314
852.88208,1306
852.999939,1287
853.117676,1294
853.235535,1326
853.353271,1279
853.471069,1312
853.588928,1297
853.706604,1263
853.824402,1304
853.9422,1288
854.059998,1272
854.177734,1336
854.295532,1277
854.413269,1329
854.531006,1317
854.648804,1300
854.766541,1296
854.884277,1296
855.002014,1315
855.119751,1285
855.237549,1338
855.355225,1314
855.473022,1303
855.590698,1296
855.708435,1336
855.826172,1309
855.943848,1317
856.061646,1306
856.179321,1318
856.296997,1312
856.414795,1355
856.53241,1310
856.650085,1321
856.767822,1307
856.885559,1315
857.003174,1300
857.120911,1293
857.238586,1287
857.356201,1318
857.473938,1300
857.591614,1364
857.709351,1291
857.826965,1311
857.944641,1339
858.062317,1283
858.179993,1304
858.297668,1332
858.415283,1335
858.532959,1309
858.650574,1303
858.768188,1302
858.885803,1325
859.003479,1290
859.121094,1296
859.23877,1284
859.356384,1367
859.473999,1300
859.591675,1311
859.709229,1292
859.826843,1293
859.944458,1307
860.062012,1255
860.179626,1294
860.297302,1285
860.414856,1299
860.532471,1313
860.650024,1285
860.767639,1320
860.885193,1317
861.002808,1289
861.120361,1307
861.237976,1282
861.35553,1311
861.473022,1270
861.590698,1268
861.708191,1293
861.825745,1257
861.943298,1308
862.060852,1279
862.178406,1284
862.295959,1294
862.413513,1285
862.531006,1258
862.64856,1283
862.766113,1294
862.883667,1261
863.00116,1275
863.118713,1319
863.236206,1283
863.353699,1291
863.471252,1283
863.588745,1313
863.706177,1271
863.82373,1296
863.941162,1259
864.058716,1309
864.176208,1279
864.29364,1251
864.411194,1317
864.528687,1267
864.646118,1327
864.763611,1270
864.881042,1276
864.998535,1260
865.116028,1286
865.233459,1318
865.350891,1303
865.468384,1306
865.585754,1337
865.703308,1313
865.820679,1311
865.938171,1298
866.055542,1315
866.173035,1306
866.290466,1296
866.407837,1313
866.52533,1287
866.6427,1292
866.760071,1310
866.877563,1285
866.994934,1308
867.112305,1294
867.229736,1287
867.347107,1298
867.464539,1309
867.58197,1319
867.699341,1302
867.81665,1302
867.934082,1345
868.051453,1292
868.168823,1326
868.286194,1336
868.403564,1305
868.520935,1300
868.638306,1285
868.755676,1322
868.872986,1318
868.990295,1318
869.107727,1323
869.225037,1348
869.342346,1306
869.459717,1266
869.577026,1282
869.694336,1293
869.811707,1298
869.929016,1308
870.046326,1297
870.163635,1311
870.280945,1283
870.398254,1270
870.515564,1290
870.632812,1322
870.750183,1263
870.867432,1313
870.984741,1281
871.102051,1288
871.219299,1311
871.336609,1333
871.453918,1315
871.571106,1306
871.688416,1319
871.805664,1309
871.922852,1277
872.040222,1357
872.157471,1309
872.274719,1333
872.391968,1313
872.509155,1287
872.626465,1286
872.743652,1291
872.860962,1280
872.978149,1306
873.095337,1309
873.212646,1271
873.329834,1292
873.44696,1316
873.564209,1297
873.681396,1323
873.798645,1294
873.915894,1304
874.03302,1295
874.150208,1343
874.267456,1338
874.384583,1292
874.501831,1295
874.618958,1280
874.736145,1336
874.853333,1301
874.970459,1303
875.087646,1316
875.204834,1332
875.32196,1327
875.439148,1291
875.556274,1338
875.673401,1263
875.790527,1328
875.907715,1272
876.024841,1301
876.141968,1320
876.259094,1344
876.376282,1294
876.493347,1331
876.610474,1289
876.7276,1332
876.844727,1320
876.961853,1319
877.078918,1352
877.195984,1334
877.313171,1300
877.430237,1278
877.547302,1336
877.664368,1299
877.781433,1338
877.898499,1294
878.015625,1296
878.13269,1298
878.249695,1326
878.366821,1313
878.483887,1309
878.600952,1308
878.717957,1306
878.834961,1315
878.952087,1305
879.069092,1310
879.186157,1314
879.303162,1308
879.420227,1316
879.537231,1348
879.654236,1291
879.77124,1301
879.888306,1310
880.005249,1289
880.122314,1292
880.239319,1329
880.356323,1308
880.473328,1310
880.590271,1300
880.707275,1328
880.824341,1282
880.941284,1299
881.058228,1287
881.175232,1326
881.292236,1304
881.40918,1316
881.526123,1308
881.643066,1332
881.760071,1302
881.877014,1325
881.993958,1322
882.11084,1336
882.227783,1302
882.344727,1289
882.46167,1304
882.578613,1326
882.695618,1357
882.812439,1334
882.929382,1358
883.046326,1319
883.163208,1315
883.280151,1273
883.397034,1320
883.513916,1292
883.630798,1314
883.747742,1368
883.864563,1283
883.981506,1306
884.098389,1315
884.21521,1323
884.332153,1332
884.448975,1327
884.565796,1346
884.682678,1313
884.7995,1313
884.916443,1326
885.033264,1328
885.150085,1286
885.266968,1336
885.383789,1379
885.500671,1352
885.617493,1315
885.734314,1377
885.851196,1356
885.967896,1326
886.084717,1322
886.201599,1356
886.318359,1324
886.435181,1337
886.552002,1348
886.668762,1320
886.785645,1356
886.902344,1317
887.019165,1316
887.135925,1330
887.252747,1360
887.369446,1369
887.486267,1391
887.603027,1311
887.719788,1314
887.836548,1333
887.953247,1372
888.070068,1308
888.186829,1333
888.303528,1337
888.420288,1343
888.536987,1299
888.653687,1353
888.770447,1323
888.887146,1352
889.003967,1359
889.120667,1347
889.237305,1317
889.354065,1363
889.470703,1340
889.587463,1329
889.704163,1310
889.820862,1297
889.937561,1366
890.054199,1371
890.170837,1367
890.287598,1356
890.404236,1368
890.520874,1309
890.637634,1342
890.754211,1352
890.87085,1379
890.987549,1362
891.104187,1317
891.220886,1388
891.337463,1329
891.454102,1327
891.57074,1342
891.687378,1344
891.804077,1366
891.920654,1378
892.037231,1337
892.15387,1363
892.270447,1340
892.387085,1342
892.503723,1332
892.6203,1319
892.736877,1340
892.853516,1347
892.970032,1397
893.08667,1347
893.203186,1377
893.319763,1368
893.43634,1383
893.552917,1385
893.669556,1345
893.786011,1308
893.902588,1348
894.019165,1314
894.135681,1393
894.252197,1371
894.368835,1348
894.485291,1386
894.601868,1337
894.718384,1380
894.8349,1326
894.951355,1341
895.067932,1342
895.184448,1362
895.300964,1340
895.417419,1401
895.533936,1329
895.650452,1360
895.766907,1367
895.883423,1362
895.999878,1322
896.116333,1367
896.232849,1356
896.349304,1369
896.465759,1357
896.582214,1365
896.698669,1383
896.815125,1388
896.931641,1349
897.048035,1363
897.164551,1340
897.280884,1375
897.397339,1347
897.513794,1364
897.630249,1385
897.746582,1358
897.863098,1404
897.979431,1326
898.095886,1348
898.212341,1380
898.328674,1411
898.445129,1345
898.561462,1342
898.677795,1423
898.794312,1402
898.910645,1368
899.026978,1343
899.143433,1385
899.259766,1299
899.37616,1364
899.492493,1344
899.608765,1415
899.725159,1375
899.841553,1392
899.957947,1369
900.07428,1344
900.190552,1344
900.306946,1372
900.423157,1346
900.53949,1370
900.655884,1336
900.772156,1336
900.888489,1388
901.004822,1372
901.121033,1334
901.237366,1396
901.353699,1406
901.46991,1373
901.586304,1369
901.702515,1412
901.818787,1389
901.93512,1381
902.051331,1413
902.167603,1383
902.283875,1388
902.400085,1412
902.516418,1385
902.632629,1394
902.74884,1414
902.865112,1413
902.981384,1359
903.097595,1441
903.213867,1400
903.330017,1387
903.446289,1447
903.5625,1426
903.67865,1425
903.794922,1378
903.911072,1435
904.027344,1398
904.143494,1416
904.259705,1363
904.375916,1388
904.492065,1379
904.608215,1409
904.724426,1393
904.840576,1359
904.956726,1419
905.072876,1398
905.189087,1397
905.305176,1370
905.421387,1414
905.537537,1389
905.653687,1398
905.769775,1392
905.885925,1387
906.002014,1384
906.118164,1398
906.234314,1401
906.350403,1393
906.466492,1378
906.582642,1368
906.69873,1395
906.814758,1395
906.930908,1379
907.046936,1341
907.163086,1410
907.279175,1366
907.395264,1401
907.511353,1360
907.62738,1421
907.743408,1381
907.859497,1392
907.975525,1363
908.091553,1435
908.207703,1395
908.32373,1425
908.439758,1420
908.555786,1428
908.671814,1389
908.787842,1428
908.90387,1425
909.019775,1355
909.135864,1413
909.251892,1389
909.367859,1398
909.483826,1393
909.599854,1397
909.715881,1407
909.831848,1399
909.947815,1386
910.063782,1411
910.179749,1382
910.295776,1447
910.411743,1382
910.527649,1402
910.643616,1414
910.759583,1344
910.875488,1394
910.991455,1377
911.107361,1410
911.223267,1411
911.339294,1401
911.4552,1383
911.571106,1411
911.687073,1395
911.802979,1417
911.918823,1365
912.034729,1370
912.150635,1434
912.266602,1425
912.382446,1424
912.498352,1403
912.614197,1401
912.730103,1419
912.846008,1377
792.44574,2241
792.56488,2231
792.68396,2231
792.80304,2228
792.92218,2202
793.041199,2098
793.160339,2147
793.279419,2174
793.398499,2155
793.517578,2134
793.636658,2078
793.755737,2098
793.874817,2092
793.993896,2109
794.112976,2084
794.232056,2059
794.351074,2117
794.470215,2018
794.589233,2054
794.708313,2064
794.827393,2079
794.946411,2034
795.065552,2039
795.18457,1997
795.303589,2031
795.422668,1992
795.541687,2013
795.660767,1963
795.779846,2017
795.898865,2000
796.017883,1984
796.136963,2005
796.255981,1969
796.375061,1935
796.49408,2030
796.613037,1947
796.732117,1975
796.851135,1977
796.970154,1980
797.089233,2035
797.208191,1938
797.327271,1961
797.446228,1975
797.565186,1919
797.684265,1952
797.803223,1947
797.922241,1943
798.04126,1919
798.160278,1946
798.279297,1978
798.398315,1923
798.517273,1978
798.636292,1902
798.75531,1950
798.874268,1975
798.993286,1952
799.112244,1953
799.231323,1919
799.350281,1923
799.469238,1989
799.588257,1924
799.707153,1977
799.826111,1984
799.945129,1922
800.064087,1959
800.183044,1908
800.302063,1935
800.421021,1980
800.539978,1937
800.658936,1957
800.777893,1992
800.896912,1929
801.015747,1983
801.134705,1907
801.253723,1969
801.37262,1973
801.491638,1953
801.610535,1938
801.729492,1954
801.84845,1985
801.967407,1953
802.086243,1993
802.205261,2031
802.324158,2021
802.443115,2045
802.562073,1990
802.680969,2011
802.799927,2027
802.918762,2059
803.037659,2030
803.156677,2032
803.275574,2009
803.39447,2049
803.513428,1993
803.632263,2022
803.751221,1983
803.870117,2059
803.989014,1998
804.107971,2047
804.226746,2070
804.345642,2080
804.4646,2058
804.583496,2086
804.702393,2065
804.821228,2070
804.940125,2103
805.059021,2032
805.177917,2058
805.296814,2007
805.415649,2100
805.534546,2100
805.653442,2153
805.772278,2091
805.891113,2020
806.01001,2093
806.128906,2100
806.247742,2108
806.366577,2096
806.485413,2135
806.604309,2123
806.723145,2113
806.84198,2136
806.960876,2098
807.079712,2149
807.198486,2127
807.317383,2090
807.436218,2124
807.554993,2111
807.673889,2165
807.792725,2103
807.91156,2115
808.030396,2157
808.14917,2149
808.268005,2113
808.386841,2146
808.505676,2171
808.624451,2124
808.743286,2149
808.862122,2166
808.980896,2212
809.099731,2177
809.218506,2209
809.337341,2186
809.456116,2144
809.57489,2175
809.693726,2164
809.8125,2199
809.931274,2177
810.050049,2221
810.168884,2215
810.287659,2199
810.406372,2190
810.525269,2175
810.643982,2150
810.762756,2236
810.881531,2213
811.000305,2202
811.11908,2190
811.237854,2221
811.356567,2161
811.475403,2171
811.594116,2193
811.71283,2223
811.831604,2189
811.950378,2217
812.069153,2217
812.187927,2202
812.30658,2182
812.425415,2169
812.544128,2188
812.662781,2206
812.781616,2200
812.900269,2195
813.019043,2216
813.137756,2207
813.256531,2206
813.375244,2190
813.493896,2205
813.612671,2216
813.731384,2218
813.850037,2200
813.96875,2174
814.087524,2216
814.206238,2169
814.324951,2165
814.443604,2177
814.562256,2256
814.68103,2151
814.799683,2202
814.918335,2211
815.037109,2140
815.155762,2188
815.274475,2158
815.393188,2190
815.511841,2128
815.630554,2163
815.749146,2137
815.867859,2089
815.986572,2102
816.105164,2149
816.223877,2063
816.342529,2122
816.461182,2080
816.579895,2128
816.698486,2133
816.817139,2088
816.935791,2078
817.054504,2143
817.173096,2098
817.291748,2163
817.4104,2095
817.529053,2063
817.647644,2002
817.766235,2019
817.884949,1943
818.00354,1941
818.122192,1871
818.240845,1828
818.359436,1832
818.478088,1856
818.59668,1754
818.715271,1712
818.833923,1710
818.952515,1706
819.071106,1649
819.189758,1653
819.30835,1632
819.426941,1587
819.545532,1631
819.664124,1578
819.782715,1566
819.901306,1585
820.019897,1565
820.138489,1563
820.25708,1536
820.375671,1561
820.494202,1521
820.612732,1525
820.731384,1549
820.849915,1530
820.968506,1541
821.087097,1534
821.205627,1537
821.324158,1492
821.442749,1466
821.561279,1471
821.679871,1527
821.798401,1495
821.916931,1487
822.035461,1470
822.154053,1479
822.272583,1480
822.391174,1458
822.509583,1465
822.628174,1466
822.746704,1496
822.865234,1434
822.983765,1490
823.102295,1455
823.220825,1452
823.339294,1428
823.457825,1483
823.576355,1480
823.694824,1496
823.813354,1495
823.931885,1513
824.050354,1459
824.168884,1504
824.287354,1506
824.405823,1484
824.524353,1527
824.642822,1457
824.761353,1489
824.879822,1468
824.998291,1494
825.116699,1465
825.235291,1465
825.353699,1481
825.472168,1461
825.590637,1446
825.709106,1471
825.827576,1423
825.946045,1410
826.064453,1454
826.182983,1447
826.301392,1417
826.4198,1456
826.53833,1433
826.656738,1382
826.775208,1381
826.893677,1456
827.012024,1410
827.130493,1376
827.248962,1394
827.36731,1408
827.485779,1380
827.604248,1368
827.722595,1350
827.841064,1360
827.959412,1366
828.077942,1369
828.196289,1350
828.314636,1383
828.433105,1387
828.551514,1383
828.669861,1357
828.78833,1362
828.906677,1343
829.025085,1359
829.143433,1366
829.261841,1341
829.38031,1312
829.498657,1400
829.617004,1371
829.735413,1371
829.85376,1333
829.972107,1362
830.090515,1357
830.208862,1393
830.327209,1341
830.445557,1322
830.563904,1383
830.682312,1346
830.800659,1381
830.919006,1375
831.037354,1330
831.155701,1354
831.274048,1394
831.392395,1339
831.51062,1354
831.629028,1320
831.747314,1369
831.865662,1346
831.984009,1354
832.102356,1361
832.220642,1324
832.338928,1360
832.457275,1343
832.575623,1364
832.693909,1309
832.812134,1373
832.930481,1362
833.048828,1346
833.167114,1387
833.2854,1354
833.403687,1333
833.521973,1392
833.640259,1343
833.758545,1348
833.876831,1355
833.995056,1323
834.113281,1338
834.231628,1394
834.349915,1333
834.468201,1360
834.586426,1333
834.704651,1379
834.822998,1325
834.941162,1371
835.059448,1354
835.177673,1392
835.295959,1362
835.414246,1356
835.53241,1329
835.650635,1351
835.768921,1363
835.887146,1332
836.005371,1395
836.123596,1335
836.241821,1380
836.360046,1383
836.478271,1425
836.596497,1404
836.714722,1387
836.832886,1414
836.95105,1354
837.069336,1427
837.1875,1484
837.305725,1378
837.423889,1455
837.542053,1403
837.660339,1456
837.778503,1458
837.896667,1419
838.014832,1453
838.132996,1421
838.25116,1420
838.369385,1453
838.487488,1403
838.605713,1417
838.723877,1423
838.84198,1423
838.960205,1416
839.078308,1451
839.196472,1389
839.314636,1446
839.4328,1380
839.550964,1416
839.669067,1381
839.787231,1401
839.905396,1374
840.023499,1422
840.141602,1426
840.259766,1427
840.377869,1388
840.495972,1385
840.614136,1399
840.732239,1375
840.850342,1372
840.968445,1373
841.086548,1364
841.204651,1381
841.322754,1370
841.440918,1392
841.55896,1370
841.677002,1372
841.795166,1353
841.913208,1367
842.031311,1350
842.149353,1329
842.267456,1330
842.385498,1329
842.503601,1369
842.621643,1307
842.739746,1346
842.857788,1374
842.97583,1308
843.093933,1325
843.211975,1331
843.330017,1315
843.44812,1315
843.566101,1317
843.684204,1321
843.802246,1327
843.920227,1329
844.038269,1335
844.156311,1351
844.274292,1309
844.392395,1295
844.510376,1310
844.628357,1284
844.74646,1340
844.864441,1343
844.982422,1284
845.100403,1302
845.218384,1316
845.336426,1313
845.454468,1340
845.572449,1289
845.69043,1285
845.808411,1294
845.926453,1274
846.044373,1297
846.162354,1299
846.280396,1310
846.398315,1299
846.516296,1327
846.634216,1257
846.752197,1298
846.870178,1318
846.988098,1277
847.106079,1283
847.22406,1315
847.34198,1312
847.4599,1312
847.577881,1322
847.695801,1295
847.813782,1326
847.931641,1335
848.049561,1255
848.167603,1288
848.285461,1331
848.403381,1305
848.521362,1309
848.639221,1288
848.75708,1294
848.875,1310
848.99292,1268
849.110901,1264
849.22876,1294
849.34668,1271
849.464539,1250
849.582458,1289
849.700317,1255
849.818176,1236
849.936096,1325
850.053955,1316
850.171875,1311
850.289673,1334
850.407593,1291
850.525452,1281
850.643311,1254
850.761169,1259
850.878967,1300
850.996887,1280
851.114746,1312
851.232544,1277
851.350403,1281
851.468262,1332
851.58606,1239
851.703979,1276
851.821777,1290
851.939636,1318
852.057434,1289
852.175232,1299
852.293091,1270
852.410889,1324
852.528687,1307
852.646545,1289
852.764343,1310
852.88208,1343
852.999939,1295
853.117676,1307
853.235535,1326
853.353271,1330
853.471069,1284
853.588928,1296
853.706604,1370
853.824402,1310
853.9422,1350
854.059998,1301
854.177734,1311
854.295532,1310
854.413269,1350
854.531006,1282
854.648804,1304
854.766541,1308
854.884277,1315
855.002014,1342
855.119751,1335
855.237549,1318
855.355225,1313
855.473022,1364
855.590698,1365
855.708435,1334
855.826172,1316
855.943848,1356
856.061646,1317
856.179321,1330
856.296997,1298
856.414795,1319
856.53241,1333
856.650085,1328
856.767822,1335
856.885559,1330
857.003174,1343
857.120911,1353
857.238586,1349
857.356201,1351
857.473938,1326
857.591614,1334
857.709351,1367
857.826965,1313
857.944641,1317
858.062317,1353
858.179993,1327
858.297668,1336
858.415283,1307
858.532959,1325
858.650574,1320
858.768188,1322
858.885803,1349
859.003479,1379
859.121094,1328
859.23877,1340
859.356384,1295
859.473999,1295
859.591675,1323
859.709229,1342
859.826843,1354
859.944458,1315
860.062012,1294
860.179626,1296
860.297302,1291
860.414856,1278
860.532471,1325
860.650024,1296
860.767639,1325
860.885193,1327
861.002808,1299
861.120361,1317
861.237976,1350
861.35553,1330
861.473022,1325
861.590698,1309
861.708191,1320
861.825745,1302
861.943298,1315
862.060852,1309
862.178406,1328
862.295959,1300
862.413513,1286
862.531006,1329
862.64856,1292
862.766113,1322
862.883667,1313
863.00116,1309
863.118713,1313
863.236206,1327
863.353699,1341
863.471252,1296
863.588745,1305
863.706177,1331
863.82373,1343
863.941162,1307
864.058716,1360
864.176208,1348
864.29364,1302
864.411194,1339
864.528687,1324
864.646118,1310
864.763611,1341
864.881042,1342
864.998535,1322
865.116028,1333
865.233459,1338
865.350891,1283
865.468384,1319
865.585754,1391
865.703308,1317
865.820679,1332
865.938171,1325
866.055542,1359
866.173035,1312
866.290466,1350
866.407837,1349
866.52533,1310
866.6427,1317
866.760071,1337
866.877563,1332
866.994934,1321
867.112305,1314
867.229736,1300
867.347107,1349
867.464539,1323
867.58197,1341
867.699341,1290
867.81665,1308
867.934082,1309
868.051453,1360
868.168823,1314
868.286194,1329
868.403564,1305
868.520935,1322
868.638306,1333
868.755676,1322
868.872986,1327
868.990295,1351
869.107727,1322
869.225037,1333
869.342346,1343
869.459717,1330
869.577026,1344
869.694336,1366
869.811707,1302
869.929016,1360
870.046326,1360
870.163635,1303
870.280945,1347
870.398254,1324
870.515564,1338
870.632812,1309
870.750183,1318
870.867432,1297
870.984741,1336
871.102051,1342
871.219299,1336
871.336609,1271
871.453918,1338
871.571106,1353
871.688416,1313
871.805664,1335
871.922852,1300
872.040222,1306
872.157471,1352
872.274719,1321
872.391968,1360
872.509155,1364
872.626465,1336
872.743652,1304
872.860962,1333
872.978149,1348
873.095337,1280
873.212646,1307
873.329834,1312
873.44696,1332
873.564209,1306
873.681396,1317
873.798645,1326
873.915894,1359
874.03302,1319
874.150208,1337
874.267456,1315
874.384583,1291
874.501831,1309
874.618958,1314
874.736145,1338
874.853333,1312
874.970459,1309
875.087646,1341
875.204834,1309
875.32196,1300
875.439148,1338
875.556274,1356
875.673401,1333
875.790527,1305
875.907715,1348
876.024841,1332
876.141968,1348
876.259094,1362
876.376282,1359
876.493347,1361
876.610474,1329
876.7276,1348
876.844727,1352
876.961853,1327
877.078918,1306
877.195984,1331
877.313171,1382
877.430237,1333
877.547302,1343
877.664368,1306
877.781433,1341
877.898499,1349
878.015625,1320
878.13269,1318
878.249695,1327
878.366821,1346
878.483887,1330
878.600952,1323
878.717957,1301
878.834961,1355
878.952087,1322
879.069092,1342
879.186157,1365
879.303162,1316
879.420227,1343
879.537231,1393
879.654236,1336
879.77124,1301
879.888306,1313
880.005249,1368
880.122314,1311
880.239319,1352
880.356323,1334
880.473328,1321
880.590271,1329
880.707275,1329
880.824341,1343
880.941284,1333
881.058228,1354
881.175232,1340
881.292236,1314
881.40918,1297
881.526123,1329
881.643066,1313
881.760071,1343
881.877014,1381
881.993958,1347
882.11084,1293
882.227783,1343
882.344727,1369
882.46167,1357
882.578613,1287
882.695618,1300
882.812439,1347
882.929382,1324
883.046326,1357
883.163208,1340
883.280151,1402
883.397034,1302
883.513916,1366
883.630798,1364
883.747742,1361
883.864563,1331
883.981506,1336
884.098389,1336
884.21521,1339
884.332153,1398
884.448975,1363
884.565796,1346
884.682678,1350
884.7995,1345
884.916443,1341
885.033264,1386
885.150085,1344
885.266968,1325
885.383789,1341
885.500671,1416
885.617493,1352
885.734314,1365
885.851196,1340
885.967896,1375
886.084717,1371
886.201599,1372
886.318359,1333
886.435181,1362
886.552002,1360
886.668762,1388
886.785645,1374
886.902344,1382
887.019165,1372
887.135925,1330
887.252747,1373
887.369446,1409
887.486267,1333
887.603027,1406
887.719788,1392
887.836548,1310
887.953247,1370
888.070068,1407
888.186829,1351
888.303528,1343
888.420288,1348
888.536987,1378
888.653687,1388
888.770447,1420
888.887146,1346
889.003967,1390
889.120667,1363
889.237305,1353
889.354065,1337
889.470703,1393
889.587463,1362
889.704163,1404
889.820862,1371
889.937561,1360
890.054199,1322
890.170837,1341
890.287598,1349
890.404236,1367
890.520874,1372
890.637634,1407
890.754211,1379
890.87085,1362
890.987549,1377
891.104187,1369
891.220886,1364
891.337463,1407
891.454102,1361
891.57074,1332
891.687378,1398
891.804077,1365
891.920654,1344
892.037231,1352
892.15387,1404
892.270447,1404
892.387085,1391
892.503723,1397
892.6203,1338
892.736877,1376
892.853516,1386
892.970032,1364
893.08667,1366
893.203186,1354
893.319763,1376
893.43634,1362
893.552917,1404
893.669556,1373
893.786011,1389
893.902588,1380
894.019165,1375
894.135681,1367
894.252197,1403
894.368835,1398
894.485291,1406
894.601868,1379
894.718384,1404
894.8349,1409
894.951355,1351
895.067932,1382
895.184448,1390
895.300964,1382
895.417419,1397
895.533936,1391
895.650452,1380
895.766907,1421
895.883423,1390
895.999878,1388
896.116333,1407
896.232849,1385
896.349304,1411
896.465759,1383
896.582214,1379
896.698669,1414
896.815125,1386
896.931641,1399
897.048035,1407
897.164551,1360
897.280884,1383
897.397339,1407
897.513794,1441
897.630249,1407
897.746582,1430
897.863098,1415
897.979431,1396
898.095886,1375
898.212341,1443
898.328674,1373
898.445129,1379
898.561462,1393
898.677795,1390
898.794312,1380
898.910645,1387
899.026978,1417
899.143433,1397
899.259766,1414
899.37616,1375
899.492493,1389
899.608765,1376
899.725159,1411
899.841553,1390
899.957947,1387
900.07428,1410
900.190552,1446
900.306946,1376
900.423157,1402
900.53949,1430
900.655884,1397
900.772156,1447
900.888489,1414
901.004822,1410
901.121033,1416
901.237366,1409
901.353699,1413
901.46991,1416
901.586304,1381
901.702515,1393
901.818787,1415
901.93512,1407
902.051331,1380
902.167603,1422
902.283875,1392
902.400085,1440
902.516418,1390
902.632629,1437
902.74884,1481
902.865112,1422
902.981384,1458
903.097595,1426
903.213867,1417
903.330017,1441
903.446289,1462
903.5625,1388
903.67865,1442
903.794922,1420
903.911072,1436
904.027344,1426
904.143494,1461
904.259705,1412
904.375916,1436
904.492065,1395
904.608215,1425
904.724426,1423
904.840576,1401
904.956726,1425
905.072876,1415
905.189087,1451
905.305176,1429
905.421387,1483
905.537537,1393
905.653687,1390
905.769775,1403
905.885925,1458
906.002014,1432
906.118164,1400
906.234314,1399
906.350403,1433
906.466492,1446
906.582642,1375
906.69873,1443
906.814758,1427
906.930908,1431
907.046936,1414
907.163086,1442
907.279175,1388
907.395264,1405
907.511353,1480
907.62738,1436
907.743408,1420
907.859497,1444
907.975525,1431
908.091553,1423
908.207703,1415
908.32373,1407
908.439758,1426
908.555786,1469
908.671814,1469
908.787842,1430
908.90387,1419
909.019775,1425
909.135864,1407
909.251892,1433
909.367859,1475
909.483826,1431
909.599854,1444
909.715881,1419
909.831848,1462
909.947815,1466
910.063782,1435
910.179749,1457
910.295776,1440
910.411743,1450
910.527649,1477
910.643616,1433
910.759583,1383
910.875488,1460
910.991455,1451
911.107361,1409
911.223267,1462
911.339294,1413
911.4552,1441
911.571106,1466
911.687073,1485
911.802979,1399
911.918823,1447
912.034729,1423
912.150635,1427
912.266602,1430
912.382446,1432
912.498352,1413
912.614197,1417
912.730103,1423
912.846008,1421
792.44574,2232
792.56488,2262
792.68396,2252
792.80304,2179
792.92218,2168
793.041199,2158
793.160339,2105
793.279419,2112
793.398499,2191
793.517578,2122
793.636658,2139
793.755737,2160
793.874817,2097
793.993896,2121
794.112976,2146
794.232056,2072
794.351074,2025
794.470215,2071
794.589233,2063
794.708313,2096
794.827393,2038
794.946411,1998
795.065552,2040
795.18457,2023
795.303589,2037
795.422668,2008
795.541687,2000
795.660767,2009
795.779846,1951
795.898865,2014
796.017883,1998
796.136963,2022
796.255981,1988
796.375061,1966
796.49408,1997
796.613037,2037
796.732117,1985
796.851135,2015
796.970154,1948
797.089233,1998
797.208191,1992
797.327271,1968
797.446228,2022
797.565186,1989
797.684265,2017
797.803223,1972
797.922241,1973
798.04126,1984
798.160278,1980
798.279297,1979
798.398315,1936
798.517273,1947
798.636292,1954
798.75531,1966
798.874268,1937
798.993286,1927
799.112244,1999
799.231323,2012
799.350281,1974
799.469238,1994
799.588257,1979
799.707153,1991
799.826111,2002
799.945129,1960
800.064087,1991
800.183044,1977
800.302063,1963
800.421021,1993
800.539978,1931
800.658936,1987
800.777893,1975
800.896912,1960
801.015747,1946
801.134705,1968
801.253723,1939
801.37262,1926
801.491638,1985
801.610535,1995
801.729492,2006
801.84845,2004
801.967407,1986
802.086243,2000
802.205261,1944
802.324158,2038
802.443115,2023
802.562073,1994
802.680969,2051
802.799927,2029
802.918762,2005
803.037659,2058
803.156677,2078
803.275574,2046
803.39447,2052
803.513428,2050
803.632263,2052
803.751221,2046
803.870117,2030
803.989014,2016
804.107971,2057
804.226746,2056
804.345642,2099
804.4646,2062
804.583496,2089
804.702393,2092
804.821228,2133
804.940125,2135
805.059021,2040
805.177917,2174
805.296814,2094
805.415649,2112
805.534546,2092
805.653442,2118
805.772278,2150
805.891113,2125
806.01001,2056
806.128906,2116
806.247742,2091
806.366577,2133
806.485413,2163
806.604309,2157
806.723145,2084
806.84198,2123
806.960876,2146
807.079712,2124
807.198486,2126
807.317383,2133
807.436218,2150
807.554993,2084
807.673889,2150
807.792725,2179
807.91156,2159
808.030396,2110
808.14917,2126
808.268005,2143
808.386841,2180
808.505676,2162
808.624451,2204
808.743286,2204
808.862122,2142
808.980896,2179
809.099731,2142
809.218506,2153
809.337341,2143
809.456116,2170
809.57489,2200
809.693726,2226
809.8125,2183
809.931274,2209
810.050049,2248
810.168884,2204
810.287659,2225
810.406372,2268
810.525269,2233
810.643982,2183
810.762756,2224
810.881531,2202
811.000305,2231
811.11908,2234
811.237854,2173
811.356567,2213
811.475403,2141
811.594116,2162
811.71283,2200
811.831604,2180
811.950378,2233
812.069153,2244
812.187927,2198
812.30658,2209
812.425415,2265
812.544128,2240
812.662781,2192
812.781616,2204
812.900269,2247
813.019043,2197
813.137756,2197
813.256531,2274
813.375244,2226
813.493896,2226
813.612671,2272
813.731384,2236
813.850037,2198
813.96875,2208
814.087524,2167
814.206238,2173
814.324951,2263
814.443604,2172
814.562256,2216
814.68103,2209
814.799683,2210
814.918335,2163
815.037109,2227
815.155762,2121
815.274475,2183
815.393188,2139
815.511841,2117
815.630554,2137
815.749146,2105
815.867859,2132
815.986572,2102
816.105164,2092
816.223877,2105
816.342529,2094
816.461182,2150
816.579895,2135
816.698486,2159
816.817139,2169
816.935791,2142
817.054504,2126
817.173096,2166
817.291748,2115
817.4104,2120
817.529053,2061
817.647644,2021
817.766235,1985
817.884949,1957
818.00354,1926
818.122192,1890
818.240845,1883
818.359436,1867
818.478088,1809
818.59668,1781
818.715271,1763
818.833923,1721
818.952515,1666
819.071106,1711
819.189758,1692
819.30835,1658
819.426941,1641
819.545532,1627
819.664124,1664
819.782715,1609
819.901306,1561
820.019897,1529
820.138489,1618
820.25708,1578
820.375671,1548
820.494202,1573
820.612732,1539
820.731384,1571
820.849915,1538
820.968506,1499
821.087097,1545
821.205627,1492
821.324158,1536
821.442749,1529
821.561279,1494
821.679871,1477
821.798401,1483
821.916931,1496
822.035461,1495
822.154053,1517
822.272583,1424
822.391174,1485
822.509583,1476
822.628174,1479
822.746704,1515
822.865234,1476
822.983765,1450
823.102295,1508
823.220825,1458
823.339294,1455
823.457825,1491
823.576355,1463
823.694824,1524
823.813354,1516
823.931885,1503
824.050354,1503
824.168884,1514
824.287354,1507
824.405823,1485
824.524353,1505
824.642822,1547
824.761353,1544
824.879822,1488
824.998291,1497
825.116699,1498
825.235291,1484
825.353699,1558
825.472168,1465
825.590637,1521
825.709106,1454
825.827576,1439
825.946045,1425
826.064453,1450
826.182983,1469
826.301392,1447
826.4198,1427
826.53833,1452
826.656738,1381
826.775208,1455
826.893677,1377
827.012024,1419
827.130493,1421
827.248962,1380
827.36731,1411
827.485779,1387
827.604248,1378
827.722595,1398
827.841064,1393
827.959412,1388
828.077942,1361
828.196289,1396
828.314636,1344
828.433105,1409
828.551514,1375
828.669861,1355
828.78833,1348
828.906677,1363
829.025085,1385
829.143433,1381
829.261841,1381
829.38031,1347
829.498657,1372
829.617004,1400
829.735413,1421
829.85376,1354
829.972107,1363
830.090515,1365
830.208862,1329
830.327209,1348
830.445557,1386
830.563904,1385
830.682312,1350
830.800659,1354
830.919006,1363
831.037354,1354
831.155701,1361
831.274048,1354
831.392395,1385
831.51062,1365
831.629028,1348
831.747314,1353
831.865662,1334
831.984009,1375
832.102356,1350
832.220642,1320
832.338928,1396
832.457275,1406
832.575623,1335
832.693909,1356
832.812134,1372
832.930481,1344
833.048828,1335
833.167114,1359
833.2854,1372
833.403687,1360
833.521973,1313
833.640259,1316
833.758545,1327
833.876831,1343
833.995056,1376
834.113281,1333
834.231628,1379
834.349915,1351
834.468201,1401
834.586426,1361
834.704651,1390
834.822998,1322
834.941162,1420
835.059448,1356
835.177673,1347
835.295959,1359
835.414246,1373
835.53241,1338
835.650635,1447
835.768921,1365
835.887146,1397
836.005371,1383
836.123596,1394
836.241821,1386
836.360046,1407
836.478271,1408
836.596497,1416
836.714722,1405
836.832886,1432
836.95105,1436
837.069336,1423
837.1875,1438
837.305725,1472
837.423889,1448
837.542053,1419
837.660339,1413
837.778503,1442
837.896667,1456
838.014832,1444
838.132996,1395
838.25116,1440
838.369385,1425
838.487488,1443
838.605713,1444
838.723877,1416
838.84198,1421
838.960205,1391
839.078308,1428
839.196472,1382
839.314636,1420
839.4328,1448
839.550964,1401
839.669067,1407
839.787231,1421
839.905396,1445
840.023499,1407
840.141602,1393
840.259766,1402
840.377869,1377
840.495972,1404
840.614136,1359
840.732239,1400
840.850342,1362
840.968445,1393
841.086548,1387
841.204651,1396
841.322754,1357
841.440918,1354
841.55896,1332
841.677002,1368
841.795166,1373
841.913208,1358
842.031311,1382
842.149353,1354
842.267456,1334
842.385498,1309
842.503601,1339
842.621643,1333
842.739746,1328
842.857788,1365
842.97583,1330
843.093933,1310
843.211975,1358
843.330017,1333
843.44812,1324
843.566101,1296
843.684204,1329
843.802246,1309
843.920227,1352
844.038269,1334
844.156311,1375
844.274292,1322
844.392395,1344
844.510376,1325
844.628357,1311
844.74646,1302
844.864441,1331
844.982422,1299
845.100403,1307
845.218384,1335
845.336426,1299
845.454468,1339
845.572449,1310
845.69043,1299
845.808411,1335
845.926453,1322
846.044373,1293
846.162354,1330
846.280396,1296
846.398315,1312
846.516296,1288
846.634216,1261
846.752197,1285
846.870178,1329
846.988098,1321
847.106079,1317
847.22406,1301
847.34198,1320
847.4599,1329
847.577881,1321
847.695801,1357
847.813782,1304
847.931641,1259
848.049561,1314
848.167603,1279
848.285461,1303
848.403381,1323
848.521362,1257
848.639221,1315
848.75708,1282
848.875,1304
848.99292,1342
849.110901,1325
849.22876,1335
849.34668,1320
849.464539,1305
849.582458,1335
849.700317,1280
849.818176,1255
849.936096,1308
850.053955,1324
850.171875,1303
850.289673,1289
850.407593,1284
850.525452,1303
850.643311,1286
850.761169,1302
850.878967,1323
850.996887,1348
851.114746,1309
851.232544,1305
851.350403,1289
851.468262,1289
851.58606,1293
851.703979,1292
851.821777,1279
851.939636,1294
852.057434,1342
852.175232,1285
852.293091,1373
852.410889,1299
852.528687,1307
852.646545,1317
852.764343,1343
852.88208,1318
852.999939,1296
853.117676,1369
853.235535,1290
853.353271,1343
853.471069,1323
853.588928,1312
853.706604,1337
853.824402,1356
853.9422,1320
854.059998,1338
854.177734,1329
854.295532,1350
854.413269,1310
854.531006,1307
854.648804,1348
854.766541,1336
854.884277,1380
855.002014,1329
855.119751,1350
855.237549,1342
855.355225,1380
855.473022,1354
855.590698,1335
855.708435,1385
855.826172,1317
855.943848,1317
856.061646,1376
856.179321,1314
856.296997,1353
856.414795,1323
856.53241,1367
856.650085,1332
856.767822,1367
856.885559,1316
857.003174,1390
857.120911,1332
857.238586,1323
857.356201,1375
857.473938,1358
857.591614,1344
857.709351,1349
857.826965,1347
857.944641,1321
858.062317,1344
858.179993,1362
858.297668,1344
858.415283,1347
858.532959,1333
858.650574,1330
858.768188,1400
858.885803,1306
859.003479,1320
859.121094,1353
859.23877,1348
859.356384,1338
859.473999,1321
859.591675,1338
859.709229,1326
859.826843,1341
859.944458,1305
860.062012,1339
860.179626,1337
860.297302,1310
860.414856,1283
860.532471,1308
860.650024,1333
860.767639,1347
860.885193,1355
861.002808,1324
861.120361,1339
861.237976,1299
861.35553,1345
861.473022,1326
861.590698,1297
861.708191,1330
861.825745,1318
861.943298,1340
862.060852,1342
862.178406,1327
862.295959,1325
862.413513,1356
862.531006,1326
862.64856,1362
862.766113,1339
862.883667,1341
863.00116,1310
863.118713,1345
863.236206,1349
863.353699,1355
863.471252,1320
863.588745,1310
863.706177,1369
863.82373,1303
863.941162,1343
864.058716,1319
864.176208,1312
864.29364,1332
864.411194,1311
864.528687,1315
864.646118,1326
864.763611,1334
864.881042,1358
864.998535,1316
865.116028,1358
865.233459,1333
865.350891,1323
865.468384,1323
865.585754,1327
865.703308,1349
865.820679,1362
865.938171,1338
866.055542,1352
866.173035,1376
866.290466,1326
866.407837,1330
866.52533,1321
866.6427,1348
866.760071,1376
866.877563,1321
866.994934,1339
867.112305,1342
867.229736,1327
867.347107,1344
867.464539,1340
867.58197,1327
867.699341,1299
867.81665,1324
867.934082,1330
868.051453,1330
868.168823,1320
868.286194,1349
868.403564,1367
868.520935,1370
868.638306,1324
868.755676,1345
868.872986,1327
868.990295,1370
869.107727,1325
869.225037,1325
869.342346,1356
869.459717,1343
869.577026,1373
869.694336,1332
869.811707,1314
869.929016,1341
870.046326,1358
870.163635,1321
870.280945,1374
870.398254,1355
870.515564,1337
870.632812,1332
870.750183,1412
870.867432,1343
870.984741,1361
871.102051,1334
871.219299,1327
871.336609,1364
871.453918,1299
871.571106,1332
871.688416,1344
871.805664,1360
871.922852,1325
872.040222,1341
872.157471,1366
872.274719,1325
872.391968,1294
872.509155,1324
872.626465,1332
872.743652,1323
872.860962,1317
872.978149,1339
873.095337,1360
873.212646,1300
873.329834,1305
873.44696,1353
873.564209,1350
873.681396,1315
873.798645,1341
873.915894,1351
874.03302,1339
874.150208,1335
874.267456,1344
874.384583,1380
874.501831,1355
874.618958,1317
874.736145,1336
874.853333,1375
874.970459,1329
875.087646,1390
875.204834,1360
875.32196,1367
875.439148,1317
875.556274,1356
875.673401,1346
875.790527,1337
875.907715,1321
876.024841,1316
876.141968,1346
876.259094,1285
876.376282,1368
876.493347,1337
876.610474,1304
876.7276,1353
876.844727,1328
876.961853,1348
877.078918,1333
877.195984,1382
877.313171,1328
877.430237,1337
877.547302,1371
877.664368,1342
877.781433,1350
877.898499,1356
878.015625,1360
878.13269,1371
878.249695,1348
878.366821,1350
878.483887,1333
878.600952,1331
878.717957,1322
878.834961,1349
878.952087,1379
879.069092,1364
879.186157,1363
879.303162,1296
879.420227,1343
879.537231,1323
879.654236,1333
879.77124,1314
879.888306,1382
880.005249,1314
880.122314,1338
880.239319,1380
880.356323,1350
880.473328,1323
880.590271,1347
880.707275,1342
880.824341,1345
880.941284,1312
881.058228,1326
881.175232,1321
881.292236,1344
881.40918,1357
881.526123,1368
881.643066,1305
881.760071,1367
881.877014,1335
881.993958,1366
882.11084,1356
882.227783,1373
882.344727,1325
882.46167,1364
882.578613,1318
882.695618,1368
882.812439,1336
882.929382,1351
883.046326,1369
883.163208,1327
883.280151,1347
883.397034,1319
883.513916,1366
883.630798,1330
883.747742,1384
883.864563,1366
883.981506,1327
884.098389,1368
884.21521,1364
884.332153,1353
884.448975,1346
884.565796,1343
884.682678,1341
884.7995,1373
884.916443,1305
885.033264,1404
885.150085,1383
885.266968,1396
885.383789,1369
885.500671,1366
885.617493,1362
885.734314,1384
885.851196,1360
885.967896,1395
886.084717,1409
886.201599,1351
886.318359,1416
886.435181,1395
886.552002,1367
886.668762,1386
886.785645,1378
886.902344,1400
887.019165,1355
887.135925,1402
887.252747,1389
887.369446,1396
887.486267,1393
887.603027,1369
887.719788,1395
887.836548,1340
887.953247,1354
888.070068,1376
888.186829,1384
888.303528,1415
888.420288,1398
888.536987,1401
888.653687,1382
888.770447,1389
888.887146,1357
889.003967,1412
889.120667,1354
889.237305,1407
889.354065,1385
889.470703,1383
889.587463,1368
889.704163,1375
889.820862,1373
889.937561,1399
890.054199,1381
890.170837,1383
890.287598,1402
890.404236,1385
890.520874,1373
890.637634,1415
890.754211,1360
890.87085,1384
890.987549,1376
891.104187,1350
891.220886,1429
891.337463,1389
891.454102,1416
891.57074,1382
891.687378,1366
891.804077,1371
891.920654,1429
892.037231,1377
892.15387,1421
892.270447,1407
892.387085,1384
892.503723,1387
892.6203,1401
892.736877,1390
892.853516,1430
892.970032,1420
893.08667,1413
893.203186,1362
893.319763,1390
893.43634,1395
893.552917,1363
893.669556,1400
893.786011,1366
893.902588,1404
894.019165,1395
894.135681,1407
894.252197,1436
894.368835,1448
894.485291,1402
894.601868,1438
894.718384,1400
894.8349,1399
894.951355,1419
895.067932,1415
895.184448,1388
895.300964,1455
895.417419,1399
895.533936,1416
895.650452,1356
895.766907,1415
895.883423,1372
895.999878,1435
896.116333,1416
896.232849,1394
896.349304,1401
896.465759,1418
896.582214,1412
896.698669,1358
896.815125,1407
896.931641,1437
897.048035,1403
897.164551,1398
897.280884,1415
897.397339,1448
897.513794,1394
897.630249,1450
897.746582,1416
897.863098,1400
897.979431,1390
898.095886,1405
898.212341,1398
898.328674,1378
898.445129,1422
898.561462,1400
898.677795,1418
898.794312,1422
898.910645,1409
899.026978,1384
899.143433,1444
899.259766,1402
899.37616,1405
899.492493,1390
899.608765,1440
899.725159,1438
899.841553,1417
899.957947,1422
900.07428,1375
900.190552,1453
900.306946,1451
900.423157,1424
900.53949,1451
900.655884,1449
900.772156,1446
900.888489,1457
901.004822,1448
901.121033,1440
901.237366,1374
901.353699,1414
901.46991,1451
901.586304,1396
901.702515,1426
901.818787,1453
901.93512,1417
902.051331,1387
902.167603,1411
902.283875,1425
902.400085,1444
902.516418,1422
902.632629,1397
902.74884,1447
902.865112,1473
902.981384,1402
903.097595,1421
903.213867,1395
903.330017,1466
903.446289,1432
903.5625,1416
903.67865,1458
903.794922,1485
903.911072,1456
904.027344,1430
904.143494,1420
904.259705,1452
904.375916,1444
904.492065,1414
904.608215,1423
904.724426,1447
904.840576,1431
904.956726,1436
905.072876,1428
905.189087,1407
905.305176,1415
905.421387,1429
905.537537,1427
905.653687,1455
905.769775,1428
905.885925,1456
906.002014,1427
906.118164,1412
906.234314,1422
906.350403,1431
906.466492,1447
906.582642,1457
906.69873,1452
906.814758,1505
906.930908,1437
907.046936,1432
907.163086,1456
907.279175,1418
907.395264,1451
907.511353,1448
907.62738,1456
907.743408,1420
907.859497,1467
907.975525,1442
908.091553,1451
908.207703,1466
908.32373,1486
908.439758,1428
908.555786,1429
908.671814,1436
908.787842,1444
908.90387,1394
909.019775,1432
909.135864,1473
909.251892,1454
909.367859,1432
909.483826,1473
909.599854,1413
909.715881,1465
909.831848,1494
909.947815,1461
910.063782,1438
910.179749,1440
910.295776,1459
910.411743,1467
910.527649,1427
910.643616,1507
910.759583,1482
910.875488,1497
910.991455,1438
911.107361,1465
911.223267,1455
911.339294,1451
911.4552,1463
911.571106,1458
911.687073,1463
911.802979,1461
911.918823,1413
912.034729,1436
912.150635,1422
912.266602,1418
912.382446,1480
912.498352,1420
912.614197,1433
912.730103,1452
912.846008,1445
