792.44574,2462
792.56488,2492
792.68396,2496
792.80304,2507
792.92218,2399
793.041199,2331
793.160339,2365
793.279419,2348
793.398499,2315
793.517578,2310
793.636658,2333
793.755737,2274
793.874817,2273
793.993896,2285
794.112976,2232
794.232056,2211
794.351074,2199
794.470215,2190
794.589233,2196
794.708313,2176
794.827393,2201
794.946411,2150
795.065552,2184
795.18457,2078
795.303589,2109
795.422668,2109
795.541687,2107
795.660767,2094
795.779846,2109
795.898865,2059
796.017883,2054
796.136963,2014
796.255981,2096
796.375061,2069
796.49408,2069
796.613037,2042
796.732117,2070
796.851135,2055
796.970154,2036
797.089233,2066
797.208191,2019
797.327271,2009
797.446228,1971
797.565186,2038
797.684265,1989
797.803223,1984
797.922241,2038
798.04126,2042
798.160278,2028
798.279297,2028
798.398315,1996
798.517273,2024
798.636292,2010
798.75531,1984
798.874268,1963
798.993286,2067
799.112244,1991
799.231323,1962
799.350281,2092
799.469238,2054
799.588257,1997
799.707153,1963
799.826111,1992
799.945129,2031
800.064087,2000
800.183044,1989
800.302063,1970
800.421021,2002
800.539978,2000
800.658936,2020
800.777893,2006
800.896912,2046
801.015747,2025
801.134705,1963
801.253723,2008
801.37262,2083
801.491638,1997
801.610535,1995
801.729492,1939
801.84845,2033
801.967407,2005
802.086243,2061
802.205261,2038
802.324158,2046
802.443115,2051
802.562073,2074
802.680969,2040
802.799927,2044
802.918762,2043
803.037659,2056
803.156677,2023
803.275574,2047
803.39447,2064
803.513428,2076
803.632263,2081
803.751221,2112
803.870117,2036
803.989014,2100
804.107971,2079
804.226746,2106
804.345642,2056
804.4646,2075
804.583496,2119
804.702393,2073
804.821228,2054
804.940125,2061
805.059021,2071
805.177917,2108
805.296814,2132
805.415649,2076
805.534546,2074
805.653442,2091
805.772278,2156
805.891113,2127
806.01001,2105
806.128906,2158
806.247742,2073
806.366577,2133
806.485413,2154
806.604309,2117
806.723145,2141
806.84198,2149
806.960876,2128
807.079712,2099
807.198486,2145
807.317383,2150
807.436218,2176
807.554993,2126
807.673889,2157
807.792725,2124
807.91156,2131
808.030396,2155
808.14917,2124
808.268005,2092
808.386841,2153
808.505676,2127
808.624451,2158
808.743286,2184
808.862122,2172
808.980896,2180
809.099731,2168
809.218506,2131
809.337341,2199
809.456116,2133
809.57489,2208
809.693726,2154
809.8125,2225
809.931274,2234
810.050049,2200
810.168884,2156
810.287659,2183
810.406372,2162
810.525269,2220
810.643982,2147
810.762756,2172
810.881531,2204
811.000305,2158
811.11908,2177
811.237854,2228
811.356567,2202
811.475403,2143
811.594116,2162
811.71283,2220
811.831604,2189
811.950378,2191
812.069153,2214
812.187927,2221
812.30658,2207
812.425415,2224
812.544128,2204
812.662781,2209
812.781616,2191
812.900269,2170
813.019043,2151
813.137756,2208
813.256531,2190
813.375244,2191
813.493896,2212
813.612671,2192
813.731384,2118
813.850037,2176
813.96875,2189
814.087524,2203
814.206238,2195
814.324951,2157
814.443604,2174
814.562256,2163
814.68103,2180
814.799683,2197
814.918335,2144
815.037109,2092
815.155762,2131
815.274475,2118
815.393188,2146
815.511841,2153
815.630554,2106
815.749146,2135
815.867859,2031
815.986572,2108
816.105164,2138
816.223877,2104
816.342529,2074
816.461182,2111
816.579895,2110
816.698486,2086
816.817139,2088
816.935791,2199
817.054504,2151
817.173096,2118
817.291748,2138
817.4104,2068
817.529053,2072
817.647644,2071
817.766235,1994
817.884949,1990
818.00354,1904
818.122192,1929
818.240845,1842
818.359436,1878
818.478088,1813
818.59668,1809
818.715271,1793
818.833923,1740
818.952515,1708
819.071106,1661
819.189758,1697
819.30835,1644
819.426941,1628
819.545532,1632
819.664124,1639
819.782715,1656
819.901306,1599
820.019897,1581
820.138489,1594
820.25708,1525
820.375671,1615
820.494202,1573
820.612732,1590
820.731384,1576
820.849915,1587
820.968506,1568
821.087097,1540
821.205627,1517
821.324158,1533
821.442749,1562
821.561279,1507
821.679871,1545
821.798401,1527
821.916931,1490
822.035461,1549
822.154053,1541
822.272583,1489
822.391174,1532
822.509583,1491
822.628174,1506
822.746704,1490
822.865234,1523
822.983765,1510
823.102295,1491
823.220825,1484
823.339294,1501
823.457825,1521
823.576355,1536
823.694824,1513
823.813354,1514
823.931885,1521
824.050354,1506
824.168884,1509
824.287354,1549
824.405823,1535
824.524353,1528
824.642822,1506
824.761353,1534
824.879822,1541
824.998291,1555
825.116699,1564
825.235291,1578
825.353699,1506
825.472168,1515
825.590637,1518
825.709106,1481
825.827576,1465
825.946045,1448
826.064453,1465
826.182983,1473
826.301392,1445
826.4198,1473
826.53833,1465
826.656738,1417
826.775208,1444
826.893677,1423
827.012024,1430
827.130493,1433
827.248962,1428
827.36731,1417
827.485779,1457
827.604248,1414
827.722595,1391
827.841064,1434
827.959412,1429
828.077942,1405
828.196289,1340
828.314636,1413
828.433105,1426
828.551514,1381
828.669861,1430
828.78833,1411
828.906677,1378
829.025085,1413
829.143433,1374
829.261841,1423
829.38031,1396
829.498657,1420
829.617004,1400
829.735413,1435
829.85376,1387
829.972107,1425
830.090515,1393
830.208862,1460
830.327209,1367
830.445557,1414
830.563904,1404
830.682312,1406
830.800659,1402
830.919006,1416
831.037354,1393
831.155701,1435
831.274048,1390
831.392395,1395
831.51062,1356
831.629028,1438
831.747314,1384
831.865662,1383
831.984009,1381
832.102356,1373
832.220642,1386
832.338928,1383
832.457275,1406
832.575623,1414
832.693909,1331
832.812134,1362
832.930481,1405
833.048828,1395
833.167114,1393
833.2854,1398
833.403687,1401
833.521973,1402
833.640259,1387
833.758545,1382
833.876831,1422
833.995056,1388
834.113281,1387
834.231628,1388
834.349915,1388
834.468201,1410
834.586426,1402
834.704651,1416
834.822998,1381
834.941162,1399
835.059448,1436
835.177673,1405
835.295959,1363
835.414246,1396
835.53241,1395
835.650635,1399
835.768921,1403
835.887146,1449
836.005371,1382
836.123596,1441
836.241821,1442
836.360046,1450
836.478271,1428
836.596497,1429
836.714722,1463
836.832886,1414
836.95105,1431
837.069336,1480
837.1875,1431
837.305725,1480
837.423889,1454
837.542053,1466
837.660339,1448
837.778503,1428
837.896667,1455
838.014832,1524
838.132996,1450
838.25116,1461
838.369385,1458
838.487488,1484
838.605713,1466
838.723877,1500
838.84198,1408
838.960205,1480
839.078308,1421
839.196472,1463
839.314636,1444
839.4328,1471
839.550964,1443
839.669067,1464
839.787231,1438
839.905396,1456
840.023499,1460
840.141602,1461
840.259766,1434
840.377869,1434
840.495972,1455
840.614136,1451
840.732239,1464
840.850342,1421
840.968445,1411
841.086548,1447
841.204651,1389
841.322754,1466
841.440918,1393
841.55896,1462
841.677002,1424
841.795166,1416
841.913208,1384
842.031311,1428
842.149353,1397
842.267456,1417
842.385498,1414
842.503601,1367
842.621643,1401
842.739746,1384
842.857788,1384
842.97583,1400
843.093933,1356
843.211975,1391
843.330017,1369
843.44812,1391
843.566101,1362
843.684204,1353
843.802246,1356
843.920227,1374
844.038269,1372
844.156311,1367
844.274292,1405
844.392395,1391
844.510376,1383
844.628357,1356
844.74646,1357
844.864441,1376
844.982422,1383
845.100403,1377
845.218384,1430
845.336426,1388
845.454468,1383
845.572449,1334
845.69043,1365
845.808411,1307
845.926453,1339
846.044373,1344
846.162354,1355
846.280396,1311
846.398315,1343
846.516296,1373
846.634216,1334
846.752197,1348
846.870178,1330
846.988098,1340
847.106079,1323
847.22406,1338
847.34198,1373
847.4599,1344
847.577881,1369
847.695801,1351
847.813782,1336
847.931641,1383
848.049561,1389
848.167603,1369
848.285461,1397
848.403381,1381
848.521362,1357
848.639221,1388
848.75708,1357
848.875,1364
848.99292,1377
849.110901,1348
849.22876,1342
849.34668,1382
849.464539,1346
849.582458,1373
849.700317,1384
849.818176,1357
849.936096,1341
850.053955,1348
850.171875,1373
850.289673,1358
850.407593,1384
850.525452,1355
850.643311,1358
850.761169,1402
850.878967,1373
850.996887,1371
851.114746,1382
851.232544,1341
851.350403,1335
851.468262,1361
851.58606,1354
851.703979,1395
851.821777,1373
851.939636,1378
852.057434,1379
852.175232,1407
852.293091,1360
852.410889,1365
852.528687,1406
852.646545,1354
852.764343,1379
852.88208,1390
852.999939,1322
853.117676,1360
853.235535,1415
853.353271,1366
853.471069,1346
853.588928,1355
853.706604,1412
853.824402,1369
853.9422,1346
854.059998,1373
854.177734,1356
854.295532,1391
854.413269,1396
854.531006,1377
854.648804,1409
854.766541,1368
854.884277,1379
855.002014,1367
855.119751,1411
855.237549,1406
855.355225,1362
855.473022,1341
855.590698,1398
855.708435,1362
855.826172,1393
855.943848,1415
856.061646,1379
856.179321,1376
856.296997,1405
856.414795,1397
856.53241,1382
856.650085,1430
856.767822,1405
856.885559,1410
857.003174,1408
857.120911,1418
857.238586,1352
857.356201,1426
857.473938,1444
857.591614,1420
857.709351,1433
857.826965,1384
857.944641,1348
858.062317,1437
858.179993,1386
858.297668,1399
858.415283,1394
858.532959,1430
858.650574,1408
858.768188,1428
858.885803,1404
859.003479,1391
859.121094,1422
859.23877,1363
859.356384,1412
859.473999,1392
859.591675,1419
859.709229,1381
859.826843,1382
859.944458,1352
860.062012,1352
860.179626,1419
860.297302,1332
860.414856,1400
860.532471,1337
860.650024,1378
860.767639,1357
860.885193,1384
861.002808,1369
861.120361,1358
861.237976,1323
861.35553,1386
861.473022,1354
861.590698,1386
861.708191,1371
861.825745,1352
861.943298,1403
862.060852,1350
862.178406,1368
862.295959,1361
862.413513,1352
862.531006,1369
862.64856,1361
862.766113,1368
862.883667,1354
863.00116,1297
863.118713,1338
863.236206,1365
863.353699,1381
863.471252,1372
863.588745,1334
863.706177,1373
863.82373,1356
863.941162,1343
864.058716,1361
864.176208,1346
864.29364,1372
864.411194,1424
864.528687,1385
864.646118,1395
864.763611,1317
864.881042,1338
864.998535,1372
865.116028,1372
865.233459,1367
865.350891,1346
865.468384,1383
865.585754,1317
865.703308,1404
865.820679,1384
865.938171,1331
866.055542,1335
866.173035,1400
866.290466,1399
866.407837,1355
866.52533,1380
866.6427,1362
866.760071,1421
866.877563,1353
866.994934,1379
867.112305,1396
867.229736,1363
867.347107,1368
867.464539,1401
867.58197,1389
867.699341,1378
867.81665,1353
867.934082,1371
868.051453,1362
868.168823,1379
868.286194,1356
868.403564,1330
868.520935,1356
868.638306,1375
868.755676,1342
868.872986,1410
868.990295,1386
869.107727,1383
869.225037,1399
869.342346,1383
869.459717,1369
869.577026,1396
869.694336,1385
869.811707,1361
869.929016,1366
870.046326,1413
870.163635,1351
870.280945,1396
870.398254,1365
870.515564,1414
870.632812,1343
870.750183,1416
870.867432,1352
870.984741,1440
871.102051,1387
871.219299,1414
871.336609,1399
871.453918,1400
871.571106,1434
871.688416,1347
871.805664,1384
871.922852,1367
872.040222,1413
872.157471,1387
872.274719,1428
872.391968,1415
872.509155,1347
872.626465,1404
872.743652,1388
872.860962,1389
872.978149,1399
873.095337,1371
873.212646,1376
873.329834,1371
873.44696,1359
873.564209,1397
873.681396,1389
873.798645,1373
873.915894,1362
874.03302,1402
874.150208,1391
874.267456,1376
874.384583,1311
874.501831,1380
874.618958,1391
874.736145,1411
874.853333,1417
874.970459,1369
875.087646,1405
875.204834,1385
875.32196,1408
875.439148,1414
875.556274,1396
875.673401,1402
875.790527,1328
875.907715,1431
876.024841,1334
876.141968,1394
876.259094,1385
876.376282,1403
876.493347,1363
876.610474,1373
876.7276,1399
876.844727,1384
876.961853,1421
877.078918,1378
877.195984,1369
877.313171,1370
877.430237,1381
877.547302,1354
877.664368,1410
877.781433,1341
877.898499,1390
878.015625,1346
878.13269,1397
878.249695,1388
878.366821,1336
878.483887,1394
878.600952,1355
878.717957,1327
878.834961,1390
878.952087,1375
879.069092,1393
879.186157,1367
879.303162,1369
879.420227,1356
879.537231,1365
879.654236,1391
879.77124,1343
879.888306,1346
880.005249,1395
880.122314,1342
880.239319,1340
880.356323,1338
880.473328,1370
880.590271,1348
880.707275,1360
880.824341,1353
880.941284,1370
881.058228,1377
881.175232,1355
881.292236,1357
881.40918,1369
881.526123,1345
881.643066,1371
881.760071,1400
881.877014,1355
881.993958,1382
882.11084,1368
882.227783,1347
882.344727,1368
882.46167,1390
882.578613,1363
882.695618,1332
882.812439,1372
882.929382,1406
883.046326,1397
883.163208,1352
883.280151,1410
883.397034,1355
883.513916,1356
883.630798,1348
883.747742,1397
883.864563,1371
883.981506,1364
884.098389,1373
884.21521,1409
884.332153,1395
884.448975,1369
884.565796,1399
884.682678,1390
884.7995,1441
884.916443,1359
885.033264,1402
885.150085,1413
885.266968,1418
885.383789,1432
885.500671,1463
885.617493,1466
885.734314,1437
885.851196,1427
885.967896,1443
886.084717,1473
886.201599,1418
886.318359,1414
886.435181,1454
886.552002,1413
886.668762,1445
886.785645,1406
886.902344,1429
887.019165,1435
887.135925,1439
887.252747,1458
887.369446,1401
887.486267,1415
887.603027,1405
887.719788,1436
887.836548,1393
887.953247,1370
888.070068,1427
888.186829,1407
888.303528,1370
888.420288,1392
888.536987,1379
888.653687,1390
888.770447,1407
888.887146,1386
889.003967,1387
889.120667,1363
889.237305,1423
889.354065,1433
889.470703,1360
889.587463,1377
889.704163,1406
889.820862,1352
889.937561,1388
890.054199,1357
890.170837,1399
890.287598,1360
890.404236,1369
890.520874,1343
890.637634,1407
890.754211,1412
890.87085,1393
890.987549,1386
891.104187,1394
891.220886,1415
891.337463,1376
891.454102,1382
891.57074,1432
891.687378,1391
891.804077,1420
891.920654,1358
892.037231,1388
892.15387,1378
892.270447,1397
892.387085,1402
892.503723,1378
892.6203,1370
892.736877,1397
892.853516,1430
892.970032,1419
893.08667,1362
893.203186,1430
893.319763,1368
893.43634,1392
893.552917,1403
893.669556,1427
893.786011,1394
893.902588,1395
894.019165,1397
894.135681,1345
894.252197,1374
894.368835,1432
894.485291,1386
894.601868,1407
894.718384,1368
894.8349,1426
894.951355,1376
895.067932,1380
895.184448,1395
895.300964,1397
895.417419,1374
895.533936,1381
895.650452,1403
895.766907,1417
895.883423,1432
895.999878,1419
896.116333,1383
896.232849,1420
896.349304,1418
896.465759,1377
896.582214,1438
896.698669,1381
896.815125,1421
896.931641,1408
897.048035,1373
897.164551,1385
897.280884,1406
897.397339,1409
897.513794,1381
897.630249,1421
897.746582,1393
897.863098,1373
897.979431,1391
898.095886,1348
898.212341,1368
898.328674,1425
898.445129,1457
898.561462,1381
898.677795,1418
898.794312,1366
898.910645,1386
899.026978,1408
899.143433,1390
899.259766,1417
899.37616,1389
899.492493,1398
899.608765,1383
899.725159,1433
899.841553,1407
899.957947,1429
900.07428,1442
900.190552,1435
900.306946,1430
900.423157,1410
900.53949,1378
900.655884,1393
900.772156,1394
900.888489,1426
901.004822,1428
901.121033,1425
901.237366,1434
901.353699,1405
901.46991,1395
901.586304,1401
901.702515,1443
901.818787,1427
901.93512,1430
902.051331,1395
902.167603,1440
902.283875,1423
902.400085,1433
902.516418,1460
902.632629,1449
902.74884,1455
902.865112,1492
902.981384,1441
903.097595,1438
903.213867,1446
903.330017,1469
903.446289,1466
903.5625,1470
903.67865,1474
903.794922,1455
903.911072,1444
904.027344,1425
904.143494,1465
904.259705,1490
904.375916,1399
904.492065,1441
904.608215,1421
904.724426,1439
904.840576,1414
904.956726,1423
905.072876,1429
905.189087,1408
905.305176,1448
905.421387,1437
905.537537,1475
905.653687,1389
905.769775,1437
905.885925,1438
906.002014,1393
906.118164,1451
906.234314,1447
906.350403,1385
906.466492,1411
906.582642,1401
906.69873,1411
906.814758,1416
906.930908,1401
907.046936,1413
907.163086,1403
907.279175,1407
907.395264,1458
907.511353,1445
907.62738,1423
907.743408,1451
907.859497,1449
907.975525,1439
908.091553,1409
908.207703,1474
908.32373,1416
908.439758,1431
908.555786,1395
908.671814,1399
908.787842,1446
908.90387,1436
909.019775,1392
909.135864,1437
909.251892,1436
909.367859,1405
909.483826,1383
909.599854,1451
909.715881,1434
909.831848,1475
909.947815,1389
910.063782,1409
910.179749,1413
910.295776,1443
910.411743,1474
910.527649,1441
910.643616,1426
910.759583,1414
910.875488,1463
910.991455,1416
911.107361,1445
911.223267,1424
911.339294,1443
911.4552,1442
911.571106,1449
911.687073,1432
911.802979,1407
911.918823,1442
912.034729,1442
912.150635,1433
912.266602,1461
912.382446,1387
912.498352,1417
912.614197,1385
912.730103,1423
912.846008,1440
792.44574,2547
792.56488,2532
792.68396,2548
792.80304,2492
792.92218,2417
793.041199,2420
793.160339,2399
793.279419,2310
793.398499,2355
793.517578,2352
793.636658,2313
793.755737,2355
793.874817,2285
793.993896,2324
794.112976,2224
794.232056,2231
794.351074,2234
794.470215,2188
794.589233,2258
794.708313,2135
794.827393,2149
794.946411,2173
795.065552,2196
795.18457,2182
795.303589,2170
795.422668,2220
795.541687,2212
795.660767,2215
795.779846,2159
795.898865,2108
796.017883,2095
796.136963,2100
796.255981,2171
796.375061,2093
796.49408,2110
796.613037,2160
796.732117,2101
796.851135,2077
796.970154,2096
797.089233,2084
797.208191,2014
797.327271,2104
797.446228,2016
797.565186,2029
797.684265,2044
797.803223,2003
797.922241,2052
798.04126,2052
798.160278,2026
798.279297,2034
798.398315,1990
798.517273,2063
798.636292,2059
798.75531,2035
798.874268,1974
798.993286,2067
799.112244,2036
799.231323,2016
799.350281,2028
799.469238,2018
799.588257,2016
799.707153,2066
799.826111,2051
799.945129,2026
800.064087,2052
800.183044,2047
800.302063,2019
800.421021,2052
800.539978,2039
800.658936,2028
800.777893,2033
800.896912,2054
801.015747,2007
801.134705,2045
801.253723,2008
801.37262,2052
801.491638,2070
801.610535,2017
801.729492,2064
801.84845,2094
801.967407,2029
802.086243,2087
802.205261,2054
802.324158,2076
802.443115,2111
802.562073,2024
802.680969,2122
802.799927,2084
802.918762,2022
803.037659,2087
803.156677,2062
803.275574,2111
803.39447,2111
803.513428,2106
803.632263,2093
803.751221,2062
803.870117,2075
803.989014,2088
804.107971,2056
804.226746,2082
804.345642,2105
804.4646,2082
804.583496,2120
804.702393,2133
804.821228,2088
804.940125,2111
805.059021,2104
805.177917,2154
805.296814,2131
805.415649,2091
805.534546,2133
805.653442,2071
805.772278,2138
805.891113,2207
806.01001,2147
806.128906,2166
806.247742,2172
806.366577,2105
806.485413,2185
806.604309,2181
806.723145,2150
806.84198,2150
806.960876,2110
807.079712,2165
807.198486,2175
807.317383,2167
807.436218,2157
807.554993,2141
807.673889,2150
807.792725,2134
807.91156,2188
808.030396,2116
808.14917,2130
808.268005,2179
808.386841,2230
808.505676,2218
808.624451,2179
808.743286,2238
808.862122,2179
808.980896,2188
809.099731,2170
809.218506,2208
809.337341,2187
809.456116,2221
809.57489,2210
809.693726,2151
809.8125,2152
809.931274,2178
810.050049,2249
810.168884,2240
810.287659,2226
810.406372,2218
810.525269,2266
810.643982,2187
810.762756,2225
810.881531,2227
811.000305,2175
811.11908,2197
811.237854,2175
811.356567,2285
811.475403,2251
811.594116,2228
811.71283,2215
811.831604,2209
811.950378,2255
812.069153,2182
812.187927,2256
812.30658,2204
812.425415,2248
812.544128,2254
812.662781,2292
812.781616,2173
812.900269,2234
813.019043,2192
813.137756,2311
813.256531,2240
813.375244,2177
813.493896,2249
813.612671,2226
813.731384,2186
813.850037,2232
813.96875,2207
814.087524,2162
814.206238,2194
814.324951,2228
814.443604,2180
814.562256,2175
814.68103,2150
814.799683,2216
814.918335,2182
815.037109,2169
815.155762,2214
815.274475,2171
815.393188,2175
815.511841,2135
815.630554,2122
815.749146,2139
815.867859,2114
815.986572,2157
816.105164,2151
816.223877,2109
816.342529,2090
816.461182,2119
816.579895,2218
816.698486,2138
816.817139,2192
816.935791,2187
817.054504,2170
817.173096,2166
817.291748,2114
817.4104,2184
817.529053,2050
817.647644,2053
817.766235,2028
817.884949,1973
818.00354,1918
818.122192,1902
818.240845,1911
818.359436,1814
818.478088,1797
818.59668,1793
818.715271,1779
818.833923,1741
818.952515,1739
819.071106,1771
819.189758,1709
819.30835,1686
819.426941,1646
819.545532,1660
819.664124,1650
819.782715,1604
819.901306,1635
820.019897,1606
820.138489,1583
820.25708,1659
820.375671,1597
820.494202,1631
820.612732,1610
820.731384,1578
820.849915,1554
820.968506,1586
821.087097,1556
821.205627,1567
821.324158,1587
821.442749,1550
821.561279,1541
821.679871,1579
821.798401,1513
821.916931,1494
822.035461,1535
822.154053,1543
822.272583,1538
822.391174,1541
822.509583,1518
822.628174,1526
822.746704,1551
822.865234,1493
822.983765,1527
823.102295,1507
823.220825,1535
823.339294,1495
823.457825,1545
823.576355,1571
823.694824,1533
823.813354,1566
823.931885,1535
824.050354,1522
824.168884,1535
824.287354,1553
824.405823,1606
824.524353,1584
824.642822,1530
824.761353,1554
824.879822,1506
824.998291,1547
825.116699,1543
825.235291,1516
825.353699,1536
825.472168,1505
825.590637,1529
825.709106,1525
825.827576,1491
825.946045,1499
826.064453,1494
826.182983,1509
826.301392,1493
826.4198,1443
826.53833,1431
826.656738,1464
826.775208,1465
826.893677,1442
827.012024,1436
827.130493,1455
827.248962,1418
827.36731,1429
827.485779,1475
827.604248,1457
827.722595,1414
827.841064,1408
827.959412,1404
828.077942,1424
828.196289,1434
828.314636,1421
828.433105,1447
828.551514,1446
828.669861,1391
828.78833,1393
828.906677,1448
829.025085,1419
829.143433,1411
829.261841,1420
829.38031,1409
829.498657,1452
829.617004,1395
829.735413,1419
829.85376,1419
829.972107,1420
830.090515,1397
830.208862,1415
830.327209,1434
830.445557,1418
830.563904,1405
830.682312,1446
830.800659,1377
830.919006,1391
831.037354,1397
831.155701,1440
831.274048,1397
831.392395,1375
831.51062,1431
831.629028,1398
831.747314,1448
831.865662,1391
831.984009,1453
832.102356,1415
832.220642,1393
832.338928,1413
832.457275,1427
832.575623,1408
832.693909,1454
832.812134,1400
832.930481,1384
833.048828,1422
833.167114,1441
833.2854,1424
833.403687,1419
833.521973,1447
833.640259,1400
833.758545,1417
833.876831,1383
833.995056,1411
834.113281,1420
834.231628,1387
834.349915,1425
834.468201,1439
834.586426,1383
834.704651,1419
834.822998,1422
834.941162,1427
835.059448,1412
835.177673,1426
835.295959,1381
835.414246,1393
835.53241,1441
835.650635,1455
835.768921,1406
835.887146,1480
836.005371,1434
836.123596,1392
836.241821,1450
836.360046,1415
836.478271,1485
836.596497,1461
836.714722,1471
836.832886,1524
836.95105,1470
837.069336,1483
837.1875,1467
837.305725,1474
837.423889,1498
837.542053,1478
837.660339,1495
837.778503,1480
837.896667,1488
838.014832,1481
838.132996,1509
838.25116,1478
838.369385,1489
838.487488,1471
838.605713,1458
838.723877,1468
838.84198,1472
838.960205,1476
839.078308,1458
839.196472,1490
839.314636,1480
839.4328,1484
839.550964,1450
839.669067,1428
839.787231,1456
839.905396,1471
840.023499,1436
840.141602,1473
840.259766,1486
840.377869,1490
840.495972,1457
840.614136,1407
840.732239,1441
840.850342,1468
840.968445,1434
841.086548,1426
841.204651,1437
841.322754,1479
841.440918,1409
841.55896,1439
841.677002,1439
841.795166,1396
841.913208,1425
842.031311,1452
842.149353,1440
842.267456,1413
842.385498,1413
842.503601,1422
842.621643,1385
842.739746,1416
842.857788,1407
842.97583,1440
843.093933,1362
843.211975,1423
843.330017,1407
843.44812,1380
843.566101,1352
843.684204,1383
843.802246,1379
843.920227,1393
844.038269,1391
844.156311,1402
844.274292,1374
844.392395,1373
844.510376,1354
844.628357,1352
844.74646,1329
844.864441,1367
844.982422,1368
845.100403,1395
845.218384,1337
845.336426,1394
845.454468,1403
845.572449,1389
845.69043,1378
845.808411,1338
845.926453,1390
846.044373,1327
846.162354,1383
846.280396,1367
846.398315,1333
846.516296,1368
846.634216,1362
846.752197,1363
846.870178,1361
846.988098,1442
847.106079,1354
847.22406,1405
847.34198,1386
847.4599,1357
847.577881,1383
847.695801,1366
847.813782,1368
847.931641,1380
848.049561,1357
848.167603,1397
848.285461,1366
848.403381,1366
848.521362,1399
848.639221,1405
848.75708,1348
848.875,1391
848.99292,1391
849.110901,1368
849.22876,1378
849.34668,1352
849.464539,1345
849.582458,1367
849.700317,1365
849.818176,1389
849.936096,1341
850.053955,1402
850.171875,1304
850.289673,1393
850.407593,1368
850.525452,1348
850.643311,1347
850.761169,1383
850.878967,1387
850.996887,1349
851.114746,1390
851.232544,1371
851.350403,1366
851.468262,1396
851.58606,1350
851.703979,1371
851.821777,1401
851.939636,1377
852.057434,1381
852.175232,1382
852.293091,1392
852.410889,1383
852.528687,1386
852.646545,1403
852.764343,1434
852.88208,1393
852.999939,1410
853.117676,1414
853.235535,1407
853.353271,1338
853.471069,1387
853.588928,1328
853.706604,1378
853.824402,1381
853.9422,1420
854.059998,1397
854.177734,1386
854.295532,1418
854.413269,1357
854.531006,1394
854.648804,1400
854.766541,1394
854.884277,1420
855.002014,1422
855.119751,1403
855.237549,1343
855.355225,1419
855.473022,1384
855.590698,1418
855.708435,1387
855.826172,1425
855.943848,1396
856.061646,1479
856.179321,1452
856.296997,1418
856.414795,1435
856.53241,1411
856.650085,1430
856.767822,1420
856.885559,1415
857.003174,1401
857.120911,1409
857.238586,1419
857.356201,1507
857.473938,1425
857.591614,1415
857.709351,1412
857.826965,1411
857.944641,1443
858.062317,1419
858.179993,1410
858.297668,1400
858.415283,1421
858.532959,1400
858.650574,1408
858.768188,1382
858.885803,1441
859.003479,1417
859.121094,1385
859.23877,1440
859.356384,1412
859.473999,1415
859.591675,1368
859.709229,1382
859.826843,1379
859.944458,1382
860.062012,1368
860.179626,1374
860.297302,1393
860.414856,1362
860.532471,1351
860.650024,1397
860.767639,1390
860.885193,1395
861.002808,1367
861.120361,1399
861.237976,1406
861.35553,1379
861.473022,1406
861.590698,1369
861.708191,1403
861.825745,1366
861.943298,1381
862.060852,1370
862.178406,1396
862.295959,1378
862.413513,1376
862.531006,1359
862.64856,1399
862.766113,1372
862.883667,1365
863.00116,1339
863.118713,1392
863.236206,1358
863.353699,1370
863.471252,1394
863.588745,1361
863.706177,1407
863.82373,1424
863.941162,1384
864.058716,1360
864.176208,1400
864.29364,1356
864.411194,1361
864.528687,1379
864.646118,1402
864.763611,1389
864.881042,1366
864.998535,1413
865.116028,1341
865.233459,1387
865.350891,1356
865.468384,1427
865.585754,1393
865.703308,1391
865.820679,1381
865.938171,1380
866.055542,1405
866.173035,1397
866.290466,1379
866.407837,1364
866.52533,1392
866.6427,1413
866.760071,1380
866.877563,1398
866.994934,1402
867.112305,1393
867.229736,1402
867.347107,1411
867.464539,1374
867.58197,1434
867.699341,1388
867.81665,1401
867.934082,1366
868.051453,1374
868.168823,1408
868.286194,1390
868.403564,1396
868.520935,1363
868.638306,1372
868.755676,1348
868.872986,1426
868.990295,1398
869.107727,1424
869.225037,1418
869.342346,1400
869.459717,1423
869.577026,1349
869.694336,1411
869.811707,1393
869.929016,1460
870.046326,1362
870.163635,1423
870.280945,1368
870.398254,1431
870.515564,1412
870.632812,1436
870.750183,1416
870.867432,1387
870.984741,1415
871.102051,1415
871.219299,1397
871.336609,1432
871.453918,1416
871.571106,1427
871.688416,1451
871.805664,1402
871.922852,1425
872.040222,1370
872.157471,1442
872.274719,1436
872.391968,1423
872.509155,1392
872.626465,1414
872.743652,1386
872.860962,1372
872.978149,1413
873.095337,1437
873.212646,1421
873.329834,1417
873.44696,1394
873.564209,1417
873.681396,1401
873.798645,1407
873.915894,1407
874.03302,1424
874.150208,1427
874.267456,1388
874.384583,1397
874.501831,1428
874.618958,1418
874.736145,1429
874.853333,1399
874.970459,1419
875.087646,1434
875.204834,1413
875.32196,1425
875.439148,1421
875.556274,1434
875.673401,1416
875.790527,1400
875.907715,1377
876.024841,1362
876.141968,1440
876.259094,1398
876.376282,1411
876.493347,1425
876.610474,1439
876.7276,1391
876.844727,1390
876.961853,1402
877.078918,1433
877.195984,1366
877.313171,1392
877.430237,1386
877.547302,1381
877.664368,1408
877.781433,1413
877.898499,1383
878.015625,1441
878.13269,1364
878.249695,1411
878.366821,1375
878.483887,1368
878.600952,1403
878.717957,1374
878.834961,1355
878.952087,1391
879.069092,1387
879.186157,1377
879.303162,1407
879.420227,1388
879.537231,1409
879.654236,1430
879.77124,1397
879.888306,1359
880.005249,1428
880.122314,1360
880.239319,1415
880.356323,1432
880.473328,1389
880.590271,1373
880.707275,1369
880.824341,1406
880.941284,1371
881.058228,1388
881.175232,1379
881.292236,1359
881.40918,1410
881.526123,1387
881.643066,1389
881.760071,1409
881.877014,1409
881.993958,1400
882.11084,1405
882.227783,1406
882.344727,1403
882.46167,1367
882.578613,1341
882.695618,1363
882.812439,1401
882.929382,1390
883.046326,1377
883.163208,1406
883.280151,1419
883.397034,1396
883.513916,1411
883.630798,1376
883.747742,1436
883.864563,1414
883.981506,1376
884.098389,1428
884.21521,1402
884.332153,1436
884.448975,1369
884.565796,1411
884.682678,1329
884.7995,1424
884.916443,1405
885.033264,1420
885.150085,1433
885.266968,1427
885.383789,1441
885.500671,1433
885.617493,1472
885.734314,1465
885.851196,1389
885.967896,1454
886.084717,1478
886.201599,1485
886.318359,1432
886.435181,1420
886.552002,1475
886.668762,1452
886.785645,1463
886.902344,1508
887.019165,1463
887.135925,1446
887.252747,1459
887.369446,1462
887.486267,1419
887.603027,1417
887.719788,1431
887.836548,1428
887.953247,1406
888.070068,1448
888.186829,1415
888.303528,1394
888.420288,1433
888.536987,1430
888.653687,1419
888.770447,1402
888.887146,1410
889.003967,1453
889.120667,1431
889.237305,1400
889.354065,1409
889.470703,1392
889.587463,1393
889.704163,1412
889.820862,1355
889.937561,1424
890.054199,1428
890.170837,1443
890.287598,1404
890.404236,1337
890.520874,1432
890.637634,1434
890.754211,1429
890.87085,1375
890.987549,1435
891.104187,1441
891.220886,1440
891.337463,1414
891.454102,1436
891.57074,1455
891.687378,1410
891.804077,1407
891.920654,1407
892.037231,1433
892.15387,1392
892.270447,1404
892.387085,1377
892.503723,1446
892.6203,1428
892.736877,1428
892.853516,1402
892.970032,1407
893.08667,1429
893.203186,1443
893.319763,1377
893.43634,1369
893.552917,1424
893.669556,1391
893.786011,1476
893.902588,1427
894.019165,1451
894.135681,1398
894.252197,1437
894.368835,1388
894.485291,1401
894.601868,1438
894.718384,1405
894.8349,1431
894.951355,1434
895.067932,1405
895.184448,1462
895.300964,1433
895.417419,1399
895.533936,1430
895.650452,1429
895.766907,1430
895.883423,1439
895.999878,1409
896.116333,1429
896.232849,1411
896.349304,1421
896.465759,1446
896.582214,1408
896.698669,1439
896.815125,1438
896.931641,1426
897.048035,1413
897.164551,1448
897.280884,1446
897.397339,1397
897.513794,1446
897.630249,1443
897.746582,1421
897.863098,1408
897.979431,1416
898.095886,1422
898.212341,1426
898.328674,1424
898.445129,1437
898.561462,1427
898.677795,1433
898.794312,1446
898.910645,1467
899.026978,1435
899.143433,1427
899.259766,1394
899.37616,1461
899.492493,1449
899.608765,1473
899.725159,1386
899.841553,1481
899.957947,1409
900.07428,1473
900.190552,1453
900.306946,1468
900.423157,1461
900.53949,1433
900.655884,1509
900.772156,1425
900.888489,1435
901.004822,1455
901.121033,1485
901.237366,1469
901.353699,1440
901.46991,1509
901.586304,1415
901.702515,1463
901.818787,1457
901.93512,1492
902.051331,1430
902.167603,1479
902.283875,1464
902.400085,1459
902.516418,1475
902.632629,1466
902.74884,1488
902.865112,1466
902.981384,1506
903.097595,1506
903.213867,1524
903.330017,1471
903.446289,1479
903.5625,1544
903.67865,1422
903.794922,1493
903.911072,1431
904.027344,1488
904.143494,1436
904.259705,1453
904.375916,1474
904.492065,1471
904.608215,1435
904.724426,1441
904.840576,1450
904.956726,1430
905.072876,1465
905.189087,1452
905.305176,1510
905.421387,1468
905.537537,1428
905.653687,1465
905.769775,1446
905.885925,1504
906.002014,1493
906.118164,1470
906.234314,1446
906.350403,1463
906.466492,1485
906.582642,1415
906.69873,1459
906.814758,1429
906.930908,1451
907.046936,1467
907.163086,1458
907.279175,1442
907.395264,1503
907.511353,1447
907.62738,1501
907.743408,1426
907.859497,1470
907.975525,1442
908.091553,1490
908.207703,1432
908.32373,1473
908.439758,1455
908.555786,1462
908.671814,1451
908.787842,1476
908.90387,1445
909.019775,1452
909.135864,1439
909.251892,1438
909.367859,1447
909.483826,1475
909.599854,1502
909.715881,1458
909.831848,1428
909.947815,1483
910.063782,1434
910.179749,1432
910.295776,1457
910.411743,1429
910.527649,1433
910.643616,1465
910.759583,1457
910.875488,1483
910.991455,1442
911.107361,1445
911.223267,1420
911.339294,1512
911.4552,1471
911.571106,1465
911.687073,1480
911.802979,1458
911.918823,1487
912.034729,1463
912.150635,1414
912.266602,1435
912.382446,1468
912.498352,1455
912.614197,1436
912.730103,1472
912.846008,1440
792.44574,2616
792.56488,2564
792.68396,2516
792.80304,2493
792.92218,2378
793.041199,2413
793.160339,2421
793.279419,2346
793.398499,2369
793.517578,2397
793.636658,2340
793.755737,2293
793.874817,2322
793.993896,2311
794.112976,2290
794.232056,2266
794.351074,2288
794.470215,2201
794.589233,2187
794.708313,2179
794.827393,2213
794.946411,2206
795.065552,2178
795.18457,2166
795.303589,2161
795.422668,2188
795.541687,2162
795.660767,2214
795.779846,2202
795.898865,2162
796.017883,2118
796.136963,2078
796.255981,2146
796.375061,2121
796.49408,2086
796.613037,2075
796.732117,2116
796.851135,2095
796.970154,2084
797.089233,2075
797.208191,2096
797.327271,2042
797.446228,2067
797.565186,2032
797.684265,2072
797.803223,2066
797.922241,2069
798.04126,2038
798.160278,2041
798.279297,2078
798.398315,2026
798.517273,2073
798.636292,2062
798.75531,1981
798.874268,2082
798.993286,2056
799.112244,1983
799.231323,2055
799.350281,1982
799.469238,2024
799.588257,2035
799.707153,2040
799.826111,2088
799.945129,2053
800.064087,2069
800.183044,2016
800.302063,2049
800.421021,2050
800.539978,2012
800.658936,2028
800.777893,2071
800.896912,2040
801.015747,1985
801.134705,2036
801.253723,2097
801.37262,2070
801.491638,2024
801.610535,2042
801.729492,2081
801.84845,2081
801.967407,2075
802.086243,2067
802.205261,2050
802.324158,2072
802.443115,2049
802.562073,2053
802.680969,2106
802.799927,2091
802.918762,2051
803.037659,2052
803.156677,2104
803.275574,2070
803.39447,2019
803.513428,2077
803.632263,2040
803.751221,2084
803.870117,2092
803.989014,2106
804.107971,2127
804.226746,2135
804.345642,2068
804.4646,2053
804.583496,2140
804.702393,2103
804.821228,2077
804.940125,2152
805.059021,2141
805.177917,2136
805.296814,2070
805.415649,2160
805.534546,2178
805.653442,2144
805.772278,2172
805.891113,2165
806.01001,2121
806.128906,2089
806.247742,2116
806.366577,2140
806.485413,2151
806.604309,2193
806.723145,2115
806.84198,2148
806.960876,2158
807.079712,2138
807.198486,2182
807.317383,2187
807.436218,2117
807.554993,2173
807.673889,2141
807.792725,2109
807.91156,2186
808.030396,2229
808.14917,2139
808.268005,2185
808.386841,2152
808.505676,2189
808.624451,2188
808.743286,2171
808.862122,2156
808.980896,2178
809.099731,2198
809.218506,2188
809.337341,2170
809.456116,2214
809.57489,2256
809.693726,2213
809.8125,2261
809.931274,2148
810.050049,2213
810.168884,2222
810.287659,2240
810.406372,2263
810.525269,2222
810.643982,2210
810.762756,2187
810.881531,2226
811.000305,2241
811.11908,2220
811.237854,2241
811.356567,2194
811.475403,2208
811.594116,2200
811.71283,2215
811.831604,2188
811.950378,2198
812.069153,2244
812.187927,2272
812.30658,2290
812.425415,2248
812.544128,2231
812.662781,2281
812.781616,2246
812.900269,2207
813.019043,2225
813.137756,2263
813.256531,2215
813.375244,2248
813.493896,2242
813.612671,2239
813.731384,2227
813.850037,2226
813.96875,2211
814.087524,2240
814.206238,2190
814.324951,2227
814.443604,2164
814.562256,2203
814.68103,2168
814.799683,2198
814.918335,2202
815.037109,2208
815.155762,2141
815.274475,2163
815.393188,2168
815.511841,2151
815.630554,2191
815.749146,2116
815.867859,2128
815.986572,2081
816.105164,2127
816.223877,2058
816.342529,2110
816.461182,2129
816.579895,2158
816.698486,2129
816.817139,2141
816.935791,2205
817.054504,2237
817.173096,2150
817.291748,2126
817.4104,2103
817.529053,2077
817.647644,2093
817.766235,2031
817.884949,1996
818.00354,1934
818.122192,1905
818.240845,1895
818.359436,1894
818.478088,1832
818.59668,1801
818.715271,1788
818.833923,1770
818.952515,1745
819.071106,1747
819.189758,1675
819.30835,1610
819.426941,1700
819.545532,1679
819.664124,1692
819.782715,1665
819.901306,1651
820.019897,1664
820.138489,1656
820.25708,1629
820.375671,1633
820.494202,1619
820.612732,1618
820.731384,1595
820.849915,1556
820.968506,1563
821.087097,1555
821.205627,1554
821.324158,1556
821.442749,1556
821.561279,1565
821.679871,1565
821.798401,1544
821.916931,1546
822.035461,1554
822.154053,1555
822.272583,1561
822.391174,1538
822.509583,1488
822.628174,1545
822.746704,1486
822.865234,1534
822.983765,1527
823.102295,1550
823.220825,1528
823.339294,1530
823.457825,1508
823.576355,1553
823.694824,1568
823.813354,1477
823.931885,1516
824.050354,1542
824.168884,1530
824.287354,1519
824.405823,1544
824.524353,1612
824.642822,1564
824.761353,1536
824.879822,1560
824.998291,1517
825.116699,1538
825.235291,1547
825.353699,1535
825.472168,1546
825.590637,1534
825.709106,1494
825.827576,1554
825.946045,1502
826.064453,1504
826.182983,1467
826.301392,1476
826.4198,1452
826.53833,1457
826.656738,1466
826.775208,1437
826.893677,1479
827.012024,1432
827.130493,1458
827.248962,1491
827.36731,1424
827.485779,1463
827.604248,1446
827.722595,1476
827.841064,1412
827.959412,1433
828.077942,1466
828.196289,1409
828.314636,1469
828.433105,1410
828.551514,1419
828.669861,1429
828.78833,1414
828.906677,1441
829.025085,1445
829.143433,1447
829.261841,1411
829.38031,1386
829.498657,1447
829.617004,1416
829.735413,1405
829.85376,1468
829.972107,1398
830.090515,1424
830.208862,1391
830.327209,1424
830.445557,1398
830.563904,1439
830.682312,1417
830.800659,1381
830.919006,1481
831.037354,1388
831.155701,1407
831.274048,1434
831.392395,1388
831.51062,1398
831.629028,1365
831.747314,1425
831.865662,1416
831.984009,1416
832.102356,1402
832.220642,1383
832.338928,1437
832.457275,1421
832.575623,1408
832.693909,1429
832.812134,1415
832.930481,1419
833.048828,1410
833.167114,1434
833.2854,1393
833.403687,1455
833.521973,1425
833.640259,1424
833.758545,1425
833.876831,1408
833.995056,1389
834.113281,1415
834.231628,1432
834.349915,1432
834.468201,1402
834.586426,1412
834.704651,1464
834.822998,1433
834.941162,1399
835.059448,1414
835.177673,1375
835.295959,1431
835.414246,1413
835.53241,1439
835.650635,1419
835.768921,1464
835.887146,1418
836.005371,1432
836.123596,1412
836.241821,1416
836.360046,1455
836.478271,1462
836.596497,1473
836.714722,1465
836.832886,1463
836.95105,1436
837.069336,1491
837.1875,1488
837.305725,1490
837.423889,1475
837.542053,1455
837.660339,1522
837.778503,1476
837.896667,1482
838.014832,1502
838.132996,1467
838.25116,1471
838.369385,1488
838.487488,1491
838.605713,1505
838.723877,1480
838.84198,1509
838.960205,1487
839.078308,1469
839.196472,1439
839.314636,1484
839.4328,1474
839.550964,1477
839.669067,1422
839.787231,1476
839.905396,1467
840.023499,1438
840.141602,1479
840.259766,1451
840.377869,1452
840.495972,1447
840.614136,1469
840.732239,1471
840.850342,1416
840.968445,1464
841.086548,1455
841.204651,1455
841.322754,1450
841.440918,1450
841.55896,1427
841.677002,1425
841.795166,1400
841.913208,1414
842.031311,1458
842.149353,1474
842.267456,1422
842.385498,1438
842.503601,1424
842.621643,1385
842.739746,1451
842.857788,1410
842.97583,1383
843.093933,1424
843.211975,1383
843.330017,1357
843.44812,1373
843.566101,1419
843.684204,1389
843.802246,1394
843.920227,1431
844.038269,1379
844.156311,1387
844.274292,1409
844.392395,1406
844.510376,1376
844.628357,1404
844.74646,1362
844.864441,1404
844.982422,1415
845.100403,1391
845.218384,1402
845.336426,1367
845.454468,1371
845.572449,1396
845.69043,1403
845.808411,1375
845.926453,1390
846.044373,1395
846.162354,1382
846.280396,1371
846.398315,1362
846.516296,1397
846.634216,1398
846.752197,1408
846.870178,1375
846.988098,1393
847.106079,1382
847.22406,1424
847.34198,1390
847.4599,1373
847.577881,1402
847.695801,1380
847.813782,1401
847.931641,1407
848.049561,1343
848.167603,1395
848.285461,1368
848.403381,1394
848.521362,1340
848.639221,1402
848.75708,1401
848.875,1376
848.99292,1416
849.110901,1412
849.22876,1377
849.34668,1372
849.464539,1377
849.582458,1362
849.700317,1427
849.818176,1374
849.936096,1378
850.053955,1337
850.171875,1373
850.289673,1362
850.407593,1388
850.525452,1376
850.643311,1376
850.761169,1371
850.878967,1376
850.996887,1369
851.114746,1360
851.232544,1351
851.350403,1384
851.468262,1374
851.58606,1363
851.703979,1395
851.821777,1343
851.939636,1409
852.057434,1386
852.175232,1392
852.293091,1448
852.410889,1359
852.528687,1423
852.646545,1356
852.764343,1444
852.88208,1416
852.999939,1414
853.117676,1399
853.235535,1406
853.353271,1418
853.471069,1380
853.588928,1393
853.706604,1346
853.824402,1385
853.9422,1432
854.059998,1365
854.177734,1369
854.295532,1453
854.413269,1394
854.531006,1413
854.648804,1414
854.766541,1448
854.884277,1392
855.002014,1394
855.119751,1364
855.237549,1407
855.355225,1434
855.473022,1453
855.590698,1427
855.708435,1396
855.826172,1461
855.943848,1393
856.061646,1420
856.179321,1395
856.296997,1434
856.414795,1418
856.53241,1421
856.650085,1430
856.767822,1422
856.885559,1422
857.003174,1458
857.120911,1420
857.238586,1440
857.356201,1426
857.473938,1439
857.591614,1439
857.709351,1441
857.826965,1402
857.944641,1410
858.062317,1406
858.179993,1433
858.297668,1431
858.415283,1387
858.532959,1398
858.650574,1424
858.768188,1406
858.885803,1414
859.003479,1357
859.121094,1435
859.23877,1417
859.356384,1427
859.473999,1421
859.591675,1403
859.709229,1361
859.826843,1384
859.944458,1377
860.062012,1393
860.179626,1378
860.297302,1392
860.414856,1425
860.532471,1349
860.650024,1399
860.767639,1383
860.885193,1394
861.002808,1390
861.120361,1366
861.237976,1397
861.35553,1333
861.473022,1393
861.590698,1377
861.708191,1431
861.825745,1389
861.943298,1377
862.060852,1418
862.178406,1371
862.295959,1328
862.413513,1368
862.531006,1372
862.64856,1395
862.766113,1382
862.883667,1354
863.00116,1396
863.118713,1408
863.236206,1396
863.353699,1371
863.471252,1386
863.588745,1380
863.706177,1372
863.82373,1376
863.941162,1359
864.058716,1387
864.176208,1346
864.29364,1380
864.411194,1399
864.528687,1376
864.646118,1405
864.763611,1402
864.881042,1406
864.998535,1349
865.116028,1393
865.233459,1381
865.350891,1384
865.468384,1369
865.585754,1431
865.703308,1388
865.820679,1456
865.938171,1380
866.055542,1381
866.173035,1372
866.290466,1408
866.407837,1394
866.52533,1386
866.6427,1403
866.760071,1372
866.877563,1391
866.994934,1416
867.112305,1388
867.229736,1363
867.347107,1419
867.464539,1391
867.58197,1379
867.699341,1359
867.81665,1407
867.934082,1384
868.051453,1418
868.168823,1398
868.286194,1425
868.403564,1408
868.520935,1407
868.638306,1435
868.755676,1375
868.872986,1409
868.990295,1442
869.107727,1426
869.225037,1392
869.342346,1440
869.459717,1384
869.577026,1424
869.694336,1438
869.811707,1371
869.929016,1420
870.046326,1373
870.163635,1412
870.280945,1399
870.398254,1368
870.515564,1428
870.632812,1407
870.750183,1455
870.867432,1409
870.984741,1418
871.102051,1409
871.219299,1423
871.336609,1416
871.453918,1451
871.571106,1415
871.688416,1443
871.805664,1409
871.922852,1424
872.040222,1434
872.157471,1408
872.274719,1428
872.391968,1426
872.509155,1374
872.626465,1409
872.743652,1419
872.860962,1409
872.978149,1438
873.095337,1417
873.212646,1440
873.329834,1411
873.44696,1454
873.564209,1402
873.681396,1404
873.798645,1395
873.915894,1366
874.03302,1420
874.150208,1448
874.267456,1404
874.384583,1375
874.501831,1439
874.618958,1415
874.736145,1411
874.853333,1426
874.970459,1396
875.087646,1383
875.204834,1417
875.32196,1384
875.439148,1415
875.556274,1421
875.673401,1420
875.790527,1392
875.907715,1355
876.024841,1426
876.141968,1394
876.259094,1417
876.376282,1397
876.493347,1427
876.610474,1400
876.7276,1397
876.844727,1439
876.961853,1420
877.078918,1428
877.195984,1402
877.313171,1417
877.430237,1402
877.547302,1393
877.664368,1391
877.781433,1454
877.898499,1440
878.015625,1393
878.13269,1407
878.249695,1404
878.366821,1392
878.483887,1405
878.600952,1386
878.717957,1400
878.834961,1424
878.952087,1419
879.069092,1402
879.186157,1427
879.303162,1404
879.420227,1412
879.537231,1407
879.654236,1421
879.77124,1374
879.888306,1385
880.005249,1354
880.122314,1399
880.239319,1416
880.356323,1419
880.473328,1408
880.590271,1385
880.707275,1391
880.824341,1397
880.941284,1377
881.058228,1392
881.175232,1416
881.292236,1337
881.40918,1343
881.526123,1384
881.643066,1394
881.760071,1379
881.877014,1422
881.993958,1433
882.11084,1365
882.227783,1409
882.344727,1390
882.46167,1390
882.578613,1412
882.695618,1358
882.812439,1418
882.929382,1390
883.046326,1425
883.163208,1373
883.280151,1389
883.397034,1431
883.513916,1396
883.630798,1392
883.747742,1403
883.864563,1408
883.981506,1404
884.098389,1389
884.21521,1408
884.332153,1472
884.448975,1419
884.565796,1419
884.682678,1424
884.7995,1464
884.916443,1437
885.033264,1478
885.150085,1439
885.266968,1468
885.383789,1440
885.500671,1469
885.617493,1486
885.734314,1470
885.851196,1464
885.967896,1459
886.084717,1473
886.201599,1458
886.318359,1453
886.435181,1458
886.552002,1492
886.668762,1485
886.785645,1435
886.902344,1472
887.019165,1432
887.135925,1450
887.252747,1443
887.369446,1454
887.486267,1450
887.603027,1440
887.719788,1411
887.836548,1461
887.953247,1393
888.070068,1444
888.186829,1431
888.303528,1447
888.420288,1412
888.536987,1428
888.653687,1390
888.770447,1409
888.887146,1423
889.003967,1398
889.120667,1425
889.237305,1413
889.354065,1367
889.470703,1396
889.587463,1408
889.704163,1407
889.820862,1389
889.937561,1395
890.054199,1402
890.170837,1407
890.287598,1424
890.404236,1436
890.520874,1410
890.637634,1430
890.754211,1378
890.87085,1418
890.987549,1399
891.104187,1437
891.220886,1412
891.337463,1423
891.454102,1441
891.57074,1451
891.687378,1440
891.804077,1441
891.920654,1399
892.037231,1422
892.15387,1468
892.270447,1446
892.387085,1412
892.503723,1434
892.6203,1413
892.736877,1450
892.853516,1466
892.970032,1420
893.08667,1443
893.203186,1432
893.319763,1393
893.43634,1427
893.552917,1405
893.669556,1450
893.786011,1438
893.902588,1432
894.019165,1419
894.135681,1472
894.252197,1452
894.368835,1477
894.485291,1446
894.601868,1457
894.718384,1467
894.8349,1419
894.951355,1424
895.067932,1494
895.184448,1432
895.300964,1407
895.417419,1458
895.533936,1433
895.650452,1423
895.766907,1457
895.883423,1411
895.999878,1458
896.116333,1429
896.232849,1430
896.349304,1446
896.465759,1398
896.582214,1456
896.698669,1428
896.815125,1465
896.931641,1406
897.048035,1437
897.164551,1440
897.280884,1439
897.397339,1403
897.513794,1451
897.630249,1439
897.746582,1445
897.863098,1420
897.979431,1445
898.095886,1432
898.212341,1490
898.328674,1437
898.445129,1450
898.561462,1472
898.677795,1482
898.794312,1456
898.910645,1492
899.026978,1408
899.143433,1454
899.259766,1425
899.37616,1427
899.492493,1454
899.608765,1449
899.725159,1461
899.841553,1449
899.957947,1478
900.07428,1453
900.190552,1431
900.306946,1494
900.423157,1435
900.53949,1446
900.655884,1444
900.772156,1455
900.888489,1448
901.004822,1397
901.121033,1428
901.237366,1428
901.353699,1476
901.46991,1427
901.586304,1434
901.702515,1440
901.818787,1481
901.93512,1474
902.051331,1508
902.167603,1490
902.283875,1492
902.400085,1440
902.516418,1490
902.632629,1456
902.74884,1480
902.865112,1510
902.981384,1468
903.097595,1459
903.213867,1469
903.330017,1514
903.446289,1498
903.5625,1487
903.67865,1504
903.794922,1496
903.911072,1449
904.027344,1466
904.143494,1515
904.259705,1462
904.375916,1480
904.492065,1476
904.608215,1502
904.724426,1465
904.840576,1448
904.956726,1475
905.072876,1477
905.189087,1468
905.305176,1452
905.421387,1466
905.537537,1463
905.653687,1464
905.769775,1468
905.885925,1423
906.002014,1507
906.118164,1456
906.234314,1448
906.350403,1467
906.466492,1457
906.582642,1459
906.69873,1498
906.814758,1431
906.930908,1456
907.046936,1448
907.163086,1448
907.279175,1478
907.395264,1436
907.511353,1475
907.62738,1504
907.743408,1446
907.859497,1493
907.975525,1509
908.091553,1431
908.207703,1467
908.32373,1525
908.439758,1442
908.555786,1476
908.671814,1472
908.787842,1442
908.90387,1477
909.019775,1505
909.135864,1458
909.251892,1485
909.367859,1463
909.483826,1532
909.599854,1473
909.715881,1526
909.831848,1415
909.947815,1471
910.063782,1445
910.179749,1465
910.295776,1510
910.411743,1464
910.527649,1483
910.643616,1495
910.759583,1469
910.875488,1463
910.991455,1452
911.107361,1496
911.223267,1475
911.339294,1490
911.4552,1490
911.571106,1487
911.687073,1530
911.802979,1467
911.918823,1428
912.034729,1489
912.150635,1499
912.266602,1463
912.382446,1461
912.498352,1467
912.614197,1442
912.730103,1492
912.846008,1432
