792.44574,2138
792.56488,2210
792.68396,2151
792.80304,2156
792.92218,2099
793.041199,2085
793.160339,2048
793.279419,2072
793.398499,2029
793.517578,1991
793.636658,2006
793.755737,2055
793.874817,2105
793.993896,2032
794.112976,1999
794.232056,2023
794.351074,1963
794.470215,1974
794.589233,1960
794.708313,2011
794.827393,1953
794.946411,1978
795.065552,1933
795.18457,1986
795.303589,1946
795.422668,1975
795.541687,1954
795.660767,1979
795.779846,1946
795.898865,1944
796.017883,1905
796.136963,1947
796.255981,1891
796.375061,1901
796.49408,1905
796.613037,1951
796.732117,1927
796.851135,1909
796.970154,1924
797.089233,1905
797.208191,1861
797.327271,1892
797.446228,1891
797.565186,1887
797.684265,1925
797.803223,1914
797.922241,1922
798.04126,1866
798.160278,1915
798.279297,1902
798.398315,1895
798.517273,1924
798.636292,1859
798.75531,1896
798.874268,1912
798.993286,1914
799.112244,1882
799.231323,1958
799.350281,1956
799.469238,1876
799.588257,1909
799.707153,1911
799.826111,1912
799.945129,1911
800.064087,1932
800.183044,1929
800.302063,1863
800.421021,1908
800.539978,1892
800.658936,1895
800.777893,1948
800.896912,1916
801.015747,1912
801.134705,1957
801.253723,1905
801.37262,1911
801.491638,1946
801.610535,1971
801.729492,1957
801.84845,1977
801.967407,1944
802.086243,1959
802.205261,2007
802.324158,1935
802.443115,2002
802.562073,2000
802.680969,1970
802.799927,2018
802.918762,1951
803.037659,1971
803.156677,2034
803.275574,2041
803.39447,1967
803.513428,1985
803.632263,2005
803.751221,2025
803.870117,2004
803.989014,2003
804.107971,2000
804.226746,2023
804.345642,2002
804.4646,2011
804.583496,2039
804.702393,2025
804.821228,2037
804.940125,2037
805.059021,2026
805.177917,2081
805.296814,2035
805.415649,2028
805.534546,2081
805.653442,2021
805.772278,2111
805.891113,2095
806.01001,2050
806.128906,2069
806.247742,2091
806.366577,2100
806.485413,2039
806.604309,2125
806.723145,2024
806.84198,2070
806.960876,2106
807.079712,2088
807.198486,2095
807.317383,2125
807.436218,2097
807.554993,2113
807.673889,2111
807.792725,2084
807.91156,2095
808.030396,2118
808.14917,2133
808.268005,2130
808.386841,2131
808.505676,2165
808.624451,2092
808.743286,2099
808.862122,2162
808.980896,2118
809.099731,2123
809.218506,2205
809.337341,2157
809.456116,2144
809.57489,2178
809.693726,2158
809.8125,2167
809.931274,2181
810.050049,2147
810.168884,2172
810.287659,2174
810.406372,2122
810.525269,2150
810.643982,2192
810.762756,2170
810.881531,2198
811.000305,2178
811.11908,2205
811.237854,2200
811.356567,2167
811.475403,2164
811.594116,2178
811.71283,2179
811.831604,2161
811.950378,2142
812.069153,2202
812.187927,2179
812.30658,2169
812.425415,2209
812.544128,2131
812.662781,2210
812.781616,2184
812.900269,2179
813.019043,2202
813.137756,2134
813.256531,2218
813.375244,2212
813.493896,2179
813.612671,2201
813.731384,2146
813.850037,2168
813.96875,2180
814.087524,2143
814.206238,2130
814.324951,2168
814.443604,2143
814.562256,2169
814.68103,2110
814.799683,2120
814.918335,2160
815.037109,2129
815.155762,2125
815.274475,2184
815.393188,2123
815.511841,2149
815.630554,2131
815.749146,2104
815.867859,2051
815.986572,2075
816.105164,2072
816.223877,2080
816.342529,2039
816.461182,2078
816.579895,2099
816.698486,2095
816.817139,2167
816.935791,2117
817.054504,2097
817.173096,2074
817.291748,2057
817.4104,2100
817.529053,2049
817.647644,1972
817.766235,1947
817.884949,2007
818.00354,1898
818.122192,1899
818.240845,1817
818.359436,1802
818.478088,1803
818.59668,1715
818.715271,1687
818.833923,1657
818.952515,1612
819.071106,1648
819.189758,1610
819.30835,1562
819.426941,1548
819.545532,1614
819.664124,1531
819.782715,1548
819.901306,1551
820.019897,1521
820.138489,1540
820.25708,1532
820.375671,1490
820.494202,1507
820.612732,1513
820.731384,1438
820.849915,1495
820.968506,1485
821.087097,1467
821.205627,1476
821.324158,1474
821.442749,1467
821.561279,1460
821.679871,1470
821.798401,1462
821.916931,1486
822.035461,1457
822.154053,1445
822.272583,1462
822.391174,1456
822.509583,1435
822.628174,1454
822.746704,1436
822.865234,1437
822.983765,1439
823.102295,1439
823.220825,1431
823.339294,1435
823.457825,1426
823.576355,1447
823.694824,1388
823.813354,1453
823.931885,1451
824.050354,1417
824.168884,1474
824.287354,1457
824.405823,1466
824.524353,1502
824.642822,1476
824.761353,1527
824.879822,1416
824.998291,1460
825.116699,1457
825.235291,1449
825.353699,1437
825.472168,1437
825.590637,1418
825.709106,1465
825.827576,1422
825.946045,1391
826.064453,1411
826.182983,1382
826.301392,1400
826.4198,1380
826.53833,1386
826.656738,1363
826.775208,1355
826.893677,1382
827.012024,1392
827.130493,1356
827.248962,1371
827.36731,1358
827.485779,1319
827.604248,1369
827.722595,1326
827.841064,1374
827.959412,1352
828.077942,1322
828.196289,1359
828.314636,1352
828.433105,1358
828.551514,1330
828.669861,1357
828.78833,1361
828.906677,1353
829.025085,1334
829.143433,1336
829.261841,1355
829.38031,1308
829.498657,1336
829.617004,1358
829.735413,1346
829.85376,1298
829.972107,1309
830.090515,1361
830.208862,1327
830.327209,1333
830.445557,1321
830.563904,1294
830.682312,1333
830.800659,1335
830.919006,1291
831.037354,1266
831.155701,1308
831.274048,1318
831.392395,1316
831.51062,1307
831.629028,1323
831.747314,1296
831.865662,1299
831.984009,1320
832.102356,1297
832.220642,1342
832.338928,1309
832.457275,1288
832.575623,1298
832.693909,1309
832.812134,1324
832.930481,1281
833.048828,1317
833.167114,1356
833.2854,1349
833.403687,1283
833.521973,1333
833.640259,1298
833.758545,1284
833.876831,1334
833.995056,1334
834.113281,1323
834.231628,1297
834.349915,1323
834.468201,1344
834.586426,1309
834.704651,1337
834.822998,1351
834.941162,1331
835.059448,1315
835.177673,1328
835.295959,1317
835.414246,1330
835.53241,1319
835.650635,1300
835.768921,1327
835.887146,1304
836.005371,1353
836.123596,1376
836.241821,1319
836.360046,1338
836.478271,1357
836.596497,1357
836.714722,1376
836.832886,1393
836.95105,1358
837.069336,1365
837.1875,1411
837.305725,1417
837.423889,1398
837.542053,1404
837.660339,1400
837.778503,1416
837.896667,1411
838.014832,1368
838.132996,1423
838.25116,1365
838.369385,1403
838.487488,1412
838.605713,1360
838.723877,1420
838.84198,1395
838.960205,1380
839.078308,1391
839.196472,1406
839.314636,1423
839.4328,1403
839.550964,1371
839.669067,1348
839.787231,1317
839.905396,1358
840.023499,1373
840.141602,1328
840.259766,1375
840.377869,1340
840.495972,1355
840.614136,1384
840.732239,1350
840.850342,1350
840.968445,1331
841.086548,1395
841.204651,1291
841.322754,1351
841.440918,1334
841.55896,1347
841.677002,1336
841.795166,1338
841.913208,1395
842.031311,1331
842.149353,1303
842.267456,1322
842.385498,1289
842.503601,1292
842.621643,1288
842.739746,1287
842.857788,1327
842.97583,1295
843.093933,1292
843.211975,1301
843.330017,1326
843.44812,1286
843.566101,1255
843.684204,1277
843.802246,1286
843.920227,1282
844.038269,1283
844.156311,1275
844.274292,1278
844.392395,1317
844.510376,1252
844.628357,1301
844.74646,1292
844.864441,1229
844.982422,1261
845.100403,1291
845.218384,1309
845.336426,1252
845.454468,1298
845.572449,1281
845.69043,1250
845.808411,1279
845.926453,1241
846.044373,1272
846.162354,1237
846.280396,1290
846.398315,1255
846.516296,1257
846.634216,1264
846.752197,1255
846.870178,1276
846.988098,1259
847.106079,1269
847.22406,1246
847.34198,1266
847.4599,1241
847.577881,1300
847.695801,1279
847.813782,1279
847.931641,1239
848.049561,1266
848.167603,1255
848.285461,1265
848.403381,1264
848.521362,1232
848.639221,1247
848.75708,1246
848.875,1262
848.99292,1242
849.110901,1265
849.22876,1258
849.34668,1232
849.464539,1309
849.582458,1271
849.700317,1304
849.818176,1262
849.936096,1244
850.053955,1247
850.171875,1263
850.289673,1230
850.407593,1252
850.525452,1256
850.643311,1244
850.761169,1228
850.878967,1255
850.996887,1294
851.114746,1239
851.232544,1269
851.350403,1283
851.468262,1278
851.58606,1240
851.703979,1275
851.821777,1269
851.939636,1276
852.057434,1238
852.175232,1258
852.293091,1255
852.410889,1251
852.528687,1225
852.646545,1316
852.764343,1290
852.88208,1256
852.999939,1256
853.117676,1276
853.235535,1258
853.353271,1269
853.471069,1294
853.588928,1239
853.706604,1281
853.824402,1279
853.9422,1253
854.059998,1272
854.177734,1249
854.295532,1285
854.413269,1248
854.531006,1253
854.648804,1302
854.766541,1337
854.884277,1294
855.002014,1281
855.119751,1315
855.237549,1264
855.355225,1297
855.473022,1323
855.590698,1281
855.708435,1295
855.826172,1320
855.943848,1288
856.061646,1321
856.179321,1285
856.296997,1324
856.414795,1329
856.53241,1279
856.650085,1317
856.767822,1287
856.885559,1311
857.003174,1325
857.120911,1310
857.238586,1282
857.356201,1328
857.473938,1288
857.591614,1330
857.709351,1307
857.826965,1308
857.944641,1275
858.062317,1305
858.179993,1304
858.297668,1305
858.415283,1299
858.532959,1286
858.650574,1242
858.768188,1301
858.885803,1317
859.003479,1283
859.121094,1355
859.23877,1288
859.356384,1280
859.473999,1275
859.591675,1274
859.709229,1305
859.826843,1284
859.944458,1271
860.062012,1290
860.179626,1276
860.297302,1274
860.414856,1263
860.532471,1282
860.650024,1331
860.767639,1292
860.885193,1312
861.002808,1291
861.120361,1229
861.237976,1283
861.35553,1248
861.473022,1272
861.590698,1259
861.708191,1307
861.825745,1223
861.943298,1279
862.060852,1322
862.178406,1269
862.295959,1233
862.413513,1297
862.531006,1252
862.64856,1308
862.766113,1275
862.883667,1277
863.00116,1274
863.118713,1272
863.236206,1269
863.353699,1291
863.471252,1284
863.588745,1285
863.706177,1284
863.82373,1289
863.941162,1277
864.058716,1288
864.176208,1296
864.29364,1264
864.411194,1276
864.528687,1313
864.646118,1285
864.763611,1264
864.881042,1303
864.998535,1297
865.116028,1277
865.233459,1316
865.350891,1261
865.468384,1305
865.585754,1299
865.703308,1288
865.820679,1276
865.938171,1281
866.055542,1298
866.173035,1287
866.290466,1265
866.407837,1302
866.52533,1260
866.6427,1263
866.760071,1344
866.877563,1257
866.994934,1279
867.112305,1286
867.229736,1297
867.347107,1288
867.464539,1345
867.58197,1290
867.699341,1299
867.81665,1337
867.934082,1294
868.051453,1310
868.168823,1318
868.286194,1316
868.403564,1314
868.520935,1258
868.638306,1326
868.755676,1332
868.872986,1290
868.990295,1308
869.107727,1304
869.225037,1312
869.342346,1312
869.459717,1314
869.577026,1315
869.694336,1291
869.811707,1313
869.929016,1278
870.046326,1296
870.163635,1296
870.280945,1296
870.398254,1329
870.515564,1325
870.632812,1315
870.750183,1304
870.867432,1287
870.984741,1275
871.102051,1276
871.219299,1285
871.336609,1303
871.453918,1291
871.571106,1274
871.688416,1262
871.805664,1288
871.922852,1269
872.040222,1278
872.157471,1295
872.274719,1309
872.391968,1275
872.509155,1287
872.626465,1281
872.743652,1262
872.860962,1274
872.978149,1309
873.095337,1285
873.212646,1302
873.329834,1264
873.44696,1281
873.564209,1308
873.681396,1312
873.798645,1300
873.915894,1298
874.03302,1323
874.150208,1284
874.267456,1287
874.384583,1324
874.501831,1321
874.618958,1274
874.736145,1349
874.853333,1312
874.970459,1272
875.087646,1298
875.204834,1278
875.32196,1290
875.439148,1292
875.556274,1270
875.673401,1312
875.790527,1283
875.907715,1329
876.024841,1276
876.141968,1291
876.259094,1346
876.376282,1269
876.493347,1329
876.610474,1282
876.7276,1323
876.844727,1332
876.961853,1321
877.078918,1359
877.195984,1316
877.313171,1277
877.430237,1318
877.547302,1310
877.664368,1288
877.781433,1261
877.898499,1281
878.015625,1253
878.13269,1334
878.249695,1302
878.366821,1273
878.483887,1293
878.600952,1323
878.717957,1302
878.834961,1299
878.952087,1344
879.069092,1294
879.186157,1303
879.303162,1317
879.420227,1306
879.537231,1316
879.654236,1263
879.77124,1346
879.888306,1321
880.005249,1360
880.122314,1266
880.239319,1301
880.356323,1299
880.473328,1300
880.590271,1279
880.707275,1270
880.824341,1314
880.941284,1282
881.058228,1329
881.175232,1277
881.292236,1306
881.40918,1304
881.526123,1298
881.643066,1308
881.760071,1350
881.877014,1275
881.993958,1273
882.11084,1296
882.227783,1338
882.344727,1266
882.46167,1298
882.578613,1350
882.695618,1283
882.812439,1268
882.929382,1319
883.046326,1298
883.163208,1315
883.280151,1277
883.397034,1302
883.513916,1306
883.630798,1332
883.747742,1295
883.864563,1324
883.981506,1331
884.098389,1320
884.21521,1331
884.332153,1333
884.448975,1327
884.565796,1307
884.682678,1314
884.7995,1305
884.916443,1283
885.033264,1336
885.150085,1317
885.266968,1304
885.383789,1317
885.500671,1349
885.617493,1322
885.734314,1328
885.851196,1294
885.967896,1280
886.084717,1291
886.201599,1332
886.318359,1318
886.435181,1367
886.552002,1301
886.668762,1369
886.785645,1346
886.902344,1333
887.019165,1338
887.135925,1341
887.252747,1330
887.369446,1310
887.486267,1305
887.603027,1316
887.719788,1328
887.836548,1346
887.953247,1314
888.070068,1319
888.186829,1360
888.303528,1334
888.420288,1341
888.536987,1328
888.653687,1332
888.770447,1336
888.887146,1317
889.003967,1318
889.120667,1305
889.237305,1333
889.354065,1330
889.470703,1341
889.587463,1354
889.704163,1313
889.820862,1329
889.937561,1364
890.054199,1320
890.170837,1361
890.287598,1311
890.404236,1343
890.520874,1337
890.637634,1336
890.754211,1381
890.87085,1336
890.987549,1350
891.104187,1349
891.220886,1319
891.337463,1373
891.454102,1320
891.57074,1345
891.687378,1354
891.804077,1370
891.920654,1316
892.037231,1332
892.15387,1364
892.270447,1294
892.387085,1356
892.503723,1329
892.6203,1359
892.736877,1325
892.853516,1328
892.970032,1326
893.08667,1351
893.203186,1374
893.319763,1326
893.43634,1351
893.552917,1337
893.669556,1369
893.786011,1356
893.902588,1348
894.019165,1326
894.135681,1333
894.252197,1354
894.368835,1354
894.485291,1358
894.601868,1341
894.718384,1357
894.8349,1334
894.951355,1360
895.067932,1344
895.184448,1346
895.300964,1341
895.417419,1354
895.533936,1321
895.650452,1333
895.766907,1367
895.883423,1363
895.999878,1379
896.116333,1352
896.232849,1358
896.349304,1337
896.465759,1368
896.582214,1343
896.698669,1343
896.815125,1365
896.931641,1373
897.048035,1325
897.164551,1353
897.280884,1334
897.397339,1426
897.513794,1357
897.630249,1344
897.746582,1382
897.863098,1344
897.979431,1328
898.095886,1350
898.212341,1375
898.328674,1346
898.445129,1340
898.561462,1363
898.677795,1367
898.794312,1396
898.910645,1344
899.026978,1410
899.143433,1355
899.259766,1340
899.37616,1385
899.492493,1362
899.608765,1376
899.725159,1372
899.841553,1370
899.957947,1321
900.07428,1398
900.190552,1361
900.306946,1373
900.423157,1350
900.53949,1424
900.655884,1317
900.772156,1364
900.888489,1338
901.004822,1377
901.121033,1358
901.237366,1395
901.353699,1379
901.46991,1411
901.586304,1382
901.702515,1374
901.818787,1356
901.93512,1331
902.051331,1398
902.167603,1336
902.283875,1377
902.400085,1380
902.516418,1358
902.632629,1355
902.74884,1435
902.865112,1388
902.981384,1375
903.097595,1398
903.213867,1371
903.330017,1418
903.446289,1381
903.5625,1401
903.67865,1383
903.794922,1358
903.911072,1387
904.027344,1388
904.143494,1406
904.259705,1373
904.375916,1416
904.492065,1389
904.608215,1359
904.724426,1413
904.840576,1368
904.956726,1396
905.072876,1359
905.189087,1395
905.305176,1347
905.421387,1370
905.537537,1369
905.653687,1393
905.769775,1386
905.885925,1406
906.002014,1376
906.118164,1398
906.234314,1406
906.350403,1412
906.466492,1398
906.582642,1383
906.69873,1438
906.814758,1421
906.930908,1399
907.046936,1408
907.163086,1415
907.279175,1416
907.395264,1379
907.511353,1364
907.62738,1323
907.743408,1387
907.859497,1422
907.975525,1353
908.091553,1383
908.207703,1419
908.32373,1416
908.439758,1396
908.555786,1395
908.671814,1383
908.787842,1433
908.90387,1401
909.019775,1416
909.135864,1398
909.251892,1401
909.367859,1367
909.483826,1399
909.599854,1388
909.715881,1400
909.831848,1429
909.947815,1409
910.063782,1407
910.179749,1420
910.295776,1384
910.411743,1390
910.527649,1397
910.643616,1419
910.759583,1415
910.875488,1430
910.991455,1405
911.107361,1419
911.223267,1420
911.339294,1419
911.4552,1398
911.571106,1399
911.687073,1397
911.802979,1392
911.918823,1406
912.034729,1442
912.150635,1401
912.266602,1379
912.382446,1373
912.498352,1400
912.614197,1383
912.730103,1382
912.846008,1409
792.44574,2197
792.56488,2176
792.68396,2218
792.80304,2192
792.92218,2115
793.041199,2127
793.160339,2152
793.279419,2114
793.398499,2093
793.517578,2124
793.636658,2108
793.755737,2108
793.874817,2085
793.993896,2084
794.112976,2084
794.232056,2043
794.351074,2037
794.470215,2075
794.589233,2001
794.708313,1999
794.827393,2025
794.946411,2002
795.065552,2014
795.18457,1987
795.303589,1965
795.422668,2014
795.541687,2017
795.660767,2021
795.779846,1943
795.898865,1979
796.017883,1969
796.136963,1950
796.255981,1965
796.375061,1972
796.49408,1991
796.613037,1969
796.732117,1955
796.851135,1943
796.970154,1954
797.089233,1981
797.208191,1947
797.327271,1946
797.446228,1957
797.565186,1975
797.684265,1955
797.803223,1936
797.922241,2023
798.04126,1935
798.160278,1944
798.279297,1972
798.398315,1953
798.517273,1932
798.636292,1922
798.75531,1994
798.874268,1944
798.993286,1968
799.112244,1982
799.231323,1961
799.350281,1954
799.469238,1947
799.588257,1966
799.707153,1968
799.826111,1891
799.945129,1935
800.064087,1984
800.183044,1956
800.302063,1998
800.421021,1926
800.539978,1962
800.658936,1993
800.777893,1993
800.896912,1942
801.015747,1948
801.134705,1932
801.253723,2019
801.37262,2012
801.491638,1973
801.610535,1954
801.729492,1972
801.84845,1993
801.967407,2014
802.086243,1968
802.205261,2062
802.324158,2025
802.443115,1963
802.562073,2009
802.680969,1999
802.799927,2049
802.918762,1982
803.037659,1990
803.156677,2002
803.275574,1985
803.39447,2071
803.513428,2025
803.632263,2006
803.751221,2038
803.870117,2035
803.989014,2009
804.107971,2059
804.226746,2040
804.345642,2078
804.4646,2096
804.583496,2079
804.702393,2055
804.821228,2088
804.940125,2061
805.059021,2024
805.177917,2074
805.296814,2066
805.415649,2112
805.534546,2090
805.653442,2144
805.772278,2094
805.891113,2131
806.01001,2092
806.128906,2090
806.247742,2114
806.366577,2097
806.485413,2143
806.604309,2124
806.723145,2180
806.84198,2140
806.960876,2113
807.079712,2134
807.198486,2108
807.317383,2153
807.436218,2111
807.554993,2134
807.673889,2122
807.792725,2097
807.91156,2211
808.030396,2195
808.14917,2157
808.268005,2160
808.386841,2157
808.505676,2191
808.624451,2168
808.743286,2200
808.862122,2155
808.980896,2162
809.099731,2167
809.218506,2179
809.337341,2134
809.456116,2208
809.57489,2207
809.693726,2202
809.8125,2187
809.931274,2197
810.050049,2205
810.168884,2198
810.287659,2187
810.406372,2172
810.525269,2212
810.643982,2170
810.762756,2219
810.881531,2211
811.000305,2193
811.11908,2204
811.237854,2226
811.356567,2207
811.475403,2183
811.594116,2177
811.71283,2228
811.831604,2190
811.950378,2222
812.069153,2225
812.187927,2215
812.30658,2180
812.425415,2250
812.544128,2223
812.662781,2197
812.781616,2255
812.900269,2277
813.019043,2219
813.137756,2234
813.256531,2233
813.375244,2241
813.493896,2262
813.612671,2252
813.731384,2212
813.850037,2209
813.96875,2233
814.087524,2189
814.206238,2215
814.324951,2145
814.443604,2221
814.562256,2164
814.68103,2224
814.799683,2211
814.918335,2150
815.037109,2132
815.155762,2159
815.274475,2102
815.393188,2148
815.511841,2162
815.630554,2144
815.749146,2193
815.867859,2127
815.986572,2127
816.105164,2079
816.223877,2137
816.342529,2151
816.461182,2077
816.579895,2134
816.698486,2150
816.817139,2166
816.935791,2149
817.054504,2165
817.173096,2113
817.291748,2110
817.4104,2116
817.529053,2014
817.647644,2021
817.766235,1978
817.884949,1954
818.00354,1964
818.122192,1893
818.240845,1903
818.359436,1879
818.478088,1818
818.59668,1784
818.715271,1749
818.833923,1723
818.952515,1665
819.071106,1687
819.189758,1608
819.30835,1640
819.426941,1605
819.545532,1607
819.664124,1602
819.782715,1603
819.901306,1599
820.019897,1569
820.138489,1559
820.25708,1529
820.375671,1554
820.494202,1561
820.612732,1537
820.731384,1506
820.849915,1542
820.968506,1483
821.087097,1490
821.205627,1541
821.324158,1520
821.442749,1495
821.561279,1512
821.679871,1507
821.798401,1493
821.916931,1533
822.035461,1505
822.154053,1527
822.272583,1472
822.391174,1491
822.509583,1439
822.628174,1479
822.746704,1499
822.865234,1440
822.983765,1513
823.102295,1444
823.220825,1482
823.339294,1470
823.457825,1471
823.576355,1471
823.694824,1471
823.813354,1454
823.931885,1483
824.050354,1526
824.168884,1479
824.287354,1482
824.405823,1504
824.524353,1474
824.642822,1496
824.761353,1474
824.879822,1510
824.998291,1477
825.116699,1504
825.235291,1461
825.353699,1464
825.472168,1469
825.590637,1435
825.709106,1421
825.827576,1446
825.946045,1430
826.064453,1403
826.182983,1439
826.301392,1425
826.4198,1405
826.53833,1382
826.656738,1387
826.775208,1384
826.893677,1388
827.012024,1383
827.130493,1356
827.248962,1403
827.36731,1376
827.485779,1364
827.604248,1332
827.722595,1383
827.841064,1360
827.959412,1359
828.077942,1370
828.196289,1364
828.314636,1392
828.433105,1395
828.551514,1359
828.669861,1367
828.78833,1332
828.906677,1372
829.025085,1380
829.143433,1325
829.261841,1375
829.38031,1377
829.498657,1291
829.617004,1362
829.735413,1357
829.85376,1349
829.972107,1348
830.090515,1330
830.208862,1337
830.327209,1329
830.445557,1331
830.563904,1347
830.682312,1399
830.800659,1364
830.919006,1348
831.037354,1373
831.155701,1365
831.274048,1357
831.392395,1354
831.51062,1320
831.629028,1329
831.747314,1339
831.865662,1349
831.984009,1345
832.102356,1404
832.220642,1329
832.338928,1299
832.457275,1327
832.575623,1347
832.693909,1349
832.812134,1333
832.930481,1313
833.048828,1339
833.167114,1380
833.2854,1343
833.403687,1340
833.521973,1339
833.640259,1309
833.758545,1302
833.876831,1342
833.995056,1328
834.113281,1336
834.231628,1336
834.349915,1340
834.468201,1362
834.586426,1327
834.704651,1345
834.822998,1360
834.941162,1367
835.059448,1325
835.177673,1372
835.295959,1308
835.414246,1330
835.53241,1386
835.650635,1339
835.768921,1351
835.887146,1376
836.005371,1391
836.123596,1365
836.241821,1391
836.360046,1372
836.478271,1356
836.596497,1368
836.714722,1394
836.832886,1391
836.95105,1427
837.069336,1417
837.1875,1390
837.305725,1402
837.423889,1461
837.542053,1410
837.660339,1437
837.778503,1455
837.896667,1410
838.014832,1456
838.132996,1432
838.25116,1406
838.369385,1452
838.487488,1394
838.605713,1454
838.723877,1414
838.84198,1422
838.960205,1399
839.078308,1437
839.196472,1435
839.314636,1442
839.4328,1404
839.550964,1423
839.669067,1405
839.787231,1394
839.905396,1417
840.023499,1396
840.141602,1415
840.259766,1370
840.377869,1416
840.495972,1426
840.614136,1387
840.732239,1389
840.850342,1386
840.968445,1377
841.086548,1369
841.204651,1375
841.322754,1372
841.440918,1336
841.55896,1399
841.677002,1341
841.795166,1388
841.913208,1312
842.031311,1380
842.149353,1323
842.267456,1305
842.385498,1356
842.503601,1311
842.621643,1342
842.739746,1296
842.857788,1323
842.97583,1322
843.093933,1320
843.211975,1313
843.330017,1346
843.44812,1289
843.566101,1272
843.684204,1316
843.802246,1336
843.920227,1310
844.038269,1294
844.156311,1282
844.274292,1290
844.392395,1300
844.510376,1294
844.628357,1284
844.74646,1319
844.864441,1289
844.982422,1314
845.100403,1315
845.218384,1312
845.336426,1303
845.454468,1270
845.572449,1307
845.69043,1292
845.808411,1299
845.926453,1317
846.044373,1314
846.162354,1293
846.280396,1280
846.398315,1254
846.516296,1292
846.634216,1290
846.752197,1261
846.870178,1255
846.988098,1332
847.106079,1280
847.22406,1288
847.34198,1288
847.4599,1315
847.577881,1307
847.695801,1256
847.813782,1246
847.931641,1310
848.049561,1336
848.167603,1325
848.285461,1307
848.403381,1323
848.521362,1310
848.639221,1273
848.75708,1297
848.875,1323
848.99292,1257
849.110901,1335
849.22876,1265
849.34668,1290
849.464539,1269
849.582458,1300
849.700317,1316
849.818176,1283
849.936096,1314
850.053955,1311
850.171875,1284
850.289673,1260
850.407593,1262
850.525452,1331
850.643311,1300
850.761169,1282
850.878967,1303
850.996887,1246
851.114746,1321
851.232544,1302
851.350403,1289
851.468262,1291
851.58606,1311
851.703979,1318
851.821777,1262
851.939636,1287
852.057434,1270
852.175232,1291
852.293091,1286
852.410889,1314
852.528687,1295
852.646545,1285
852.764343,1313
852.88208,1285
852.999939,1326
853.117676,1330
853.235535,1294
853.353271,1310
853.471069,1303
853.588928,1257
853.706604,1278
853.824402,1293
853.9422,1290
854.059998,1271
854.177734,1336
854.295532,1308
854.413269,1294
854.531006,1254
854.648804,1347
854.766541,1322
854.884277,1320
855.002014,1314
855.119751,1334
855.237549,1323
855.355225,1300
855.473022,1325
855.590698,1302
855.708435,1349
855.826172,1308
855.943848,1337
856.061646,1329
856.179321,1304
856.296997,1362
856.414795,1352
856.53241,1330
856.650085,1298
856.767822,1315
856.885559,1349
857.003174,1317
857.120911,1325
857.238586,1350
857.356201,1311
857.473938,1358
857.591614,1324
857.709351,1359
857.826965,1316
857.944641,1305
858.062317,1315
858.179993,1321
858.297668,1315
858.415283,1365
858.532959,1331
858.650574,1317
858.768188,1315
858.885803,1312
859.003479,1333
859.121094,1305
859.23877,1298
859.356384,1318
859.473999,1318
859.591675,1297
859.709229,1322
859.826843,1295
859.944458,1294
860.062012,1327
860.179626,1308
860.297302,1296
860.414856,1302
860.532471,1317
860.650024,1304
860.767639,1294
860.885193,1299
861.002808,1289
861.120361,1321
861.237976,1364
861.35553,1288
861.473022,1303
861.590698,1236
861.708191,1314
861.825745,1320
861.943298,1301
862.060852,1292
862.178406,1293
862.295959,1276
862.413513,1320
862.531006,1348
862.64856,1294
862.766113,1317
862.883667,1315
863.00116,1362
863.118713,1327
863.236206,1299
863.353699,1318
863.471252,1297
863.588745,1331
863.706177,1300
863.82373,1322
863.941162,1315
864.058716,1340
864.176208,1284
864.29364,1321
864.411194,1305
864.528687,1314
864.646118,1345
864.763611,1321
864.881042,1329
864.998535,1280
865.116028,1315
865.233459,1317
865.350891,1318
865.468384,1320
865.585754,1308
865.703308,1359
865.820679,1325
865.938171,1318
866.055542,1352
866.173035,1300
866.290466,1312
866.407837,1349
866.52533,1354
866.6427,1299
866.760071,1308
866.877563,1304
866.994934,1327
867.112305,1318
867.229736,1322
867.347107,1324
867.464539,1318
867.58197,1350
867.699341,1334
867.81665,1312
867.934082,1304
868.051453,1288
868.168823,1327
868.286194,1329
868.403564,1311
868.520935,1304
868.638306,1319
868.755676,1316
868.872986,1334
868.990295,1358
869.107727,1324
869.225037,1309
869.342346,1336
869.459717,1340
869.577026,1340
869.694336,1318
869.811707,1311
869.929016,1337
870.046326,1285
870.163635,1342
870.280945,1320
870.398254,1330
870.515564,1290
870.632812,1300
870.750183,1343
870.867432,1327
870.984741,1313
871.102051,1325
871.219299,1337
871.336609,1348
871.453918,1320
871.571106,1282
871.688416,1294
871.805664,1323
871.922852,1328
872.040222,1327
872.157471,1339
872.274719,1349
872.391968,1317
872.509155,1341
872.626465,1326
872.743652,1359
872.860962,1342
872.978149,1337
873.095337,1315
873.212646,1342
873.329834,1327
873.44696,1345
873.564209,1318
873.681396,1316
873.798645,1326
873.915894,1330
874.03302,1312
874.150208,1319
874.267456,1294
874.384583,1335
874.501831,1301
874.618958,1309
874.736145,1327
874.853333,1356
874.970459,1315
875.087646,1361
875.204834,1319
875.32196,1296
875.439148,1310
875.556274,1372
875.673401,1309
875.790527,1313
875.907715,1307
876.024841,1332
876.141968,1369
876.259094,1326
876.376282,1343
876.493347,1280
876.610474,1302
876.7276,1306
876.844727,1298
876.961853,1320
877.078918,1341
877.195984,1306
877.313171,1329
877.430237,1346
877.547302,1325
877.664368,1343
877.781433,1314
877.898499,1342
878.015625,1313
878.13269,1366
878.249695,1317
878.366821,1321
878.483887,1336
878.600952,1281
878.717957,1328
878.834961,1351
878.952087,1325
879.069092,1355
879.186157,1345
879.303162,1319
879.420227,1315
879.537231,1315
879.654236,1328
879.77124,1359
879.888306,1339
880.005249,1328
880.122314,1353
880.239319,1306
880.356323,1319
880.473328,1324
880.590271,1333
880.707275,1340
880.824341,1322
880.941284,1298
881.058228,1342
881.175232,1329
881.292236,1306
881.40918,1322
881.526123,1335
881.643066,1286
881.760071,1383
881.877014,1286
881.993958,1319
882.11084,1344
882.227783,1342
882.344727,1326
882.46167,1318
882.578613,1305
882.695618,1356
882.812439,1350
882.929382,1330
883.046326,1324
883.163208,1354
883.280151,1334
883.397034,1343
883.513916,1369
883.630798,1320
883.747742,1346
883.864563,1349
883.981506,1376
884.098389,1318
884.21521,1342
884.332153,1341
884.448975,1344
884.565796,1371
884.682678,1347
884.7995,1346
884.916443,1328
885.033264,1351
885.150085,1367
885.266968,1383
885.383789,1349
885.500671,1398
885.617493,1351
885.734314,1385
885.851196,1351
885.967896,1361
886.084717,1350
886.201599,1324
886.318359,1363
886.435181,1342
886.552002,1332
886.668762,1363
886.785645,1368
886.902344,1382
887.019165,1356
887.135925,1325
887.252747,1343
887.369446,1366
887.486267,1373
887.603027,1365
887.719788,1358
887.836548,1351
887.953247,1328
888.070068,1356
888.186829,1355
888.303528,1374
888.420288,1417
888.536987,1323
888.653687,1367
888.770447,1375
888.887146,1368
889.003967,1357
889.120667,1376
889.237305,1353
889.354065,1341
889.470703,1408
889.587463,1323
889.704163,1372
889.820862,1348
889.937561,1383
890.054199,1361
890.170837,1390
890.287598,1332
890.404236,1359
890.520874,1352
890.637634,1366
890.754211,1342
890.87085,1402
890.987549,1360
891.104187,1373
891.220886,1363
891.337463,1382
891.454102,1408
891.57074,1364
891.687378,1385
891.804077,1399
891.920654,1398
892.037231,1379
892.15387,1379
892.270447,1404
892.387085,1391
892.503723,1376
892.6203,1412
892.736877,1357
892.853516,1355
892.970032,1344
893.08667,1391
893.203186,1426
893.319763,1361
893.43634,1395
893.552917,1387
893.669556,1400
893.786011,1361
893.902588,1377
894.019165,1391
894.135681,1404
894.252197,1360
894.368835,1395
894.485291,1428
894.601868,1430
894.718384,1390
894.8349,1380
894.951355,1390
895.067932,1399
895.184448,1385
895.300964,1376
895.417419,1341
895.533936,1402
895.650452,1401
895.766907,1376
895.883423,1416
895.999878,1384
896.116333,1387
896.232849,1385
896.349304,1368
896.465759,1392
896.582214,1362
896.698669,1409
896.815125,1430
896.931641,1391
897.048035,1409
897.164551,1398
897.280884,1433
897.397339,1415
897.513794,1389
897.630249,1377
897.746582,1395
897.863098,1391
897.979431,1418
898.095886,1390
898.212341,1406
898.328674,1418
898.445129,1382
898.561462,1423
898.677795,1388
898.794312,1379
898.910645,1376
899.026978,1421
899.143433,1462
899.259766,1370
899.37616,1407
899.492493,1392
899.608765,1438
899.725159,1424
899.841553,1405
899.957947,1425
900.07428,1409
900.190552,1401
900.306946,1403
900.423157,1386
900.53949,1411
900.655884,1355
900.772156,1368
900.888489,1397
901.004822,1401
901.121033,1388
901.237366,1405
901.353699,1399
901.46991,1419
901.586304,1432
901.702515,1416
901.818787,1414
901.93512,1411
902.051331,1378
902.167603,1373
902.283875,1428
902.400085,1397
902.516418,1410
902.632629,1396
902.74884,1423
902.865112,1405
902.981384,1406
903.097595,1403
903.213867,1415
903.330017,1450
903.446289,1401
903.5625,1402
903.67865,1400
903.794922,1415
903.911072,1471
904.027344,1378
904.143494,1443
904.259705,1450
904.375916,1392
904.492065,1442
904.608215,1417
904.724426,1412
904.840576,1404
904.956726,1412
905.072876,1464
905.189087,1414
905.305176,1463
905.421387,1411
905.537537,1414
905.653687,1446
905.769775,1380
905.885925,1441
906.002014,1437
906.118164,1372
906.234314,1474
906.350403,1398
906.466492,1464
906.582642,1427
906.69873,1423
906.814758,1403
906.930908,1435
907.046936,1410
907.163086,1387
907.279175,1419
907.395264,1452
907.511353,1376
907.62738,1406
907.743408,1416
907.859497,1419
907.975525,1426
908.091553,1455
908.207703,1413
908.32373,1419
908.439758,1428
908.555786,1440
908.671814,1415
908.787842,1433
908.90387,1444
909.019775,1453
909.135864,1414
909.251892,1512
909.367859,1442
909.483826,1445
909.599854,1420
909.715881,1439
909.831848,1394
909.947815,1422
910.063782,1452
910.179749,1485
910.295776,1444
910.411743,1434
910.527649,1431
910.643616,1442
910.759583,1435
910.875488,1500
910.991455,1423
911.107361,1461
911.223267,1417
911.339294,1431
911.4552,1395
911.571106,1484
911.687073,1430
911.802979,1459
911.918823,1395
912.034729,1403
912.150635,1459
912.266602,1452
912.382446,1452
912.498352,1406
912.614197,1472
912.730103,1442
912.846008,1428
792.44574,2239
792.56488,2248
792.68396,2210
792.80304,2167
792.92218,2128
793.041199,2123
793.160339,2151
793.279419,2087
793.398499,2108
793.517578,2088
793.636658,2073
793.755737,2090
793.874817,2177
793.993896,2084
794.112976,2099
794.232056,2061
794.351074,2051
794.470215,2045
794.589233,2088
794.708313,2001
794.827393,2044
794.946411,2044
795.065552,2062
795.18457,1974
795.303589,1958
795.422668,2032
795.541687,1999
795.660767,1998
795.779846,1965
795.898865,2023
796.017883,1985
796.136963,2002
796.255981,1966
796.375061,2034
796.49408,1989
796.613037,1981
796.732117,1985
796.851135,1956
796.970154,1982
797.089233,1981
797.208191,1961
797.327271,1951
797.446228,1969
797.565186,1952
797.684265,1945
797.803223,2008
797.922241,1976
798.04126,1949
798.160278,1910
798.279297,1929
798.398315,1956
798.517273,1994
798.636292,1956
798.75531,1903
798.874268,1946
798.993286,1977
799.112244,1980
799.231323,1946
799.350281,1928
799.469238,1964
799.588257,2002
799.707153,1982
799.826111,1996
799.945129,1985
800.064087,1949
800.183044,1943
800.302063,2008
800.421021,1955
800.539978,1974
800.658936,1970
800.777893,1988
800.896912,1951
801.015747,1997
801.134705,1960
801.253723,1962
801.37262,1953
801.491638,1968
801.610535,2001
801.729492,1946
801.84845,1950
801.967407,2045
802.086243,1992
802.205261,2020
802.324158,1998
802.443115,1987
802.562073,1982
802.680969,2052
802.799927,1979
802.918762,2075
803.037659,2026
803.156677,2046
803.275574,2014
803.39447,2038
803.513428,2053
803.632263,2065
803.751221,2049
803.870117,2059
803.989014,2069
804.107971,2048
804.226746,2054
804.345642,2068
804.4646,2090
804.583496,2094
804.702393,2084
804.821228,2063
804.940125,2125
805.059021,2116
805.177917,2135
805.296814,2100
805.415649,2128
805.534546,2120
805.653442,2104
805.772278,2097
805.891113,2088
806.01001,2121
806.128906,2099
806.247742,2094
806.366577,2127
806.485413,2103
806.604309,2191
806.723145,2118
806.84198,2144
806.960876,2137
807.079712,2132
807.198486,2141
807.317383,2138
807.436218,2169
807.554993,2114
807.673889,2115
807.792725,2136
807.91156,2149
808.030396,2121
808.14917,2159
808.268005,2198
808.386841,2185
808.505676,2119
808.624451,2137
808.743286,2166
808.862122,2173
808.980896,2155
809.099731,2203
809.218506,2193
809.337341,2201
809.456116,2199
809.57489,2232
809.693726,2236
809.8125,2223
809.931274,2201
810.050049,2181
810.168884,2220
810.287659,2308
810.406372,2214
810.525269,2244
810.643982,2163
810.762756,2217
810.881531,2171
811.000305,2221
811.11908,2202
811.237854,2250
811.356567,2224
811.475403,2199
811.594116,2249
811.71283,2230
811.831604,2213
811.950378,2242
812.069153,2212
812.187927,2297
812.30658,2217
812.425415,2257
812.544128,2180
812.662781,2231
812.781616,2237
812.900269,2245
813.019043,2254
813.137756,2207
813.256531,2228
813.375244,2251
813.493896,2191
813.612671,2234
813.731384,2257
813.850037,2229
813.96875,2224
814.087524,2245
814.206238,2278
814.324951,2220
814.443604,2194
814.562256,2183
814.68103,2178
814.799683,2224
814.918335,2218
815.037109,2160
815.155762,2220
815.274475,2216
815.393188,2083
815.511841,2129
815.630554,2182
815.749146,2110
815.867859,2179
815.986572,2135
816.105164,2071
816.223877,2151
816.342529,2087
816.461182,2130
816.579895,2104
816.698486,2147
816.817139,2183
816.935791,2151
817.054504,2211
817.173096,2177
817.291748,2154
817.4104,2100
817.529053,2100
817.647644,2078
817.766235,2016
817.884949,1963
818.00354,1966
818.122192,1926
818.240845,1845
818.359436,1856
818.478088,1758
818.59668,1806
818.715271,1737
818.833923,1764
818.952515,1674
819.071106,1671
819.189758,1628
819.30835,1624
819.426941,1618
819.545532,1617
819.664124,1612
819.782715,1588
819.901306,1589
820.019897,1578
820.138489,1541
820.25708,1543
820.375671,1543
820.494202,1574
820.612732,1557
820.731384,1562
820.849915,1562
820.968506,1528
821.087097,1513
821.205627,1502
821.324158,1540
821.442749,1486
821.561279,1521
821.679871,1513
821.798401,1516
821.916931,1521
822.035461,1483
822.154053,1480
822.272583,1495
822.391174,1488
822.509583,1466
822.628174,1479
822.746704,1470
822.865234,1482
822.983765,1437
823.102295,1520
823.220825,1496
823.339294,1498
823.457825,1439
823.576355,1476
823.694824,1503
823.813354,1440
823.931885,1526
824.050354,1511
824.168884,1488
824.287354,1534
824.405823,1498
824.524353,1523
824.642822,1547
824.761353,1559
824.879822,1506
824.998291,1496
825.116699,1440
825.235291,1527
825.353699,1480
825.472168,1473
825.590637,1458
825.709106,1486
825.827576,1486
825.946045,1449
826.064453,1455
826.182983,1472
826.301392,1395
826.4198,1409
826.53833,1403
826.656738,1406
826.775208,1391
826.893677,1413
827.012024,1397
827.130493,1407
827.248962,1376
827.36731,1415
827.485779,1414
827.604248,1375
827.722595,1339
827.841064,1376
827.959412,1399
828.077942,1378
828.196289,1367
828.314636,1391
828.433105,1375
828.551514,1375
828.669861,1359
828.78833,1325
828.906677,1379
829.025085,1385
829.143433,1328
829.261841,1330
829.38031,1366
829.498657,1369
829.617004,1319
829.735413,1373
829.85376,1366
829.972107,1307
830.090515,1367
830.208862,1350
830.327209,1353
830.445557,1326
830.563904,1340
830.682312,1338
830.800659,1362
830.919006,1358
831.037354,1337
831.155701,1360
831.274048,1370
831.392395,1359
831.51062,1375
831.629028,1371
831.747314,1339
831.865662,1373
831.984009,1319
832.102356,1332
832.220642,1316
832.338928,1387
832.457275,1338
832.575623,1345
832.693909,1395
832.812134,1350
832.930481,1329
833.048828,1371
833.167114,1352
833.2854,1394
833.403687,1377
833.521973,1372
833.640259,1339
833.758545,1308
833.876831,1362
833.995056,1353
834.113281,1366
834.231628,1384
834.349915,1350
834.468201,1363
834.586426,1424
834.704651,1374
834.822998,1371
834.941162,1328
835.059448,1367
835.177673,1353
835.295959,1367
835.414246,1352
835.53241,1370
835.650635,1345
835.768921,1350
835.887146,1344
836.005371,1368
836.123596,1347
836.241821,1369
836.360046,1387
836.478271,1411
836.596497,1398
836.714722,1386
836.832886,1419
836.95105,1381
837.069336,1446
837.1875,1434
837.305725,1431
837.423889,1430
837.542053,1469
837.660339,1389
837.778503,1423
837.896667,1408
838.014832,1453
838.132996,1445
838.25116,1448
838.369385,1448
838.487488,1461
838.605713,1427
838.723877,1466
838.84198,1413
838.960205,1413
839.078308,1411
839.196472,1379
839.314636,1446
839.4328,1431
839.550964,1414
839.669067,1454
839.787231,1429
839.905396,1446
840.023499,1381
840.141602,1382
840.259766,1416
840.377869,1408
840.495972,1420
840.614136,1415
840.732239,1378
840.850342,1403
840.968445,1384
841.086548,1361
841.204651,1411
841.322754,1365
841.440918,1345
841.55896,1319
841.677002,1310
841.795166,1332
841.913208,1291
842.031311,1336
842.149353,1345
842.267456,1341
842.385498,1333
842.503601,1337
842.621643,1322
842.739746,1347
842.857788,1349
842.97583,1300
843.093933,1334
843.211975,1340
843.330017,1330
843.44812,1332
843.566101,1321
843.684204,1323
843.802246,1316
843.920227,1322
844.038269,1320
844.156311,1331
844.274292,1288
844.392395,1319
844.510376,1319
844.628357,1338
844.74646,1295
844.864441,1330
844.982422,1287
845.100403,1260
845.218384,1328
845.336426,1316
845.454468,1279
845.572449,1296
845.69043,1333
845.808411,1324
845.926453,1331
846.044373,1306
846.162354,1306
846.280396,1321
846.398315,1296
846.516296,1334
846.634216,1256
846.752197,1278
846.870178,1336
846.988098,1318
847.106079,1312
847.22406,1287
847.34198,1305
847.4599,1293
847.577881,1305
847.695801,1318
847.813782,1298
847.931641,1306
848.049561,1301
848.167603,1297
848.285461,1269
848.403381,1302
848.521362,1284
848.639221,1343
848.75708,1297
848.875,1260
848.99292,1316
849.110901,1268
849.22876,1303
849.34668,1309
849.464539,1290
849.582458,1230
849.700317,1279
849.818176,1280
849.936096,1302
850.053955,1307
850.171875,1285
850.289673,1309
850.407593,1302
850.525452,1337
850.643311,1284
850.761169,1259
850.878967,1271
850.996887,1327
851.114746,1300
851.232544,1323
851.350403,1327
851.468262,1305
851.58606,1311
851.703979,1307
851.821777,1304
851.939636,1326
852.057434,1274
852.175232,1354
852.293091,1304
852.410889,1327
852.528687,1332
852.646545,1297
852.764343,1275
852.88208,1293
852.999939,1314
853.117676,1334
853.235535,1293
853.353271,1319
853.471069,1294
853.588928,1269
853.706604,1321
853.824402,1355
853.9422,1321
854.059998,1284
854.177734,1320
854.295532,1314
854.413269,1285
854.531006,1297
854.648804,1334
854.766541,1331
854.884277,1366
855.002014,1368
855.119751,1313
855.237549,1370
855.355225,1334
855.473022,1329
855.590698,1334
855.708435,1334
855.826172,1355
855.943848,1352
856.061646,1368
856.179321,1327
856.296997,1326
856.414795,1297
856.53241,1370
856.650085,1378
856.767822,1314
856.885559,1349
857.003174,1325
857.120911,1376
857.238586,1366
857.356201,1347
857.473938,1341
857.591614,1371
857.709351,1370
857.826965,1349
857.944641,1337
858.062317,1351
858.179993,1336
858.297668,1359
858.415283,1370
858.532959,1316
858.650574,1351
858.768188,1300
858.885803,1348
859.003479,1323
859.121094,1317
859.23877,1308
859.356384,1339
859.473999,1310
859.591675,1328
859.709229,1316
859.826843,1313
859.944458,1310
860.062012,1316
860.179626,1327
860.297302,1311
860.414856,1296
860.532471,1327
860.650024,1333
860.767639,1295
860.885193,1331
861.002808,1302
861.120361,1308
861.237976,1305
861.35553,1295
861.473022,1307
861.590698,1294
861.708191,1334
861.825745,1326
861.943298,1293
862.060852,1309
862.178406,1314
862.295959,1327
862.413513,1309
862.531006,1370
862.64856,1313
862.766113,1308
862.883667,1312
863.00116,1307
863.118713,1307
863.236206,1292
863.353699,1320
863.471252,1325
863.588745,1342
863.706177,1305
863.82373,1292
863.941162,1353
864.058716,1289
864.176208,1333
864.29364,1330
864.411194,1341
864.528687,1338
864.646118,1358
864.763611,1329
864.881042,1351
864.998535,1348
865.116028,1309
865.233459,1355
865.350891,1352
865.468384,1324
865.585754,1333
865.703308,1299
865.820679,1360
865.938171,1351
866.055542,1336
866.173035,1325
866.290466,1322
866.407837,1287
866.52533,1333
866.6427,1325
866.760071,1313
866.877563,1342
866.994934,1373
867.112305,1299
867.229736,1329
867.347107,1326
867.464539,1358
867.58197,1280
867.699341,1377
867.81665,1333
867.934082,1338
868.051453,1330
868.168823,1334
868.286194,1349
868.403564,1361
868.520935,1350
868.638306,1354
868.755676,1316
868.872986,1333
868.990295,1393
869.107727,1349
869.225037,1289
869.342346,1327
869.459717,1331
869.577026,1311
869.694336,1344
869.811707,1347
869.929016,1311
870.046326,1382
870.163635,1332
870.280945,1357
870.398254,1318
870.515564,1316
870.632812,1342
870.750183,1374
870.867432,1332
870.984741,1319
871.102051,1312
871.219299,1337
871.336609,1362
871.453918,1303
871.571106,1342
871.688416,1357
871.805664,1324
871.922852,1345
872.040222,1348
872.157471,1341
872.274719,1287
872.391968,1313
872.509155,1340
872.626465,1325
872.743652,1328
872.860962,1315
872.978149,1342
873.095337,1333
873.212646,1350
873.329834,1332
873.44696,1316
873.564209,1300
873.681396,1314
873.798645,1322
873.915894,1323
874.03302,1295
874.150208,1315
874.267456,1312
874.384583,1320
874.501831,1331
874.618958,1343
874.736145,1327
874.853333,1359
874.970459,1323
875.087646,1317
875.204834,1310
875.32196,1340
875.439148,1320
875.556274,1382
875.673401,1365
875.790527,1318
875.907715,1290
876.024841,1313
876.141968,1336
876.259094,1342
876.376282,1336
876.493347,1350
876.610474,1321
876.7276,1325
876.844727,1308
876.961853,1347
877.078918,1353
877.195984,1324
877.313171,1324
877.430237,1325
877.547302,1332
877.664368,1358
877.781433,1374
877.898499,1338
878.015625,1325
878.13269,1333
878.249695,1331
878.366821,1319
878.483887,1407
878.600952,1309
878.717957,1310
878.834961,1346
878.952087,1352
879.069092,1318
879.186157,1325
879.303162,1351
879.420227,1357
879.537231,1364
879.654236,1355
879.77124,1341
879.888306,1294
880.005249,1353
880.122314,1302
880.239319,1286
880.356323,1346
880.473328,1328
880.590271,1324
880.707275,1323
880.824341,1346
880.941284,1373
881.058228,1341
881.175232,1355
881.292236,1334
881.40918,1327
881.526123,1333
881.643066,1324
881.760071,1328
881.877014,1363
881.993958,1297
882.11084,1335
882.227783,1364
882.344727,1356
882.46167,1392
882.578613,1349
882.695618,1334
882.812439,1341
882.929382,1365
883.046326,1322
883.163208,1378
883.280151,1333
883.397034,1334
883.513916,1341
883.630798,1363
883.747742,1351
883.864563,1333
883.981506,1347
884.098389,1301
884.21521,1353
884.332153,1329
884.448975,1332
884.565796,1377
884.682678,1322
884.7995,1353
884.916443,1380
885.033264,1353
885.150085,1321
885.266968,1411
885.383789,1377
885.500671,1373
885.617493,1391
885.734314,1341
885.851196,1366
885.967896,1351
886.084717,1377
886.201599,1349
886.318359,1353
886.435181,1340
886.552002,1343
886.668762,1352
886.785645,1374
886.902344,1352
887.019165,1373
887.135925,1354
887.252747,1382
887.369446,1375
887.486267,1371
887.603027,1349
887.719788,1394
887.836548,1359
887.953247,1358
888.070068,1400
888.186829,1338
888.303528,1370
888.420288,1351
888.536987,1344
888.653687,1384
888.770447,1382
888.887146,1330
889.003967,1390
889.120667,1360
889.237305,1377
889.354065,1351
889.470703,1361
889.587463,1341
889.704163,1397
889.820862,1353
889.937561,1360
890.054199,1390
890.170837,1374
890.287598,1381
890.404236,1399
890.520874,1382
890.637634,1347
890.754211,1403
890.87085,1378
890.987549,1363
891.104187,1403
891.220886,1354
891.337463,1425
891.454102,1387
891.57074,1421
891.687378,1371
891.804077,1401
891.920654,1388
892.037231,1394
892.15387,1400
892.270447,1372
892.387085,1399
892.503723,1383
892.6203,1386
892.736877,1382
892.853516,1392
892.970032,1390
893.08667,1417
893.203186,1403
893.319763,1417
893.43634,1471
893.552917,1405
893.669556,1404
893.786011,1418
893.902588,1377
894.019165,1401
894.135681,1406
894.252197,1382
894.368835,1429
894.485291,1416
894.601868,1404
894.718384,1409
894.8349,1390
894.951355,1355
895.067932,1392
895.184448,1435
895.300964,1423
895.417419,1433
895.533936,1407
895.650452,1406
895.766907,1410
895.883423,1427
895.999878,1414
896.116333,1429
896.232849,1429
896.349304,1395
896.465759,1420
896.582214,1415
896.698669,1448
896.815125,1385
896.931641,1423
897.048035,1418
897.164551,1385
897.280884,1436
897.397339,1410
897.513794,1406
897.630249,1408
897.746582,1395
897.863098,1390
897.979431,1418
898.095886,1422
898.212341,1431
898.328674,1385
898.445129,1422
898.561462,1402
898.677795,1426
898.794312,1404
898.910645,1389
899.026978,1406
899.143433,1384
899.259766,1383
899.37616,1404
899.492493,1434
899.608765,1385
899.725159,1405
899.841553,1385
899.957947,1401
900.07428,1461
900.190552,1421
900.306946,1391
900.423157,1427
900.53949,1447
900.655884,1453
900.772156,1428
900.888489,1449
901.004822,1391
901.121033,1438
901.237366,1418
901.353699,1416
901.46991,1423
901.586304,1394
901.702515,1419
901.818787,1402
901.93512,1395
902.051331,1436
902.167603,1415
902.283875,1471
902.400085,1436
902.516418,1426
902.632629,1408
902.74884,1393
902.865112,1477
902.981384,1387
903.097595,1390
903.213867,1423
903.330017,1421
903.446289,1442
903.5625,1442
903.67865,1400
903.794922,1418
903.911072,1443
904.027344,1417
904.143494,1411
904.259705,1448
904.375916,1430
904.492065,1454
904.608215,1396
904.724426,1457
904.840576,1429
904.956726,1420
905.072876,1460
905.189087,1464
905.305176,1449
905.421387,1429
905.537537,1458
905.653687,1464
905.769775,1424
905.885925,1409
906.002014,1464
906.118164,1439
906.234314,1419
906.350403,1449
906.466492,1433
906.582642,1443
906.69873,1447
906.814758,1441
906.930908,1456
907.046936,1460
907.163086,1416
907.279175,1438
907.395264,1465
907.511353,1442
907.62738,1461
907.743408,1473
907.859497,1460
907.975525,1460
908.091553,1430
908.207703,1421
908.32373,1443
908.439758,1448
908.555786,1460
908.671814,1444
908.787842,1438
908.90387,1439
909.019775,1461
909.135864,1446
909.251892,1445
909.367859,1428
909.483826,1459
909.599854,1443
909.715881,1472
909.831848,1417
909.947815,1442
910.063782,1429
910.179749,1443
910.295776,1481
910.411743,1457
910.527649,1454
910.643616,1467
910.759583,1470
910.875488,1451
910.991455,1484
911.107361,1410
911.223267,1423
911.339294,1459
911.4552,1463
911.571106,1488
911.687073,1436
911.802979,1479
911.918823,1460
912.034729,1455
912.150635,1454
912.266602,1455
912.382446,1479
912.498352,1445
912.614197,1482
912.730103,1472
912.846008,1426
