792.44574,4957
792.56488,4906
792.68396,4743
792.80304,4642
792.92218,4420
793.041199,4327
793.160339,4217
793.279419,4175
793.398499,4164
793.517578,4024
793.636658,3954
793.755737,3799
793.874817,3713
793.993896,3664
794.112976,3572
794.232056,3435
794.351074,3456
794.470215,3399
794.589233,3339
794.708313,3291
794.827393,3231
794.946411,3204
795.065552,3114
795.18457,3137
795.303589,3101
795.422668,2989
795.541687,2974
795.660767,2993
795.779846,2934
795.898865,2867
796.017883,2845
796.136963,2791
796.255981,2790
796.375061,2783
796.49408,2706
796.613037,2657
796.732117,2675
796.851135,2722
796.970154,2640
797.089233,2628
797.208191,2571
797.327271,2563
797.446228,2542
797.565186,2524
797.684265,2486
797.803223,2472
797.922241,2433
798.04126,2456
798.160278,2442
798.279297,2404
798.398315,2398
798.517273,2381
798.636292,2419
798.75531,2368
798.874268,2390
798.993286,2354
799.112244,2368
799.231323,2304
799.350281,2370
799.469238,2306
799.588257,2282
799.707153,2324
799.826111,2385
799.945129,2313
800.064087,2226
800.183044,2220
800.302063,2272
800.421021,2271
800.539978,2253
800.658936,2234
800.777893,2237
800.896912,2149
801.015747,2229
801.134705,2211
801.253723,2135
801.37262,2159
801.491638,2192
801.610535,2172
801.729492,2155
801.84845,2132
801.967407,2169
802.086243,2172
802.205261,2115
802.324158,2158
802.443115,2087
802.562073,2103
802.680969,2095
802.799927,2094
802.918762,2078
803.037659,2097
803.156677,2072
803.275574,2036
803.39447,2014
803.513428,2041
803.632263,2106
803.751221,2059
803.870117,2049
803.989014,2037
804.107971,2042
804.226746,2044
804.345642,1999
804.4646,1998
804.583496,2018
804.702393,2001
804.821228,2034
804.940125,1988
805.059021,1930
805.177917,2014
805.296814,1951
805.415649,2009
805.534546,1950
805.653442,1966
805.772278,1978
805.891113,2019
806.01001,1971
806.128906,2000
806.247742,1973
806.366577,1957
806.485413,1954
806.604309,1936
806.723145,1951
806.84198,1954
806.960876,1955
807.079712,1914
807.198486,1922
807.317383,1947
807.436218,1906
807.554993,1940
807.673889,1936
807.792725,1877
807.91156,1915
808.030396,1914
808.14917,1907
808.268005,1926
808.386841,1898
808.505676,1900
808.624451,1904
808.743286,1925
808.862122,1862
808.980896,1899
809.099731,1872
809.218506,1860
809.337341,1918
809.456116,1869
809.57489,1923
809.693726,1937
809.8125,1861
809.931274,1919
810.050049,1883
810.168884,1872
810.287659,1878
810.406372,1925
810.525269,1886
810.643982,1848
810.762756,1873
810.881531,1858
811.000305,1914
811.11908,1896
811.237854,1840
811.356567,1907
811.475403,1939
811.594116,1888
811.71283,1898
811.831604,1926
811.950378,1886
812.069153,1908
812.187927,1924
812.30658,1970
812.425415,1974
812.544128,1907
812.662781,1928
812.781616,1893
812.900269,1931
813.019043,1933
813.137756,1920
813.256531,1930
813.375244,1882
813.493896,1850
813.612671,1887
813.731384,1889
813.850037,1866
813.96875,1806
814.087524,1852
814.206238,1765
814.324951,1832
814.443604,1856
814.562256,1838
814.68103,1844
814.799683,1845
814.918335,1827
815.037109,1840
815.155762,1811
815.274475,1838
815.393188,1843
815.511841,1836
815.630554,1881
815.749146,1798
815.867859,1837
815.986572,1868
816.105164,1817
816.223877,1832
816.342529,1785
816.461182,1835
816.579895,1830
816.698486,1923
816.817139,1852
816.935791,1900
817.054504,1932
817.173096,1891
817.291748,1834
817.4104,1893
817.529053,1890
817.647644,1804
817.766235,1811
817.884949,1823
818.00354,1815
818.122192,1795
818.240845,1828
818.359436,1791
818.478088,1788
818.59668,1785
818.715271,1774
818.833923,1742
818.952515,1762
819.071106,1716
819.189758,1694
819.30835,1779
819.426941,1705
819.545532,1734
819.664124,1717
819.782715,1692
819.901306,1667
820.019897,1678
820.138489,1661
820.25708,1682
820.375671,1693
820.494202,1704
820.612732,1692
820.731384,1700
820.849915,1708
820.968506,1749
821.087097,1659
821.205627,1671
821.324158,1665
821.442749,1628
821.561279,1672
821.679871,1687
821.798401,1670
821.916931,1661
822.035461,1650
822.154053,1669
822.272583,1596
822.391174,1636
822.509583,1648
822.628174,1616
822.746704,1588
822.865234,1584
822.983765,1595
823.102295,1587
823.220825,1609
823.339294,1605
823.457825,1565
823.576355,1610
823.694824,1628
823.813354,1614
823.931885,1664
824.050354,1669
824.168884,1633
824.287354,1615
824.405823,1621
824.524353,1647
824.642822,1647
824.761353,1617
824.879822,1615
824.998291,1607
825.116699,1631
825.235291,1645
825.353699,1650
825.472168,1630
825.590637,1610
825.709106,1635
825.827576,1657
825.946045,1619
826.064453,1608
826.182983,1648
826.301392,1577
826.4198,1594
826.53833,1540
826.656738,1552
826.775208,1559
826.893677,1542
827.012024,1556
827.130493,1595
827.248962,1589
827.36731,1600
827.485779,1578
827.604248,1623
827.722595,1602
827.841064,1544
827.959412,1576
828.077942,1563
828.196289,1559
828.314636,1580
828.433105,1549
828.551514,1544
828.669861,1610
828.78833,1546
828.906677,1589
829.025085,1573
829.143433,1585
829.261841,1590
829.38031,1576
829.498657,1557
829.617004,1564
829.735413,1585
829.85376,1571
829.972107,1550
830.090515,1560
830.208862,1590
830.327209,1577
830.445557,1555
830.563904,1556
830.682312,1573
830.800659,1538
830.919006,1601
831.037354,1595
831.155701,1604
831.274048,1626
831.392395,1638
831.51062,1585
831.629028,1575
831.747314,1576
831.865662,1593
831.984009,1585
832.102356,1609
832.220642,1622
832.338928,1597
832.457275,1625
832.575623,1619
832.693909,1609
832.812134,1652
832.930481,1572
833.048828,1579
833.167114,1609
833.2854,1594
833.403687,1558
833.521973,1602
833.640259,1619
833.758545,1611
833.876831,1624
833.995056,1575
834.113281,1643
834.231628,1580
834.349915,1581
834.468201,1605
834.586426,1618
834.704651,1626
834.822998,1557
834.941162,1604
835.059448,1609
835.177673,1665
835.295959,1662
835.414246,1623
835.53241,1606
835.650635,1554
835.768921,1571
835.887146,1567
836.005371,1601
836.123596,1584
836.241821,1538
836.360046,1615
836.478271,1524
836.596497,1556
836.714722,1565
836.832886,1534
836.95105,1544
837.069336,1561
837.1875,1559
837.305725,1548
837.423889,1579
837.542053,1564
837.660339,1591
837.778503,1568
837.896667,1536
838.014832,1591
838.132996,1570
838.25116,1593
838.369385,1557
838.487488,1600
838.605713,1596
838.723877,1598
838.84198,1583
838.960205,1599
839.078308,1625
839.196472,1616
839.314636,1647
839.4328,1651
839.550964,1631
839.669067,1596
839.787231,1673
839.905396,1739
840.023499,1719
840.141602,1699
840.259766,1759
840.377869,1677
840.495972,1742
840.614136,1725
840.732239,1732
840.850342,1735
840.968445,1762
841.086548,1762
841.204651,1778
841.322754,1831
841.440918,1763
841.55896,1812
841.677002,1821
841.795166,1797
841.913208,1822
842.031311,1806
842.149353,1846
842.267456,1803
842.385498,1734
842.503601,1795
842.621643,1783
842.739746,1789
842.857788,1781
842.97583,1777
843.093933,1758
843.211975,1767
843.330017,1775
843.44812,1758
843.566101,1765
843.684204,1783
843.802246,1758
843.920227,1750
844.038269,1762
844.156311,1769
844.274292,1751
844.392395,1764
844.510376,1711
844.628357,1777
844.74646,1734
844.864441,1735
844.982422,1701
845.100403,1710
845.218384,1688
845.336426,1698
845.454468,1770
845.572449,1689
845.69043,1702
845.808411,1731
845.926453,1693
846.044373,1710
846.162354,1688
846.280396,1718
846.398315,1727
846.516296,1732
846.634216,1725
846.752197,1741
846.870178,1750
846.988098,1733
847.106079,1747
847.22406,1755
847.34198,1757
847.4599,1732
847.577881,1727
847.695801,1727
847.813782,1722
847.931641,1726
848.049561,1694
848.167603,1694
848.285461,1693
848.403381,1722
848.521362,1705
848.639221,1758
848.75708,1726
848.875,1712
848.99292,1733
849.110901,1751
849.22876,1718
849.34668,1760
849.464539,1772
849.582458,1820
849.700317,1762
849.818176,1754
849.936096,1752
850.053955,1722
850.171875,1745
850.289673,1725
850.407593,1765
850.525452,1782
850.643311,1738
850.761169,1730
850.878967,1720
850.996887,1714
851.114746,1735
851.232544,1678
851.350403,1772
851.468262,1726
851.58606,1690
851.703979,1702
851.821777,1700
851.939636,1676
852.057434,1689
852.175232,1729
852.293091,1711
852.410889,1820
852.528687,1843
852.646545,1894
852.764343,1899
852.88208,1878
852.999939,1806
853.117676,1806
853.235535,1778
853.353271,1736
853.471069,1746
853.588928,1709
853.706604,1754
853.824402,1711
853.9422,1749
854.059998,1732
854.177734,1760
854.295532,1742
854.413269,1752
854.531006,1749
854.648804,1770
854.766541,1716
854.884277,1751
855.002014,1794
855.119751,1733
855.237549,1762
855.355225,1785
855.473022,1752
855.590698,1747
855.708435,1785
855.826172,1757
855.943848,1787
856.061646,1758
856.179321,1772
856.296997,1763
856.414795,1815
856.53241,1798
856.650085,1834
856.767822,1855
856.885559,1853
857.003174,1831
857.120911,1890
857.238586,1834
857.356201,1828
857.473938,1845
857.591614,1842
857.709351,1806
857.826965,1811
857.944641,1801
858.062317,1759
858.179993,1858
858.297668,1812
858.415283,1762
858.532959,1806
858.650574,1835
858.768188,1788
858.885803,1812
859.003479,1825
859.121094,1775
859.23877,1782
859.356384,1820
859.473999,1795
859.591675,1788
859.709229,1732
859.826843,1788
859.944458,1682
860.062012,1732
860.179626,1710
860.297302,1737
860.414856,1682
860.532471,1734
860.650024,1691
860.767639,1782
860.885193,1718
861.002808,1724
861.120361,1709
861.237976,1738
861.35553,1691
861.473022,1700
861.590698,1771
861.708191,1710
861.825745,1713
861.943298,1657
862.060852,1669
862.178406,1656
862.295959,1611
862.413513,1606
862.531006,1653
862.64856,1616
862.766113,1553
862.883667,1562
863.00116,1623
863.118713,1630
863.236206,1629
863.353699,1600
863.471252,1635
863.588745,1634
863.706177,1632
863.82373,1671
863.941162,1633
864.058716,1660
864.176208,1655
864.29364,1645
864.411194,1609
864.528687,1564
864.646118,1617
864.763611,1586
864.881042,1539
864.998535,1626
865.116028,1602
865.233459,1576
865.350891,1626
865.468384,1643
865.585754,1631
865.703308,1622
865.820679,1647
865.938171,1607
866.055542,1596
866.173035,1624
866.290466,1574
866.407837,1594
866.52533,1635
866.6427,1623
866.760071,1607
866.877563,1618
866.994934,1564
867.112305,1649
867.229736,1644
867.347107,1630
867.464539,1637
867.58197,1688
867.699341,1687
867.81665,1667
867.934082,1620
868.051453,1663
868.168823,1676
868.286194,1624
868.403564,1641
868.520935,1640
868.638306,1623
868.755676,1679
868.872986,1669
868.990295,1693
869.107727,1678
869.225037,1649
869.342346,1723
869.459717,1720
869.577026,1739
869.694336,1712
869.811707,1687
869.929016,1745
870.046326,1722
870.163635,1731
870.280945,1777
870.398254,1744
870.515564,1778
870.632812,1757
870.750183,1815
870.867432,1815
870.984741,1775
871.102051,1861
871.219299,1843
871.336609,1839
871.453918,1832
871.571106,1812
871.688416,1834
871.805664,1811
871.922852,1873
872.040222,1883
872.157471,1869
872.274719,1867
872.391968,1883
872.509155,1833
872.626465,1843
872.743652,1863
872.860962,1838
872.978149,1850
873.095337,1786
873.212646,1817
873.329834,1874
873.44696,1805
873.564209,1835
873.681396,1793
873.798645,1818
873.915894,1782
874.03302,1836
874.150208,1853
874.267456,1840
874.384583,1818
874.501831,1880
874.618958,1865
874.736145,1850
874.853333,1898
874.970459,1911
875.087646,1887
875.204834,1865
875.32196,1904
875.439148,1828
875.556274,1839
875.673401,1794
875.790527,1775
875.907715,1794
876.024841,1800
876.141968,1762
876.259094,1715
876.376282,1766
876.493347,1785
876.610474,1742
876.7276,1746
876.844727,1739
876.961853,1707
877.078918,1710
877.195984,1691
877.313171,1749
877.430237,1713
877.547302,1727
877.664368,1691
877.781433,1732
877.898499,1723
878.015625,1686
878.13269,1679
878.249695,1696
878.366821,1651
878.483887,1654
878.600952,1645
878.717957,1643
878.834961,1648
878.952087,1675
879.069092,1648
879.186157,1645
879.303162,1638
879.420227,1620
879.537231,1651
879.654236,1605
879.77124,1608
879.888306,1593
880.005249,1631
880.122314,1604
880.239319,1609
880.356323,1575
880.473328,1594
880.590271,1587
880.707275,1547
880.824341,1559
880.941284,1589
881.058228,1556
881.175232,1578
881.292236,1537
881.40918,1551
881.526123,1561
881.643066,1556
881.760071,1540
881.877014,1546
881.993958,1605
882.11084,1619
882.227783,1554
882.344727,1561
882.46167,1561
882.578613,1572
882.695618,1602
882.812439,1593
882.929382,1562
883.046326,1586
883.163208,1559
883.280151,1589
883.397034,1610
883.513916,1547
883.630798,1621
883.747742,1606
883.864563,1615
883.981506,1638
884.098389,1628
884.21521,1647
884.332153,1679
884.448975,1686
884.565796,1711
884.682678,1781
884.7995,1797
884.916443,1824
885.033264,1932
885.150085,1990
885.266968,2036
885.383789,2085
885.500671,2143
885.617493,2183
885.734314,2182
885.851196,2176
885.967896,2155
886.084717,2117
886.201599,2107
886.318359,2046
886.435181,2065
886.552002,2121
886.668762,2065
886.785645,1985
886.902344,2016
887.019165,1938
887.135925,2027
887.252747,1967
887.369446,1902
887.486267,1830
887.603027,1852
887.719788,1772
887.836548,1763
887.953247,1763
888.070068,1727
888.186829,1682
888.303528,1708
888.420288,1634
888.536987,1614
888.653687,1542
888.770447,1585
888.887146,1587
889.003967,1566
889.120667,1506
889.237305,1545
889.354065,1526
889.470703,1538
889.587463,1489
889.704163,1482
889.820862,1508
889.937561,1478
890.054199,1514
890.170837,1512
890.287598,1466
890.404236,1455
890.520874,1515
890.637634,1505
890.754211,1469
890.87085,1490
890.987549,1502
891.104187,1516
891.220886,1456
891.337463,1539
891.454102,1487
891.57074,1530
891.687378,1491
891.804077,1509
891.920654,1542
892.037231,1511
892.15387,1474
892.270447,1539
892.387085,1524
892.503723,1481
892.6203,1522
892.736877,1511
892.853516,1453
892.970032,1491
893.08667,1498
893.203186,1482
893.319763,1445
893.43634,1469
893.552917,1462
893.669556,1513
893.786011,1465
893.902588,1478
894.019165,1498
894.135681,1484
894.252197,1514
894.368835,1513
894.485291,1500
894.601868,1505
894.718384,1524
894.8349,1499
894.951355,1500
895.067932,1480
895.184448,1448
895.300964,1491
895.417419,1454
895.533936,1441
895.650452,1449
895.766907,1428
895.883423,1478
895.999878,1406
896.116333,1486
896.232849,1452
896.349304,1493
896.465759,1496
896.582214,1485
896.698669,1457
896.815125,1473
896.931641,1512
897.048035,1492
897.164551,1467
897.280884,1494
897.397339,1494
897.513794,1472
897.630249,1505
897.746582,1496
897.863098,1489
897.979431,1465
898.095886,1485
898.212341,1489
898.328674,1507
898.445129,1505
898.561462,1518
898.677795,1472
898.794312,1483
898.910645,1502
899.026978,1534
899.143433,1549
899.259766,1498
899.37616,1509
899.492493,1547
899.608765,1506
899.725159,1535
899.841553,1541
899.957947,1525
900.07428,1523
900.190552,1518
900.306946,1524
900.423157,1524
900.53949,1549
900.655884,1514
900.772156,1488
900.888489,1534
901.004822,1527
901.121033,1537
901.237366,1496
901.353699,1576
901.46991,1576
901.586304,1561
901.702515,1560
901.818787,1566
901.93512,1590
902.051331,1649
902.167603,1615
902.283875,1736
902.400085,1728
902.516418,1759
902.632629,1799
902.74884,1815
902.865112,1808
902.981384,1854
903.097595,1801
903.213867,1816
903.330017,1803
903.446289,1798
903.5625,1739
903.67865,1718
903.794922,1777
903.911072,1721
904.027344,1667
904.143494,1670
904.259705,1654
904.375916,1695
904.492065,1623
904.608215,1634
904.724426,1590
904.840576,1597
904.956726,1560
905.072876,1553
905.189087,1523
905.305176,1541
905.421387,1494
905.537537,1484
905.653687,1497
905.769775,1518
905.885925,1454
906.002014,1537
906.118164,1467
906.234314,1486
906.350403,1487
906.466492,1472
906.582642,1473
906.69873,1486
906.814758,1487
906.930908,1461
907.046936,1486
907.163086,1499
907.279175,1485
907.395264,1430
907.511353,1437
907.62738,1465
907.743408,1470
907.859497,1488
907.975525,1473
908.091553,1465
908.207703,1455
908.32373,1421
908.439758,1475
908.555786,1455
908.671814,1449
908.787842,1454
908.90387,1448
909.019775,1475
909.135864,1454
909.251892,1457
909.367859,1440
909.483826,1464
909.599854,1485
909.715881,1449
909.831848,1483
909.947815,1520
910.063782,1465
910.179749,1501
910.295776,1460
910.411743,1439
910.527649,1476
910.643616,1476
910.759583,1441
910.875488,1494
910.991455,1483
911.107361,1463
911.223267,1457
911.339294,1436
911.4552,1446
911.571106,1435
911.687073,1446
911.802979,1400
911.918823,1470
912.034729,1443
912.150635,1458
912.266602,1460
912.382446,1436
912.498352,1437
912.614197,1465
912.730103,1451
912.846008,1449
792.44574,5020
792.56488,4879
792.68396,4786
792.80304,4591
792.92218,4498
793.041199,4346
793.160339,4253
793.279419,4202
793.398499,4038
793.517578,3920
793.636658,3906
793.755737,3789
793.874817,3785
793.993896,3624
794.112976,3549
794.232056,3531
794.351074,3462
794.470215,3419
794.589233,3315
794.708313,3287
794.827393,3219
794.946411,3220
795.065552,3111
795.18457,3086
795.303589,3069
795.422668,2997
795.541687,2999
795.660767,2985
795.779846,2916
795.898865,2923
796.017883,2883
796.136963,2810
796.255981,2792
796.375061,2786
796.49408,2745
796.613037,2798
796.732117,2685
796.851135,2614
796.970154,2626
797.089233,2574
797.208191,2552
797.327271,2541
797.446228,2567
797.565186,2511
797.684265,2456
797.803223,2524
797.922241,2458
798.04126,2485
798.160278,2490
798.279297,2416
798.398315,2425
798.517273,2382
798.636292,2414
798.75531,2379
798.874268,2376
798.993286,2482
799.112244,2359
799.231323,2353
799.350281,2334
799.469238,2336
799.588257,2348
799.707153,2285
799.826111,2300
799.945129,2318
800.064087,2331
800.183044,2232
800.302063,2276
800.421021,2259
800.539978,2252
800.658936,2263
800.777893,2158
800.896912,2178
801.015747,2200
801.134705,2241
801.253723,2213
801.37262,2157
801.491638,2179
801.610535,2165
801.729492,2139
801.84845,2162
801.967407,2159
802.086243,2140
802.205261,2096
802.324158,2137
802.443115,2122
802.562073,2117
802.680969,2063
802.799927,2006
802.918762,2073
803.037659,2087
803.156677,2052
803.275574,2076
803.39447,2036
803.513428,2066
803.632263,2057
803.751221,2045
803.870117,2089
803.989014,2042
804.107971,2050
804.226746,1985
804.345642,1996
804.4646,2014
804.583496,2011
804.702393,1942
804.821228,1973
804.940125,2003
805.059021,1964
805.177917,1997
805.296814,2017
805.415649,1945
805.534546,1970
805.653442,1965
805.772278,1967
805.891113,1938
806.01001,1967
806.128906,1959
806.247742,1988
806.366577,1941
806.485413,1913
806.604309,1945
806.723145,1921
806.84198,1980
806.960876,1957
807.079712,1953
807.198486,1956
807.317383,1952
807.436218,1910
807.554993,1917
807.673889,1927
807.792725,1915
807.91156,1921
808.030396,1878
808.14917,1867
808.268005,1899
808.386841,1892
808.505676,1857
808.624451,1885
808.743286,1894
808.862122,1936
808.980896,1860
809.099731,1879
809.218506,1930
809.337341,1889
809.456116,1896
809.57489,1870
809.693726,1915
809.8125,1895
809.931274,1919
810.050049,1904
810.168884,1885
810.287659,1837
810.406372,1852
810.525269,1887
810.643982,1889
810.762756,1892
810.881531,1908
811.000305,1855
811.11908,1824
811.237854,1914
811.356567,1857
811.475403,1902
811.594116,1888
811.71283,1901
811.831604,1859
811.950378,1995
812.069153,1934
812.187927,1895
812.30658,1883
812.425415,1916
812.544128,1901
812.662781,1927
812.781616,1921
812.900269,1912
813.019043,1911
813.137756,1868
813.256531,1891
813.375244,1867
813.493896,1908
813.612671,1869
813.731384,1853
813.850037,1839
813.96875,1846
814.087524,1848
814.206238,1814
814.324951,1857
814.443604,1850
814.562256,1880
814.68103,1882
814.799683,1876
814.918335,1843
815.037109,1857
815.155762,1848
815.274475,1877
815.393188,1839
815.511841,1823
815.630554,1858
815.749146,1844
815.867859,1808
815.986572,1781
816.105164,1861
816.223877,1857
816.342529,1835
816.461182,1888
816.579895,1840
816.698486,1856
816.817139,1838
816.935791,1902
817.054504,1901
817.173096,1887
817.291748,1906
817.4104,1871
817.529053,1842
817.647644,1849
817.766235,1804
817.884949,1770
818.00354,1829
818.122192,1780
818.240845,1748
818.359436,1727
818.478088,1772
818.59668,1739
818.715271,1705
818.833923,1769
818.952515,1704
819.071106,1679
819.189758,1673
819.30835,1656
819.426941,1704
819.545532,1692
819.664124,1710
819.782715,1717
819.901306,1624
820.019897,1686
820.138489,1683
820.25708,1683
820.375671,1693
820.494202,1696
820.612732,1676
820.731384,1698
820.849915,1708
820.968506,1723
821.087097,1688
821.205627,1649
821.324158,1701
821.442749,1663
821.561279,1679
821.679871,1687
821.798401,1631
821.916931,1680
822.035461,1629
822.154053,1639
822.272583,1679
822.391174,1643
822.509583,1632
822.628174,1652
822.746704,1632
822.865234,1564
822.983765,1660
823.102295,1629
823.220825,1604
823.339294,1562
823.457825,1623
823.576355,1656
823.694824,1600
823.813354,1645
823.931885,1635
824.050354,1584
824.168884,1587
824.287354,1657
824.405823,1629
824.524353,1617
824.642822,1625
824.761353,1596
824.879822,1624
824.998291,1628
825.116699,1618
825.235291,1686
825.353699,1629
825.472168,1591
825.590637,1620
825.709106,1602
825.827576,1589
825.946045,1606
826.064453,1639
826.182983,1608
826.301392,1584
826.4198,1561
826.53833,1558
826.656738,1556
826.775208,1532
826.893677,1565
827.012024,1555
827.130493,1628
827.248962,1601
827.36731,1615
827.485779,1618
827.604248,1592
827.722595,1623
827.841064,1595
827.959412,1561
828.077942,1582
828.196289,1536
828.314636,1544
828.433105,1602
828.551514,1550
828.669861,1582
828.78833,1583
828.906677,1578
829.025085,1543
829.143433,1525
829.261841,1575
829.38031,1571
829.498657,1532
829.617004,1559
829.735413,1549
829.85376,1545
829.972107,1574
830.090515,1555
830.208862,1581
830.327209,1516
830.445557,1553
830.563904,1542
830.682312,1555
830.800659,1581
830.919006,1593
831.037354,1574
831.155701,1618
831.274048,1658
831.392395,1607
831.51062,1584
831.629028,1594
831.747314,1553
831.865662,1579
831.984009,1605
832.102356,1607
832.220642,1584
832.338928,1619
832.457275,1590
832.575623,1619
832.693909,1612
832.812134,1588
832.930481,1577
833.048828,1596
833.167114,1581
833.2854,1608
833.403687,1609
833.521973,1557
833.640259,1608
833.758545,1594
833.876831,1562
833.995056,1542
834.113281,1578
834.231628,1625
834.349915,1673
834.468201,1587
834.586426,1597
834.704651,1594
834.822998,1577
834.941162,1632
835.059448,1627
835.177673,1621
835.295959,1627
835.414246,1624
835.53241,1589
835.650635,1581
835.768921,1613
835.887146,1616
836.005371,1578
836.123596,1556
836.241821,1550
836.360046,1551
836.478271,1568
836.596497,1571
836.714722,1524
836.832886,1558
836.95105,1582
837.069336,1531
837.1875,1520
837.305725,1533
837.423889,1549
837.542053,1586
837.660339,1567
837.778503,1563
837.896667,1576
838.014832,1552
838.132996,1591
838.25116,1606
838.369385,1595
838.487488,1560
838.605713,1568
838.723877,1583
838.84198,1618
838.960205,1600
839.078308,1620
839.196472,1589
839.314636,1624
839.4328,1642
839.550964,1629
839.669067,1669
839.787231,1696
839.905396,1700
840.023499,1694
840.141602,1767
840.259766,1727
840.377869,1731
840.495972,1729
840.614136,1775
840.732239,1774
840.850342,1747
840.968445,1701
841.086548,1795
841.204651,1736
841.322754,1788
841.440918,1803
841.55896,1796
841.677002,1769
841.795166,1789
841.913208,1808
842.031311,1788
842.149353,1814
842.267456,1785
842.385498,1795
842.503601,1805
842.621643,1742
842.739746,1788
842.857788,1734
842.97583,1798
843.093933,1800
843.211975,1760
843.330017,1730
843.44812,1753
843.566101,1811
843.684204,1771
843.802246,1766
843.920227,1770
844.038269,1709
844.156311,1751
844.274292,1724
844.392395,1691
844.510376,1762
844.628357,1691
844.74646,1717
844.864441,1721
844.982422,1746
845.100403,1707
845.218384,1693
845.336426,1700
845.454468,1700
845.572449,1731
845.69043,1688
845.808411,1676
845.926453,1718
846.044373,1699
846.162354,1732
846.280396,1721
846.398315,1688
846.516296,1751
846.634216,1724
846.752197,1747
846.870178,1751
846.988098,1712
847.106079,1750
847.22406,1735
847.34198,1790
847.4599,1724
847.577881,1714
847.695801,1749
847.813782,1739
847.931641,1743
848.049561,1745
848.167603,1684
848.285461,1720
848.403381,1691
848.521362,1742
848.639221,1728
848.75708,1715
848.875,1742
848.99292,1750
849.110901,1733
849.22876,1722
849.34668,1756
849.464539,1737
849.582458,1709
849.700317,1720
849.818176,1699
849.936096,1716
850.053955,1768
850.171875,1701
850.289673,1744
850.407593,1738
850.525452,1763
850.643311,1733
850.761169,1746
850.878967,1741
850.996887,1733
851.114746,1698
851.232544,1678
851.350403,1687
851.468262,1709
851.58606,1713
851.703979,1689
851.821777,1733
851.939636,1666
852.057434,1730
852.175232,1719
852.293091,1766
852.410889,1759
852.528687,1815
852.646545,1852
852.764343,1912
852.88208,1886
852.999939,1858
853.117676,1792
853.235535,1779
853.353271,1725
853.471069,1738
853.588928,1739
853.706604,1724
853.824402,1726
853.9422,1715
854.059998,1695
854.177734,1714
854.295532,1770
854.413269,1772
854.531006,1797
854.648804,1715
854.766541,1735
854.884277,1753
855.002014,1773
855.119751,1690
855.237549,1790
855.355225,1802
855.473022,1705
855.590698,1732
855.708435,1762
855.826172,1734
855.943848,1763
856.061646,1755
856.179321,1764
856.296997,1729
856.414795,1816
856.53241,1803
856.650085,1856
856.767822,1813
856.885559,1877
857.003174,1802
857.120911,1792
857.238586,1837
857.356201,1864
857.473938,1819
857.591614,1815
857.709351,1799
857.826965,1825
857.944641,1763
858.062317,1840
858.179993,1818
858.297668,1844
858.415283,1853
858.532959,1782
858.650574,1831
858.768188,1821
858.885803,1795
859.003479,1800
859.121094,1824
859.23877,1802
859.356384,1792
859.473999,1751
859.591675,1757
859.709229,1771
859.826843,1753
859.944458,1734
860.062012,1721
860.179626,1733
860.297302,1770
860.414856,1728
860.532471,1678
860.650024,1702
860.767639,1690
860.885193,1714
861.002808,1629
861.120361,1712
861.237976,1698
861.35553,1742
861.473022,1731
861.590698,1744
861.708191,1703
861.825745,1713
861.943298,1682
862.060852,1672
862.178406,1620
862.295959,1617
862.413513,1638
862.531006,1587
862.64856,1541
862.766113,1601
862.883667,1589
863.00116,1574
863.118713,1618
863.236206,1605
863.353699,1580
863.471252,1600
863.588745,1640
863.706177,1639
863.82373,1629
863.941162,1663
864.058716,1618
864.176208,1701
864.29364,1634
864.411194,1630
864.528687,1583
864.646118,1625
864.763611,1537
864.881042,1579
864.998535,1632
865.116028,1631
865.233459,1645
865.350891,1595
865.468384,1599
865.585754,1634
865.703308,1609
865.820679,1605
865.938171,1654
866.055542,1670
866.173035,1574
866.290466,1617
866.407837,1589
866.52533,1625
866.6427,1629
866.760071,1625
866.877563,1598
866.994934,1651
867.112305,1619
867.229736,1653
867.347107,1612
867.464539,1687
867.58197,1672
867.699341,1673
867.81665,1689
867.934082,1648
868.051453,1600
868.168823,1640
868.286194,1614
868.403564,1643
868.520935,1662
868.638306,1635
868.755676,1663
868.872986,1695
868.990295,1639
869.107727,1668
869.225037,1655
869.342346,1689
869.459717,1722
869.577026,1718
869.694336,1718
869.811707,1717
869.929016,1759
870.046326,1723
870.163635,1757
870.280945,1753
870.398254,1762
870.515564,1820
870.632812,1735
870.750183,1832
870.867432,1870
870.984741,1813
871.102051,1823
871.219299,1830
871.336609,1822
871.453918,1828
871.571106,1857
871.688416,1889
871.805664,1839
871.922852,1818
872.040222,1850
872.157471,1831
872.274719,1882
872.391968,1861
872.509155,1878
872.626465,1824
872.743652,1863
872.860962,1843
872.978149,1797
873.095337,1845
873.212646,1838
873.329834,1833
873.44696,1796
873.564209,1802
873.681396,1778
873.798645,1779
873.915894,1792
874.03302,1780
874.150208,1804
874.267456,1854
874.384583,1865
874.501831,1860
874.618958,1871
874.736145,1878
874.853333,1891
874.970459,1880
875.087646,1893
875.204834,1883
875.32196,1836
875.439148,1834
875.556274,1826
875.673401,1829
875.790527,1797
875.907715,1792
876.024841,1751
876.141968,1800
876.259094,1798
876.376282,1786
876.493347,1778
876.610474,1772
876.7276,1759
876.844727,1781
876.961853,1740
877.078918,1776
877.195984,1736
877.313171,1733
877.430237,1759
877.547302,1760
877.664368,1679
877.781433,1730
877.898499,1723
878.015625,1715
878.13269,1668
878.249695,1704
878.366821,1631
878.483887,1708
878.600952,1675
878.717957,1638
878.834961,1631
878.952087,1684
879.069092,1610
879.186157,1666
879.303162,1633
879.420227,1593
879.537231,1646
879.654236,1596
879.77124,1612
879.888306,1611
880.005249,1608
880.122314,1545
880.239319,1592
880.356323,1553
880.473328,1601
880.590271,1578
880.707275,1604
880.824341,1629
880.941284,1506
881.058228,1573
881.175232,1567
881.292236,1567
881.40918,1597
881.526123,1565
881.643066,1560
881.760071,1563
881.877014,1638
881.993958,1530
882.11084,1562
882.227783,1571
882.344727,1556
882.46167,1538
882.578613,1555
882.695618,1579
882.812439,1552
882.929382,1582
883.046326,1583
883.163208,1561
883.280151,1618
883.397034,1590
883.513916,1589
883.630798,1621
883.747742,1634
883.864563,1633
883.981506,1619
884.098389,1623
884.21521,1656
884.332153,1669
884.448975,1659
884.565796,1742
884.682678,1718
884.7995,1854
884.916443,1846
885.033264,1926
885.150085,1974
885.266968,2042
885.383789,2105
885.500671,2102
885.617493,2157
885.734314,2156
885.851196,2132
885.967896,2177
886.084717,2083
886.201599,2138
886.318359,2091
886.435181,2067
886.552002,2096
886.668762,2058
886.785645,2053
886.902344,2052
887.019165,1973
887.135925,2034
887.252747,1938
887.369446,1920
887.486267,1913
887.603027,1867
887.719788,1824
887.836548,1813
887.953247,1741
888.070068,1756
888.186829,1688
888.303528,1674
888.420288,1682
888.536987,1621
888.653687,1572
888.770447,1634
888.887146,1534
889.003967,1584
889.120667,1491
889.237305,1525
889.354065,1511
889.470703,1509
889.587463,1509
889.704163,1510
889.820862,1460
889.937561,1503
890.054199,1531
890.170837,1525
890.287598,1490
890.404236,1465
890.520874,1497
890.637634,1462
890.754211,1495
890.87085,1467
890.987549,1486
891.104187,1522
891.220886,1553
891.337463,1494
891.454102,1494
891.57074,1511
891.687378,1546
891.804077,1539
891.920654,1503
892.037231,1533
892.15387,1529
892.270447,1473
892.387085,1489
892.503723,1509
892.6203,1495
892.736877,1474
892.853516,1523
892.970032,1522
893.08667,1491
893.203186,1521
893.319763,1431
893.43634,1516
893.552917,1487
893.669556,1467
893.786011,1483
893.902588,1500
894.019165,1516
894.135681,1517
894.252197,1501
894.368835,1509
894.485291,1454
894.601868,1501
894.718384,1489
894.8349,1525
894.951355,1475
895.067932,1504
895.184448,1487
895.300964,1455
895.417419,1500
895.533936,1459
895.650452,1458
895.766907,1521
895.883423,1462
895.999878,1469
896.116333,1487
896.232849,1466
896.349304,1455
896.465759,1494
896.582214,1484
896.698669,1503
896.815125,1490
896.931641,1517
897.048035,1507
897.164551,1520
897.280884,1453
897.397339,1482
897.513794,1467
897.630249,1483
897.746582,1506
897.863098,1540
897.979431,1520
898.095886,1487
898.212341,1476
898.328674,1542
898.445129,1509
898.561462,1519
898.677795,1511
898.794312,1510
898.910645,1521
899.026978,1516
899.143433,1525
899.259766,1541
899.37616,1530
899.492493,1489
899.608765,1535
899.725159,1563
899.841553,1524
899.957947,1501
900.07428,1521
900.190552,1531
900.306946,1530
900.423157,1517
900.53949,1503
900.655884,1574
900.772156,1526
900.888489,1536
901.004822,1499
901.121033,1572
901.237366,1563
901.353699,1550
901.46991,1554
901.586304,1585
901.702515,1573
901.818787,1661
901.93512,1656
902.051331,1714
902.167603,1665
902.283875,1738
902.400085,1751
902.516418,1771
902.632629,1802
902.74884,1806
902.865112,1882
902.981384,1875
903.097595,1832
903.213867,1866
903.330017,1751
903.446289,1795
903.5625,1754
903.67865,1777
903.794922,1722
903.911072,1720
904.027344,1720
904.143494,1708
904.259705,1674
904.375916,1625
904.492065,1627
904.608215,1569
904.724426,1625
904.840576,1539
904.956726,1582
905.072876,1604
905.189087,1515
905.305176,1544
905.421387,1526
905.537537,1516
905.653687,1506
905.769775,1518
905.885925,1516
906.002014,1504
906.118164,1500
906.234314,1494
906.350403,1492
906.466492,1501
906.582642,1522
906.69873,1457
906.814758,1482
906.930908,1512
907.046936,1489
907.163086,1496
907.279175,1476
907.395264,1491
907.511353,1478
907.62738,1463
907.743408,1482
907.859497,1516
907.975525,1457
908.091553,1464
908.207703,1521
908.32373,1505
908.439758,1437
908.555786,1473
908.671814,1438
908.787842,1485
908.90387,1485
909.019775,1474
909.135864,1492
909.251892,1518
909.367859,1431
909.483826,1495
909.599854,1506
909.715881,1498
909.831848,1485
909.947815,1474
910.063782,1513
910.179749,1486
910.295776,1501
910.411743,1489
910.527649,1532
910.643616,1519
910.759583,1472
910.875488,1464
910.991455,1486
911.107361,1492
911.223267,1473
911.339294,1525
911.4552,1486
911.571106,1470
911.687073,1494
911.802979,1449
911.918823,1463
912.034729,1459
912.150635,1444
912.266602,1461
912.382446,1466
912.498352,1448
912.614197,1456
912.730103,1445
912.846008,1478
792.44574,5033
792.56488,4851
792.68396,4753
792.80304,4591
792.92218,4459
793.041199,4291
793.160339,4285
793.279419,4161
793.398499,4135
793.517578,3988
793.636658,3885
793.755737,3782
793.874817,3748
793.993896,3567
794.112976,3575
794.232056,3479
794.351074,3549
794.470215,3367
794.589233,3343
794.708313,3337
794.827393,3222
794.946411,3232
795.065552,3153
795.18457,3136
795.303589,3115
795.422668,2986
795.541687,2969
795.660767,2969
795.779846,2948
795.898865,2909
796.017883,2870
796.136963,2848
796.255981,2772
796.375061,2740
796.49408,2797
796.613037,2723
796.732117,2663
796.851135,2637
796.970154,2633
797.089233,2604
797.208191,2560
797.327271,2517
797.446228,2504
797.565186,2467
797.684265,2478
797.803223,2499
797.922241,2443
798.04126,2493
798.160278,2416
798.279297,2454
798.398315,2462
798.517273,2379
798.636292,2429
798.75531,2418
798.874268,2393
798.993286,2412
799.112244,2381
799.231323,2348
799.350281,2339
799.469238,2352
799.588257,2377
799.707153,2271
799.826111,2260
799.945129,2239
800.064087,2295
800.183044,2237
800.302063,2296
800.421021,2246
800.539978,2223
800.658936,2231
800.777893,2226
800.896912,2241
801.015747,2207
801.134705,2189
801.253723,2146
801.37262,2206
801.491638,2153
801.610535,2192
801.729492,2138
801.84845,2131
801.967407,2150
802.086243,2068
802.205261,2137
802.324158,2094
802.443115,2114
802.562073,2090
802.680969,2116
802.799927,2080
802.918762,2079
803.037659,2059
803.156677,2089
803.275574,2072
803.39447,2086
803.513428,2041
803.632263,2081
803.751221,1999
803.870117,2025
803.989014,2046
804.107971,2023
804.226746,2030
804.345642,2000
804.4646,2036
804.583496,2027
804.702393,1967
804.821228,2012
804.940125,2012
805.059021,1964
805.177917,1976
805.296814,2003
805.415649,1948
805.534546,2011
805.653442,1922
805.772278,1994
805.891113,2017
806.01001,1978
806.128906,1931
806.247742,1993
806.366577,1918
806.485413,1981
806.604309,1926
806.723145,1968
806.84198,1929
806.960876,1891
807.079712,1949
807.198486,1942
807.317383,1902
807.436218,1857
807.554993,1944
807.673889,1909
807.792725,1880
807.91156,1861
808.030396,1919
808.14917,1867
808.268005,1900
808.386841,1927
808.505676,1871
808.624451,1876
808.743286,1897
808.862122,1882
808.980896,1896
809.099731,1827
809.218506,1882
809.337341,1923
809.456116,1898
809.57489,1941
809.693726,1873
809.8125,1883
809.931274,1866
810.050049,1870
810.168884,1874
810.287659,1904
810.406372,1858
810.525269,1849
810.643982,1912
810.762756,1839
810.881531,1910
811.000305,1903
811.11908,1903
811.237854,1879
811.356567,1889
811.475403,1920
811.594116,1885
811.71283,1912
811.831604,1885
811.950378,1948
812.069153,1931
812.187927,1938
812.30658,1941
812.425415,1928
812.544128,1984
812.662781,1889
812.781616,1937
812.900269,1924
813.019043,1857
813.137756,1878
813.256531,1877
813.375244,1857
813.493896,1885
813.612671,1844
813.731384,1902
813.850037,1829
813.96875,1843
814.087524,1831
814.206238,1800
814.324951,1842
814.443604,1840
814.562256,1805
814.68103,1817
814.799683,1833
814.918335,1832
815.037109,1845
815.155762,1861
815.274475,1852
815.393188,1794
815.511841,1846
815.630554,1785
815.749146,1830
815.867859,1854
815.986572,1841
816.105164,1831
816.223877,1824
816.342529,1798
816.461182,1819
816.579895,1873
816.698486,1808
816.817139,1866
816.935791,1877
817.054504,1865
817.173096,1861
817.291748,1869
817.4104,1827
817.529053,1820
817.647644,1853
817.766235,1822
817.884949,1733
818.00354,1794
818.122192,1779
818.240845,1809
818.359436,1765
818.478088,1731
818.59668,1776
818.715271,1775
818.833923,1737
818.952515,1690
819.071106,1713
819.189758,1678
819.30835,1651
819.426941,1703
819.545532,1637
819.664124,1690
819.782715,1715
819.901306,1690
820.019897,1678
820.138489,1643
820.25708,1688
820.375671,1662
820.494202,1669
820.612732,1701
820.731384,1704
820.849915,1643
820.968506,1690
821.087097,1660
821.205627,1738
821.324158,1644
821.442749,1639
821.561279,1627
821.679871,1664
821.798401,1610
821.916931,1623
822.035461,1679
822.154053,1651
822.272583,1600
822.391174,1599
822.509583,1588
822.628174,1645
822.746704,1656
822.865234,1600
822.983765,1607
823.102295,1562
823.220825,1614
823.339294,1598
823.457825,1559
823.576355,1630
823.694824,1615
823.813354,1640
823.931885,1561
824.050354,1599
824.168884,1605
824.287354,1625
824.405823,1611
824.524353,1588
824.642822,1597
824.761353,1647
824.879822,1650
824.998291,1652
825.116699,1595
825.235291,1604
825.353699,1658
825.472168,1616
825.590637,1589
825.709106,1587
825.827576,1593
825.946045,1610
826.064453,1605
826.182983,1582
826.301392,1561
826.4198,1555
826.53833,1574
826.656738,1581
826.775208,1568
826.893677,1554
827.012024,1516
827.130493,1551
827.248962,1553
827.36731,1579
827.485779,1563
827.604248,1593
827.722595,1566
827.841064,1569
827.959412,1513
828.077942,1588
828.196289,1522
828.314636,1588
828.433105,1561
828.551514,1510
828.669861,1548
828.78833,1565
828.906677,1516
829.025085,1549
829.143433,1580
829.261841,1556
829.38031,1549
829.498657,1538
829.617004,1554
829.735413,1557
829.85376,1540
829.972107,1521
830.090515,1531
830.208862,1553
830.327209,1566
830.445557,1563
830.563904,1513
830.682312,1551
830.800659,1536
830.919006,1566
831.037354,1580
831.155701,1613
831.274048,1613
831.392395,1576
831.51062,1602
831.629028,1550
831.747314,1583
831.865662,1572
831.984009,1556
832.102356,1519
832.220642,1561
832.338928,1612
832.457275,1614
832.575623,1597
832.693909,1595
832.812134,1601
832.930481,1599
833.048828,1593
833.167114,1581
833.2854,1544
833.403687,1540
833.521973,1536
833.640259,1579
833.758545,1585
833.876831,1607
833.995056,1574
834.113281,1602
834.231628,1617
834.349915,1626
834.468201,1622
834.586426,1578
834.704651,1513
834.822998,1595
834.941162,1572
835.059448,1619
835.177673,1582
835.295959,1562
835.414246,1595
835.53241,1585
835.650635,1528
835.768921,1591
835.887146,1572
836.005371,1567
836.123596,1526
836.241821,1587
836.360046,1586
836.478271,1564
836.596497,1537
836.714722,1558
836.832886,1549
836.95105,1548
837.069336,1591
837.1875,1542
837.305725,1563
837.423889,1561
837.542053,1554
837.660339,1508
837.778503,1526
837.896667,1548
838.014832,1547
838.132996,1569
838.25116,1540
838.369385,1569
838.487488,1579
838.605713,1617
838.723877,1574
838.84198,1601
838.960205,1591
839.078308,1596
839.196472,1565
839.314636,1570
839.4328,1630
839.550964,1672
839.669067,1681
839.787231,1686
839.905396,1679
840.023499,1696
840.141602,1699
840.259766,1719
840.377869,1709
840.495972,1691
840.614136,1726
840.732239,1780
840.850342,1693
840.968445,1745
841.086548,1780
841.204651,1744
841.322754,1762
841.440918,1797
841.55896,1807
841.677002,1845
841.795166,1768
841.913208,1784
842.031311,1844
842.149353,1778
842.267456,1814
842.385498,1759
842.503601,1757
842.621643,1794
842.739746,1759
842.857788,1740
842.97583,1743
843.093933,1796
843.211975,1807
843.330017,1770
843.44812,1783
843.566101,1774
843.684204,1688
843.802246,1767
843.920227,1736
844.038269,1775
844.156311,1708
844.274292,1725
844.392395,1725
844.510376,1747
844.628357,1685
844.74646,1717
844.864441,1703
844.982422,1659
845.100403,1734
845.218384,1678
845.336426,1633
845.454468,1653
845.572449,1731
845.69043,1751
845.808411,1670
845.926453,1680
846.044373,1716
846.162354,1716
846.280396,1714
846.398315,1722
846.516296,1690
846.634216,1713
846.752197,1691
846.870178,1666
846.988098,1656
847.106079,1792
847.22406,1743
847.34198,1707
847.4599,1711
847.577881,1730
847.695801,1719
847.813782,1693
847.931641,1732
848.049561,1767
848.167603,1675
848.285461,1722
848.403381,1715
848.521362,1741
848.639221,1710
848.75708,1748
848.875,1697
848.99292,1738
849.110901,1733
849.22876,1708
849.34668,1766
849.464539,1731
849.582458,1775
849.700317,1763
849.818176,1747
849.936096,1743
850.053955,1694
850.171875,1738
850.289673,1696
850.407593,1763
850.525452,1777
850.643311,1775
850.761169,1752
850.878967,1668
850.996887,1735
851.114746,1712
851.232544,1704
851.350403,1666
851.468262,1666
851.58606,1678
851.703979,1685
851.821777,1726
851.939636,1641
852.057434,1684
852.175232,1725
852.293091,1715
852.410889,1797
852.528687,1838
852.646545,1827
852.764343,1899
852.88208,1817
852.999939,1834
853.117676,1784
853.235535,1786
853.353271,1789
853.471069,1739
853.588928,1734
853.706604,1715
853.824402,1692
853.9422,1727
854.059998,1639
854.177734,1694
854.295532,1749
854.413269,1742
854.531006,1810
854.648804,1782
854.766541,1719
854.884277,1714
855.002014,1762
855.119751,1754
855.237549,1722
855.355225,1707
855.473022,1755
855.590698,1748
855.708435,1776
855.826172,1754
855.943848,1752
856.061646,1744
856.179321,1736
856.296997,1760
856.414795,1807
856.53241,1813
856.650085,1782
856.767822,1794
856.885559,1865
857.003174,1851
857.120911,1844
857.238586,1888
857.356201,1812
857.473938,1813
857.591614,1816
857.709351,1809
857.826965,1794
857.944641,1806
858.062317,1844
858.179993,1861
858.297668,1805
858.415283,1843
858.532959,1816
858.650574,1821
858.768188,1861
858.885803,1776
859.003479,1773
859.121094,1817
859.23877,1749
859.356384,1775
859.473999,1722
859.591675,1762
859.709229,1762
859.826843,1706
859.944458,1730
860.062012,1699
860.179626,1701
860.297302,1747
860.414856,1689
860.532471,1679
860.650024,1691
860.767639,1709
860.885193,1684
861.002808,1721
861.120361,1663
861.237976,1749
861.35553,1739
861.473022,1689
861.590698,1707
861.708191,1707
861.825745,1669
861.943298,1711
862.060852,1676
862.178406,1618
862.295959,1659
862.413513,1574
862.531006,1599
862.64856,1557
862.766113,1607
862.883667,1572
863.00116,1587
863.118713,1579
863.236206,1620
863.353699,1586
863.471252,1573
863.588745,1621
863.706177,1659
863.82373,1634
863.941162,1624
864.058716,1669
864.176208,1687
864.29364,1635
864.411194,1662
864.528687,1592
864.646118,1629
864.763611,1630
864.881042,1621
864.998535,1625
865.116028,1587
865.233459,1602
865.350891,1575
865.468384,1636
865.585754,1630
865.703308,1585
865.820679,1666
865.938171,1628
866.055542,1603
866.173035,1570
866.290466,1583
866.407837,1588
866.52533,1595
866.6427,1591
866.760071,1594
866.877563,1609
866.994934,1598
867.112305,1586
867.229736,1597
867.347107,1663
867.464539,1668
867.58197,1673
867.699341,1631
867.81665,1678
867.934082,1667
868.051453,1682
868.168823,1641
868.286194,1685
868.403564,1649
868.520935,1635
868.638306,1682
868.755676,1631
868.872986,1641
868.990295,1629
869.107727,1671
869.225037,1639
869.342346,1726
869.459717,1690
869.577026,1693
869.694336,1665
869.811707,1776
869.929016,1727
870.046326,1759
870.163635,1697
870.280945,1782
870.398254,1761
870.515564,1789
870.632812,1781
870.750183,1808
870.867432,1785
870.984741,1782
871.102051,1785
871.219299,1792
871.336609,1814
871.453918,1850
871.571106,1861
871.688416,1897
871.805664,1901
871.922852,1870
872.040222,1898
872.157471,1819
872.274719,1860
872.391968,1854
872.509155,1879
872.626465,1817
872.743652,1844
872.860962,1837
872.978149,1815
873.095337,1816
873.212646,1817
873.329834,1817
873.44696,1793
873.564209,1766
873.681396,1794
873.798645,1791
873.915894,1804
874.03302,1776
874.150208,1839
874.267456,1810
874.384583,1835
874.501831,1848
874.618958,1877
874.736145,1881
874.853333,1896
874.970459,1902
875.087646,1885
875.204834,1866
875.32196,1843
875.439148,1827
875.556274,1824
875.673401,1808
875.790527,1809
875.907715,1798
876.024841,1787
876.141968,1824
876.259094,1780
876.376282,1771
876.493347,1752
876.610474,1770
876.7276,1714
876.844727,1748
876.961853,1792
877.078918,1732
877.195984,1731
877.313171,1706
877.430237,1683
877.547302,1688
877.664368,1714
877.781433,1737
877.898499,1708
878.015625,1715
878.13269,1698
878.249695,1707
878.366821,1705
878.483887,1686
878.600952,1693
878.717957,1670
878.834961,1669
878.952087,1709
879.069092,1635
879.186157,1686
879.303162,1612
879.420227,1614
879.537231,1618
879.654236,1601
879.77124,1604
879.888306,1650
880.005249,1574
880.122314,1587
880.239319,1568
880.356323,1542
880.473328,1605
880.590271,1577
880.707275,1555
880.824341,1559
880.941284,1605
881.058228,1587
881.175232,1597
881.292236,1546
881.40918,1581
881.526123,1571
881.643066,1541
881.760071,1570
881.877014,1572
881.993958,1569
882.11084,1565
882.227783,1582
882.344727,1570
882.46167,1575
882.578613,1579
882.695618,1577
882.812439,1570
882.929382,1574
883.046326,1588
883.163208,1634
883.280151,1596
883.397034,1572
883.513916,1633
883.630798,1610
883.747742,1622
883.864563,1600
883.981506,1655
884.098389,1641
884.21521,1609
884.332153,1677
884.448975,1750
884.565796,1743
884.682678,1730
884.7995,1801
884.916443,1865
885.033264,1946
885.150085,1935
885.266968,1993
885.383789,2032
885.500671,2089
885.617493,2100
885.734314,2138
885.851196,2138
885.967896,2146
886.084717,2113
886.201599,2130
886.318359,2088
886.435181,2094
886.552002,2100
886.668762,2012
886.785645,2060
886.902344,2048
887.019165,1991
887.135925,1972
887.252747,1914
887.369446,1936
887.486267,1870
887.603027,1859
887.719788,1844
887.836548,1809
887.953247,1732
888.070068,1746
888.186829,1691
888.303528,1667
888.420288,1637
888.536987,1604
888.653687,1538
888.770447,1571
888.887146,1577
889.003967,1518
889.120667,1602
889.237305,1530
889.354065,1469
889.470703,1496
889.587463,1507
889.704163,1459
889.820862,1476
889.937561,1532
890.054199,1490
890.170837,1460
890.287598,1513
890.404236,1458
890.520874,1477
890.637634,1496
890.754211,1457
890.87085,1487
890.987549,1487
891.104187,1501
891.220886,1475
891.337463,1535
891.454102,1529
891.57074,1518
891.687378,1507
891.804077,1540
891.920654,1530
892.037231,1511
892.15387,1539
892.270447,1468
892.387085,1515
892.503723,1491
892.6203,1488
892.736877,1526
892.853516,1496
892.970032,1481
893.08667,1517
893.203186,1524
893.319763,1471
893.43634,1499
893.552917,1491
893.669556,1508
893.786011,1486
893.902588,1452
894.019165,1508
894.135681,1491
894.252197,1475
894.368835,1509
894.485291,1509
894.601868,1517
894.718384,1499
894.8349,1468
894.951355,1481
895.067932,1490
895.184448,1486
895.300964,1455
895.417419,1497
895.533936,1522
895.650452,1468
895.766907,1500
895.883423,1443
895.999878,1478
896.116333,1476
896.232849,1493
896.349304,1482
896.465759,1482
896.582214,1466
896.698669,1467
896.815125,1503
896.931641,1525
897.048035,1497
897.164551,1496
897.280884,1529
897.397339,1469
897.513794,1454
897.630249,1498
897.746582,1533
897.863098,1522
897.979431,1474
898.095886,1487
898.212341,1496
898.328674,1500
898.445129,1527
898.561462,1503
898.677795,1551
898.794312,1504
898.910645,1527
899.026978,1554
899.143433,1539
899.259766,1502
899.37616,1493
899.492493,1513
899.608765,1563
899.725159,1545
899.841553,1505
899.957947,1517
900.07428,1564
900.190552,1507
900.306946,1528
900.423157,1513
900.53949,1530
900.655884,1532
900.772156,1534
900.888489,1571
901.004822,1526
901.121033,1485
901.237366,1540
901.353699,1589
901.46991,1634
901.586304,1591
901.702515,1544
901.818787,1587
901.93512,1656
902.051331,1643
902.167603,1677
902.283875,1708
902.400085,1749
902.516418,1744
902.632629,1770
902.74884,1817
902.865112,1816
902.981384,1827
903.097595,1841
903.213867,1819
903.330017,1814
903.446289,1832
903.5625,1727
903.67865,1704
903.794922,1720
903.911072,1701
904.027344,1767
904.143494,1723
904.259705,1651
904.375916,1638
904.492065,1612
904.608215,1639
904.724426,1589
904.840576,1567
904.956726,1562
905.072876,1537
905.189087,1558
905.305176,1551
905.421387,1546
905.537537,1515
905.653687,1528
905.769775,1501
905.885925,1484
906.002014,1527
906.118164,1456
906.234314,1491
906.350403,1514
906.466492,1489
906.582642,1511
906.69873,1458
906.814758,1506
906.930908,1496
907.046936,1508
907.163086,1502
907.279175,1475
907.395264,1472
907.511353,1423
907.62738,1507
907.743408,1408
907.859497,1438
907.975525,1506
908.091553,1470
908.207703,1460
908.32373,1481
908.439758,1461
908.555786,1498
908.671814,1493
908.787842,1519
908.90387,1480
909.019775,1473
909.135864,1416
909.251892,1462
909.367859,1472
909.483826,1470
909.599854,1523
909.715881,1482
909.831848,1531
909.947815,1491
910.063782,1449
910.179749,1476
910.295776,1517
910.411743,1483
910.527649,1536
910.643616,1527
910.759583,1519
910.875488,1499
910.991455,1487
911.107361,1438
911.223267,1516
911.339294,1469
911.4552,1482
911.571106,1527
911.687073,1470
911.802979,1456
911.918823,1441
912.034729,1474
912.150635,1459
912.266602,1478
912.382446,1481
912.498352,1438
912.614197,1467
912.730103,1473
912.846008,1486
