792.44574,2283
792.56488,2304
792.68396,2269
792.80304,2254
792.92218,2170
793.041199,2182
793.160339,2196
793.279419,2158
793.398499,2183
793.517578,2112
793.636658,2100
793.755737,2171
793.874817,2111
793.993896,2090
794.112976,2140
794.232056,2089
794.351074,2078
794.470215,2090
794.589233,2084
794.708313,2026
794.827393,2066
794.946411,2028
795.065552,2024
795.18457,2032
795.303589,1996
795.422668,2034
795.541687,2025
795.660767,2002
795.779846,1975
795.898865,1957
796.017883,1967
796.136963,1983
796.255981,1988
796.375061,1999
796.49408,1976
796.613037,2013
796.732117,1957
796.851135,1981
796.970154,2003
797.089233,2005
797.208191,1955
797.327271,1976
797.446228,1965
797.565186,1938
797.684265,1974
797.803223,1981
797.922241,1953
798.04126,1984
798.160278,1946
798.279297,1979
798.398315,1907
798.517273,1921
798.636292,1965
798.75531,1985
798.874268,1972
798.993286,1933
799.112244,1916
799.231323,1931
799.350281,1926
799.469238,1970
799.588257,1974
799.707153,1959
799.826111,1974
799.945129,1973
800.064087,1924
800.183044,1977
800.302063,1925
800.421021,1923
800.539978,1973
800.658936,1926
800.777893,1965
800.896912,1951
801.015747,1983
801.134705,1950
801.253723,1960
801.37262,1954
801.491638,2002
801.610535,1959
801.729492,1920
801.84845,1959
801.967407,1969
802.086243,2028
802.205261,1984
802.324158,2020
802.443115,2017
802.562073,1984
802.680969,2038
802.799927,2013
802.918762,2008
803.037659,2017
803.156677,2037
803.275574,2077
803.39447,2045
803.513428,2014
803.632263,2017
803.751221,2049
803.870117,2046
803.989014,2044
804.107971,2021
804.226746,2036
804.345642,2066
804.4646,2007
804.583496,2033
804.702393,2072
804.821228,2070
804.940125,2077
805.059021,2112
805.177917,2085
805.296814,2091
805.415649,2105
805.534546,2111
805.653442,2129
805.772278,2116
805.891113,2124
806.01001,2080
806.128906,2104
806.247742,2151
806.366577,2128
806.485413,2107
806.604309,2168
806.723145,2153
806.84198,2166
806.960876,2120
807.079712,2163
807.198486,2115
807.317383,2162
807.436218,2139
807.554993,2103
807.673889,2112
807.792725,2139
807.91156,2141
808.030396,2131
808.14917,2104
808.268005,2156
808.386841,2153
808.505676,2166
808.624451,2186
808.743286,2118
808.862122,2093
808.980896,2115
809.099731,2081
809.218506,2157
809.337341,2130
809.456116,2140
809.57489,2180
809.693726,2221
809.8125,2140
809.931274,2180
810.050049,2157
810.168884,2179
810.287659,2163
810.406372,2166
810.525269,2192
810.643982,2239
810.762756,2183
810.881531,2221
811.000305,2175
811.11908,2180
811.237854,2158
811.356567,2200
811.475403,2181
811.594116,2188
811.71283,2174
811.831604,2187
811.950378,2139
812.069153,2196
812.187927,2203
812.30658,2190
812.425415,2212
812.544128,2224
812.662781,2162
812.781616,2195
812.900269,2180
813.019043,2209
813.137756,2194
813.256531,2190
813.375244,2236
813.493896,2198
813.612671,2227
813.731384,2195
813.850037,2156
813.96875,2176
814.087524,2169
814.206238,2163
814.324951,2175
814.443604,2175
814.562256,2150
814.68103,2216
814.799683,2142
814.918335,2160
815.037109,2164
815.155762,2190
815.274475,2156
815.393188,2140
815.511841,2155
815.630554,2158
815.749146,2148
815.867859,2158
815.986572,2093
816.105164,2090
816.223877,2122
816.342529,2045
816.461182,2104
816.579895,2168
816.698486,2086
816.817139,2115
816.935791,2157
817.054504,2143
817.173096,2072
817.291748,2120
817.4104,2101
817.529053,2012
817.647644,2043
817.766235,1935
817.884949,1908
818.00354,1980
818.122192,1901
818.240845,1828
818.359436,1840
818.478088,1841
818.59668,1772
818.715271,1741
818.833923,1693
818.952515,1694
819.071106,1671
819.189758,1639
819.30835,1605
819.426941,1633
819.545532,1642
819.664124,1600
819.782715,1602
819.901306,1589
820.019897,1571
820.138489,1600
820.25708,1544
820.375671,1558
820.494202,1524
820.612732,1595
820.731384,1532
820.849915,1552
820.968506,1529
821.087097,1509
821.205627,1497
821.324158,1457
821.442749,1524
821.561279,1524
821.679871,1522
821.798401,1484
821.916931,1478
822.035461,1480
822.154053,1503
822.272583,1495
822.391174,1486
822.509583,1476
822.628174,1522
822.746704,1483
822.865234,1506
822.983765,1485
823.102295,1445
823.220825,1460
823.339294,1474
823.457825,1492
823.576355,1489
823.694824,1488
823.813354,1456
823.931885,1546
824.050354,1505
824.168884,1520
824.287354,1499
824.405823,1544
824.524353,1498
824.642822,1524
824.761353,1515
824.879822,1496
824.998291,1459
825.116699,1519
825.235291,1470
825.353699,1493
825.472168,1450
825.590637,1476
825.709106,1423
825.827576,1465
825.946045,1430
826.064453,1465
826.182983,1454
826.301392,1460
826.4198,1439
826.53833,1400
826.656738,1424
826.775208,1375
826.893677,1388
827.012024,1423
827.130493,1427
827.248962,1395
827.36731,1388
827.485779,1404
827.604248,1392
827.722595,1388
827.841064,1386
827.959412,1355
828.077942,1347
828.196289,1398
828.314636,1379
828.433105,1384
828.551514,1356
828.669861,1368
828.78833,1382
828.906677,1392
829.025085,1378
829.143433,1374
829.261841,1402
829.38031,1342
829.498657,1356
829.617004,1356
829.735413,1356
829.85376,1383
829.972107,1414
830.090515,1365
830.208862,1380
830.327209,1332
830.445557,1385
830.563904,1365
830.682312,1373
830.800659,1321
830.919006,1362
831.037354,1339
831.155701,1365
831.274048,1356
831.392395,1375
831.51062,1373
831.629028,1349
831.747314,1373
831.865662,1329
831.984009,1347
832.102356,1344
832.220642,1355
832.338928,1376
832.457275,1360
832.575623,1332
832.693909,1354
832.812134,1360
832.930481,1369
833.048828,1372
833.167114,1391
833.2854,1359
833.403687,1409
833.521973,1340
833.640259,1404
833.758545,1323
833.876831,1334
833.995056,1371
834.113281,1355
834.231628,1384
834.349915,1326
834.468201,1378
834.586426,1358
834.704651,1329
834.822998,1344
834.941162,1380
835.059448,1375
835.177673,1381
835.295959,1382
835.414246,1357
835.53241,1397
835.650635,1377
835.768921,1398
835.887146,1335
836.005371,1365
836.123596,1372
836.241821,1390
836.360046,1360
836.478271,1385
836.596497,1411
836.714722,1426
836.832886,1401
836.95105,1440
837.069336,1436
837.1875,1442
837.305725,1464
837.423889,1448
837.542053,1433
837.660339,1406
837.778503,1485
837.896667,1442
838.014832,1431
838.132996,1465
838.25116,1436
838.369385,1460
838.487488,1401
838.605713,1439
838.723877,1444
838.84198,1436
838.960205,1474
839.078308,1453
839.196472,1450
839.314636,1422
839.4328,1419
839.550964,1401
839.669067,1410
839.787231,1418
839.905396,1424
840.023499,1408
840.141602,1412
840.259766,1433
840.377869,1410
840.495972,1389
840.614136,1402
840.732239,1384
840.850342,1413
840.968445,1388
841.086548,1390
841.204651,1364
841.322754,1356
841.440918,1349
841.55896,1419
841.677002,1350
841.795166,1354
841.913208,1356
842.031311,1340
842.149353,1410
842.267456,1353
842.385498,1361
842.503601,1318
842.621643,1332
842.739746,1350
842.857788,1319
842.97583,1337
843.093933,1364
843.211975,1309
843.330017,1355
843.44812,1333
843.566101,1338
843.684204,1332
843.802246,1324
843.920227,1346
844.038269,1352
844.156311,1309
844.274292,1361
844.392395,1342
844.510376,1329
844.628357,1362
844.74646,1325
844.864441,1320
844.982422,1298
845.100403,1287
845.218384,1318
845.336426,1328
845.454468,1334
845.572449,1295
845.69043,1322
845.808411,1311
845.926453,1350
846.044373,1278
846.162354,1366
846.280396,1306
846.398315,1333
846.516296,1275
846.634216,1321
846.752197,1314
846.870178,1331
846.988098,1286
847.106079,1310
847.22406,1337
847.34198,1338
847.4599,1334
847.577881,1309
847.695801,1323
847.813782,1335
847.931641,1319
848.049561,1321
848.167603,1324
848.285461,1312
848.403381,1292
848.521362,1321
848.639221,1299
848.75708,1287
848.875,1288
848.99292,1323
849.110901,1311
849.22876,1320
849.34668,1322
849.464539,1325
849.582458,1314
849.700317,1299
849.818176,1311
849.936096,1312
850.053955,1306
850.171875,1328
850.289673,1312
850.407593,1293
850.525452,1311
850.643311,1334
850.761169,1301
850.878967,1308
850.996887,1285
851.114746,1325
851.232544,1312
851.350403,1307
851.468262,1321
851.58606,1326
851.703979,1295
851.821777,1336
851.939636,1318
852.057434,1345
852.175232,1305
852.293091,1356
852.410889,1312
852.528687,1328
852.646545,1308
852.764343,1414
852.88208,1322
852.999939,1323
853.117676,1323
853.235535,1352
853.353271,1327
853.471069,1357
853.588928,1304
853.706604,1350
853.824402,1297
853.9422,1307
854.059998,1303
854.177734,1353
854.295532,1280
854.413269,1362
854.531006,1356
854.648804,1320
854.766541,1354
854.884277,1326
855.002014,1362
855.119751,1300
855.237549,1372
855.355225,1340
855.473022,1363
855.590698,1338
855.708435,1324
855.826172,1337
855.943848,1339
856.061646,1371
856.179321,1358
856.296997,1334
856.414795,1343
856.53241,1365
856.650085,1343
856.767822,1379
856.885559,1348
857.003174,1403
857.120911,1336
857.238586,1391
857.356201,1360
857.473938,1353
857.591614,1328
857.709351,1349
857.826965,1364
857.944641,1323
858.062317,1368
858.179993,1340
858.297668,1323
858.415283,1351
858.532959,1380
858.650574,1368
858.768188,1330
858.885803,1329
859.003479,1352
859.121094,1331
859.23877,1336
859.356384,1336
859.473999,1332
859.591675,1334
859.709229,1362
859.826843,1347
859.944458,1302
860.062012,1325
860.179626,1361
860.297302,1346
860.414856,1348
860.532471,1347
860.650024,1313
860.767639,1322
860.885193,1325
861.002808,1285
861.120361,1380
861.237976,1323
861.35553,1350
861.473022,1339
861.590698,1290
861.708191,1378
861.825745,1314
861.943298,1314
862.060852,1314
862.178406,1314
862.295959,1345
862.413513,1347
862.531006,1373
862.64856,1325
862.766113,1333
862.883667,1324
863.00116,1297
863.118713,1353
863.236206,1358
863.353699,1327
863.471252,1313
863.588745,1346
863.706177,1339
863.82373,1326
863.941162,1307
864.058716,1302
864.176208,1332
864.29364,1301
864.411194,1317
864.528687,1327
864.646118,1358
864.763611,1354
864.881042,1329
864.998535,1314
865.116028,1378
865.233459,1317
865.350891,1364
865.468384,1336
865.585754,1348
865.703308,1319
865.820679,1340
865.938171,1332
866.055542,1354
866.173035,1353
866.290466,1332
866.407837,1340
866.52533,1374
866.6427,1307
866.760071,1351
866.877563,1333
866.994934,1351
867.112305,1340
867.229736,1332
867.347107,1309
867.464539,1330
867.58197,1346
867.699341,1349
867.81665,1348
867.934082,1358
868.051453,1332
868.168823,1325
868.286194,1360
868.403564,1340
868.520935,1363
868.638306,1299
868.755676,1315
868.872986,1322
868.990295,1329
869.107727,1354
869.225037,1347
869.342346,1323
869.459717,1349
869.577026,1347
869.694336,1326
869.811707,1315
869.929016,1356
870.046326,1364
870.163635,1344
870.280945,1359
870.398254,1322
870.515564,1351
870.632812,1337
870.750183,1333
870.867432,1330
870.984741,1373
871.102051,1384
871.219299,1339
871.336609,1349
871.453918,1376
871.571106,1348
871.688416,1346
871.805664,1344
871.922852,1326
872.040222,1337
872.157471,1331
872.274719,1376
872.391968,1375
872.509155,1342
872.626465,1316
872.743652,1341
872.860962,1334
872.978149,1308
873.095337,1305
873.212646,1311
873.329834,1341
873.44696,1305
873.564209,1364
873.681396,1344
873.798645,1317
873.915894,1331
874.03302,1348
874.150208,1336
874.267456,1327
874.384583,1367
874.501831,1307
874.618958,1297
874.736145,1323
874.853333,1366
874.970459,1292
875.087646,1315
875.204834,1317
875.32196,1381
875.439148,1336
875.556274,1317
875.673401,1376
875.790527,1307
875.907715,1336
876.024841,1294
876.141968,1343
876.259094,1350
876.376282,1347
876.493347,1349
876.610474,1377
876.7276,1362
876.844727,1351
876.961853,1339
877.078918,1387
877.195984,1319
877.313171,1335
877.430237,1379
877.547302,1333
877.664368,1323
877.781433,1357
877.898499,1317
878.015625,1299
878.13269,1342
878.249695,1372
878.366821,1334
878.483887,1290
878.600952,1318
878.717957,1331
878.834961,1359
878.952087,1330
879.069092,1293
879.186157,1357
879.303162,1341
879.420227,1287
879.537231,1329
879.654236,1317
879.77124,1323
879.888306,1326
880.005249,1316
880.122314,1319
880.239319,1307
880.356323,1374
880.473328,1304
880.590271,1339
880.707275,1364
880.824341,1323
880.941284,1307
881.058228,1357
881.175232,1322
881.292236,1315
881.40918,1273
881.526123,1320
881.643066,1341
881.760071,1327
881.877014,1365
881.993958,1312
882.11084,1297
882.227783,1344
882.344727,1361
882.46167,1331
882.578613,1328
882.695618,1353
882.812439,1324
882.929382,1343
883.046326,1338
883.163208,1346
883.280151,1329
883.397034,1343
883.513916,1315
883.630798,1292
883.747742,1325
883.864563,1326
883.981506,1369
884.098389,1279
884.21521,1398
884.332153,1340
884.448975,1355
884.565796,1297
884.682678,1354
884.7995,1345
884.916443,1421
885.033264,1349
885.150085,1407
885.266968,1347
885.383789,1365
885.500671,1402
885.617493,1371
885.734314,1382
885.851196,1347
885.967896,1377
886.084717,1364
886.201599,1362
886.318359,1377
886.435181,1394
886.552002,1421
886.668762,1351
886.785645,1358
886.902344,1372
887.019165,1356
887.135925,1335
887.252747,1361
887.369446,1377
887.486267,1350
887.603027,1363
887.719788,1361
887.836548,1377
887.953247,1383
888.070068,1391
888.186829,1347
888.303528,1356
888.420288,1335
888.536987,1353
888.653687,1342
888.770447,1362
888.887146,1337
889.003967,1379
889.120667,1354
889.237305,1340
889.354065,1344
889.470703,1347
889.587463,1337
889.704163,1372
889.820862,1331
889.937561,1345
890.054199,1331
890.170837,1363
890.287598,1300
890.404236,1367
890.520874,1350
890.637634,1332
890.754211,1377
890.87085,1360
890.987549,1334
891.104187,1378
891.220886,1357
891.337463,1372
891.454102,1359
891.57074,1355
891.687378,1352
891.804077,1393
891.920654,1357
892.037231,1386
892.15387,1379
892.270447,1368
892.387085,1400
892.503723,1346
892.6203,1386
892.736877,1402
892.853516,1352
892.970032,1375
893.08667,1374
893.203186,1337
893.319763,1366
893.43634,1385
893.552917,1369
893.669556,1361
893.786011,1370
893.902588,1382
894.019165,1353
894.135681,1385
894.252197,1379
894.368835,1374
894.485291,1384
894.601868,1374
894.718384,1368
894.8349,1386
894.951355,1420
895.067932,1352
895.184448,1365
895.300964,1376
895.417419,1332
895.533936,1363
895.650452,1367
895.766907,1387
895.883423,1360
895.999878,1341
896.116333,1342
896.232849,1397
896.349304,1377
896.465759,1406
896.582214,1395
896.698669,1403
896.815125,1375
896.931641,1377
897.048035,1422
897.164551,1346
897.280884,1404
897.397339,1366
897.513794,1387
897.630249,1383
897.746582,1434
897.863098,1372
897.979431,1379
898.095886,1342
898.212341,1381
898.328674,1374
898.445129,1380
898.561462,1418
898.677795,1390
898.794312,1379
898.910645,1411
899.026978,1418
899.143433,1424
899.259766,1365
899.37616,1384
899.492493,1396
899.608765,1369
899.725159,1411
899.841553,1396
899.957947,1392
900.07428,1379
900.190552,1425
900.306946,1377
900.423157,1418
900.53949,1418
900.655884,1402
900.772156,1403
900.888489,1423
901.004822,1404
901.121033,1412
901.237366,1389
901.353699,1342
901.46991,1409
901.586304,1423
901.702515,1323
901.818787,1400
901.93512,1425
902.051331,1381
902.167603,1452
902.283875,1366
902.400085,1389
902.516418,1391
902.632629,1421
902.74884,1417
902.865112,1421
902.981384,1442
903.097595,1412
903.213867,1423
903.330017,1411
903.446289,1398
903.5625,1440
903.67865,1406
903.794922,1415
903.911072,1368
904.027344,1408
904.143494,1419
904.259705,1379
904.375916,1346
904.492065,1402
904.608215,1418
904.724426,1420
904.840576,1393
904.956726,1376
905.072876,1424
905.189087,1412
905.305176,1407
905.421387,1420
905.537537,1388
905.653687,1404
905.769775,1401
905.885925,1394
906.002014,1443
906.118164,1410
906.234314,1375
906.350403,1399
906.466492,1472
906.582642,3856
906.69873,1353
906.814758,1403
906.930908,1350
907.046936,1412
907.163086,1399
907.279175,1400
907.395264,1430
907.511353,1436
907.62738,1373
907.743408,1397
907.859497,1408
907.975525,1421
908.091553,1406
908.207703,1408
908.32373,1411
908.439758,1423
908.555786,1423
908.671814,1411
908.787842,1440
908.90387,1416
909.019775,1405
909.135864,1440
909.251892,1421
909.367859,1442
909.483826,1434
909.599854,1358
909.715881,1406
909.831848,1430
909.947815,1419
910.063782,1378
910.179749,1402
910.295776,1435
910.411743,1446
910.527649,1404
910.643616,1450
910.759583,1388
910.875488,1417
910.991455,1410
911.107361,1405
911.223267,1423
911.339294,1414
911.4552,1449
911.571106,1398
911.687073,1394
911.802979,1431
911.918823,1378
912.034729,1415
912.150635,1447
912.266602,1404
912.382446,1404
912.498352,1419
912.614197,1385
912.730103,1415
912.846008,1400
792.44574,2311
792.56488,2350
792.68396,2286
792.80304,2280
792.92218,2225
793.041199,2220
793.160339,2214
793.279419,2238
793.398499,2216
793.517578,2142
793.636658,2190
793.755737,2152
793.874817,2134
793.993896,2197
794.112976,2139
794.232056,2101
794.351074,2129
794.470215,2122
794.589233,2103
794.708313,2117
794.827393,2061
794.946411,2072
795.065552,2080
795.18457,2048
795.303589,2090
795.422668,2056
795.541687,2040
795.660767,2040
795.779846,2055
795.898865,2037
796.017883,2057
796.136963,2046
796.255981,2006
796.375061,2007
796.49408,1977
796.613037,2050
796.732117,2021
796.851135,1999
796.970154,2054
797.089233,1997
797.208191,1997
797.327271,1913
797.446228,1987
797.565186,2023
797.684265,2002
797.803223,2047
797.922241,2000
798.04126,1974
798.160278,2007
798.279297,1992
798.398315,1956
798.517273,2012
798.636292,1977
798.75531,1967
798.874268,1969
798.993286,1980
799.112244,1974
799.231323,2001
799.350281,1973
799.469238,1987
799.588257,2014
799.707153,1934
799.826111,1991
799.945129,1940
800.064087,1996
800.183044,2034
800.302063,1982
800.421021,1997
800.539978,2009
800.658936,2007
800.777893,2060
800.896912,1945
801.015747,1982
801.134705,2014
801.253723,2000
801.37262,1968
801.491638,1958
801.610535,1996
801.729492,2056
801.84845,1978
801.967407,1982
802.086243,2013
802.205261,2037
802.324158,2051
802.443115,2049
802.562073,1990
802.680969,2026
802.799927,2066
802.918762,2055
803.037659,2040
803.156677,2039
803.275574,2018
803.39447,2115
803.513428,2037
803.632263,2052
803.751221,2091
803.870117,2070
803.989014,2030
804.107971,2040
804.226746,2118
804.345642,2057
804.4646,2097
804.583496,2109
804.702393,2091
804.821228,2100
804.940125,2125
805.059021,2072
805.177917,2150
805.296814,2139
805.415649,2132
805.534546,2084
805.653442,2111
805.772278,2166
805.891113,2139
806.01001,2175
806.128906,2197
806.247742,2103
806.366577,2152
806.485413,2138
806.604309,2102
806.723145,2136
806.84198,2203
806.960876,2143
807.079712,2176
807.198486,2149
807.317383,2144
807.436218,2177
807.554993,2166
807.673889,2168
807.792725,2204
807.91156,2157
808.030396,2165
808.14917,2129
808.268005,2181
808.386841,2154
808.505676,2180
808.624451,2200
808.743286,2190
808.862122,2170
808.980896,2150
809.099731,2132
809.218506,2195
809.337341,2209
809.456116,2201
809.57489,2191
809.693726,2272
809.8125,2251
809.931274,2171
810.050049,2180
810.168884,2264
810.287659,2170
810.406372,2186
810.525269,2241
810.643982,2173
810.762756,2234
810.881531,2192
811.000305,2183
811.11908,2226
811.237854,2194
811.356567,2200
811.475403,2204
811.594116,2176
811.71283,2226
811.831604,2261
811.950378,2237
812.069153,2263
812.187927,2231
812.30658,2269
812.425415,2279
812.544128,2227
812.662781,2302
812.781616,2171
812.900269,2211
813.019043,2227
813.137756,2232
813.256531,2212
813.375244,2183
813.493896,2196
813.612671,2247
813.731384,2232
813.850037,2261
813.96875,2169
814.087524,2252
814.206238,2243
814.324951,2214
814.443604,2226
814.562256,2154
814.68103,2237
814.799683,2180
814.918335,2244
815.037109,2211
815.155762,2187
815.274475,2205
815.393188,2181
815.511841,2147
815.630554,2161
815.749146,2168
815.867859,2097
815.986572,2145
816.105164,2129
816.223877,2101
816.342529,2119
816.461182,2167
816.579895,2095
816.698486,2129
816.817139,2151
816.935791,2216
817.054504,2161
817.173096,2209
817.291748,2128
817.4104,2158
817.529053,2100
817.647644,1991
817.766235,2014
817.884949,2009
818.00354,1956
818.122192,1913
818.240845,1871
818.359436,1809
818.478088,1838
818.59668,1816
818.715271,1753
818.833923,1761
818.952515,1689
819.071106,1722
819.189758,1706
819.30835,1637
819.426941,1668
819.545532,1635
819.664124,1588
819.782715,1657
819.901306,1616
820.019897,1615
820.138489,1577
820.25708,1622
820.375671,1572
820.494202,1610
820.612732,1547
820.731384,1518
820.849915,1551
820.968506,1557
821.087097,1530
821.205627,1558
821.324158,1582
821.442749,1556
821.561279,1522
821.679871,1504
821.798401,1585
821.916931,1526
822.035461,1520
822.154053,1528
822.272583,1514
822.391174,1522
822.509583,1487
822.628174,1521
822.746704,1485
822.865234,1492
822.983765,1472
823.102295,1503
823.220825,1511
823.339294,1488
823.457825,1519
823.576355,1523
823.694824,1490
823.813354,1527
823.931885,1515
824.050354,1497
824.168884,1530
824.287354,1552
824.405823,1516
824.524353,1526
824.642822,1562
824.761353,1552
824.879822,1532
824.998291,1544
825.116699,1544
825.235291,1524
825.353699,1526
825.472168,1474
825.590637,1491
825.709106,1449
825.827576,1450
825.946045,1495
826.064453,1485
826.182983,1459
826.301392,1446
826.4198,1439
826.53833,1436
826.656738,1439
826.775208,1444
826.893677,1434
827.012024,1434
827.130493,1425
827.248962,1434
827.36731,1457
827.485779,1402
827.604248,1416
827.722595,1365
827.841064,1446
827.959412,1371
828.077942,1442
828.196289,1422
828.314636,1402
828.433105,1402
828.551514,1401
828.669861,1420
828.78833,1389
828.906677,1399
829.025085,1384
829.143433,1423
829.261841,1389
829.38031,1341
829.498657,1371
829.617004,1425
829.735413,1383
829.85376,1397
829.972107,1384
830.090515,1421
830.208862,1415
830.327209,1430
830.445557,1348
830.563904,1403
830.682312,1373
830.800659,1375
830.919006,1386
831.037354,1367
831.155701,1433
831.274048,1403
831.392395,1392
831.51062,1409
831.629028,1368
831.747314,1378
831.865662,1353
831.984009,1372
832.102356,1323
832.220642,1372
832.338928,1419
832.457275,1400
832.575623,1356
832.693909,1406
832.812134,1350
832.930481,1401
833.048828,1344
833.167114,1368
833.2854,1370
833.403687,1383
833.521973,1375
833.640259,1333
833.758545,1361
833.876831,1388
833.995056,1385
834.113281,1374
834.231628,1360
834.349915,1390
834.468201,1393
834.586426,1362
834.704651,1370
834.822998,1390
834.941162,1442
835.059448,1373
835.177673,1377
835.295959,1399
835.414246,1354
835.53241,1414
835.650635,1366
835.768921,1351
835.887146,1394
836.005371,1368
836.123596,1380
836.241821,1423
836.360046,1418
836.478271,1395
836.596497,1427
836.714722,1421
836.832886,1494
836.95105,1461
837.069336,1458
837.1875,1457
837.305725,1476
837.423889,1421
837.542053,1465
837.660339,1484
837.778503,1462
837.896667,1461
838.014832,1446
838.132996,1443
838.25116,1461
838.369385,1494
838.487488,1441
838.605713,1408
838.723877,1453
838.84198,1428
838.960205,1438
839.078308,1465
839.196472,1403
839.314636,1424
839.4328,1464
839.550964,1432
839.669067,1469
839.787231,1451
839.905396,1462
840.023499,1445
840.141602,1466
840.259766,1380
840.377869,1417
840.495972,1411
840.614136,1409
840.732239,1388
840.850342,1399
840.968445,1420
841.086548,1374
841.204651,1434
841.322754,1424
841.440918,1412
841.55896,1396
841.677002,1424
841.795166,1377
841.913208,1398
842.031311,1364
842.149353,1374
842.267456,1353
842.385498,1397
842.503601,1342
842.621643,1357
842.739746,1344
842.857788,1371
842.97583,1368
843.093933,1361
843.211975,1351
843.330017,1339
843.44812,1378
843.566101,1334
843.684204,1341
843.802246,1346
843.920227,1351
844.038269,1337
844.156311,1307
844.274292,1368
844.392395,1323
844.510376,1358
844.628357,1337
844.74646,1338
844.864441,1355
844.982422,1305
845.100403,1342
845.218384,1333
845.336426,1322
845.454468,1367
845.572449,1308
845.69043,1338
845.808411,1316
845.926453,1351
846.044373,1322
846.162354,1335
846.280396,1319
846.398315,1352
846.516296,1327
846.634216,1333
846.752197,1290
846.870178,1352
846.988098,1342
847.106079,1337
847.22406,1335
847.34198,1353
847.4599,1361
847.577881,1334
847.695801,1331
847.813782,1338
847.931641,1317
848.049561,1356
848.167603,1341
848.285461,1342
848.403381,1317
848.521362,1335
848.639221,1345
848.75708,1348
848.875,1287
848.99292,1323
849.110901,1360
849.22876,1346
849.34668,1319
849.464539,1346
849.582458,1320
849.700317,1323
849.818176,1331
849.936096,1356
850.053955,1290
850.171875,1332
850.289673,1319
850.407593,1372
850.525452,1323
850.643311,1284
850.761169,1381
850.878967,1319
850.996887,1390
851.114746,1311
851.232544,1351
851.350403,1370
851.468262,1322
851.58606,1332
851.703979,1321
851.821777,1353
851.939636,1318
852.057434,1344
852.175232,1357
852.293091,1300
852.410889,1338
852.528687,1352
852.646545,1329
852.764343,1353
852.88208,1302
852.999939,1319
853.117676,1357
853.235535,1349
853.353271,1353
853.471069,1362
853.588928,1325
853.706604,1355
853.824402,1309
853.9422,1355
854.059998,1356
854.177734,1390
854.295532,1343
854.413269,1321
854.531006,1340
854.648804,1340
854.766541,1384
854.884277,1336
855.002014,1392
855.119751,1330
855.237549,1338
855.355225,1352
855.473022,1376
855.590698,1353
855.708435,1369
855.826172,1328
855.943848,1380
856.061646,1377
856.179321,1393
856.296997,1333
856.414795,1389
856.53241,1369
856.650085,1378
856.767822,1352
856.885559,1366
857.003174,1387
857.120911,1356
857.238586,1363
857.356201,1353
857.473938,1343
857.591614,1356
857.709351,1351
857.826965,1356
857.944641,1373
858.062317,1373
858.179993,1387
858.297668,1363
858.415283,1367
858.532959,1376
858.650574,1360
858.768188,1362
858.885803,1395
859.003479,1308
859.121094,1384
859.23877,1325
859.356384,1394
859.473999,1342
859.591675,1384
859.709229,1399
859.826843,1313
859.944458,1328
860.062012,1359
860.179626,1368
860.297302,1329
860.414856,1341
860.532471,1340
860.650024,1342
860.767639,1321
860.885193,1322
861.002808,1338
861.120361,1305
861.237976,1347
861.35553,1342
861.473022,1370
861.590698,1308
861.708191,1362
861.825745,1389
861.943298,1345
862.060852,1317
862.178406,1338
862.295959,1353
862.413513,1342
862.531006,1321
862.64856,1371
862.766113,1332
862.883667,1345
863.00116,1315
863.118713,1348
863.236206,1358
863.353699,1328
863.471252,1379
863.588745,1316
863.706177,1333
863.82373,1360
863.941162,1300
864.058716,1361
864.176208,1325
864.29364,1356
864.411194,1348
864.528687,1368
864.646118,1360
864.763611,1382
864.881042,1387
864.998535,1356
865.116028,1361
865.233459,1362
865.350891,1357
865.468384,1359
865.585754,1350
865.703308,1357
865.820679,1386
865.938171,1383
866.055542,1344
866.173035,1346
866.290466,1369
866.407837,1328
866.52533,1340
866.6427,1383
866.760071,1346
866.877563,1343
866.994934,1400
867.112305,1349
867.229736,1344
867.347107,1350
867.464539,1365
867.58197,1375
867.699341,1350
867.81665,1383
867.934082,1368
868.051453,1358
868.168823,1347
868.286194,1367
868.403564,1344
868.520935,1396
868.638306,1395
868.755676,1341
868.872986,1359
868.990295,1373
869.107727,1336
869.225037,1359
869.342346,1365
869.459717,1366
869.577026,1359
869.694336,1361
869.811707,1397
869.929016,1339
870.046326,1372
870.163635,1370
870.280945,1349
870.398254,1333
870.515564,1385
870.632812,1311
870.750183,1311
870.867432,1316
870.984741,1374
871.102051,1343
871.219299,1370
871.336609,1349
871.453918,1409
871.571106,1328
871.688416,1384
871.805664,1358
871.922852,1378
872.040222,1329
872.157471,1393
872.274719,1350
872.391968,1350
872.509155,1358
872.626465,1339
872.743652,1329
872.860962,1367
872.978149,1331
873.095337,1324
873.212646,1329
873.329834,1354
873.44696,1327
873.564209,1327
873.681396,1332
873.798645,1355
873.915894,1311
874.03302,1399
874.150208,1366
874.267456,1352
874.384583,1393
874.501831,1361
874.618958,1351
874.736145,1377
874.853333,1311
874.970459,1344
875.087646,1340
875.204834,1388
875.32196,1302
875.439148,1366
875.556274,1328
875.673401,1418
875.790527,1313
875.907715,1303
876.024841,1404
876.141968,1366
876.259094,1375
876.376282,1357
876.493347,1354
876.610474,1357
876.7276,1368
876.844727,1367
876.961853,1327
877.078918,1352
877.195984,1368
877.313171,1386
877.430237,1367
877.547302,1379
877.664368,1348
877.781433,1352
877.898499,1328
878.015625,1369
878.13269,1379
878.249695,1351
878.366821,1410
878.483887,1357
878.600952,1368
878.717957,1350
878.834961,1356
878.952087,1342
879.069092,1389
879.186157,1340
879.303162,1376
879.420227,1334
879.537231,1338
879.654236,1375
879.77124,1363
879.888306,1376
880.005249,1314
880.122314,1382
880.239319,1348
880.356323,1367
880.473328,1352
880.590271,1324
880.707275,1345
880.824341,1380
880.941284,1379
881.058228,1393
881.175232,1406
881.292236,1342
881.40918,1341
881.526123,1376
881.643066,1327
881.760071,1357
881.877014,1362
881.993958,1393
882.11084,1341
882.227783,1373
882.344727,1345
882.46167,1353
882.578613,1359
882.695618,1381
882.812439,1342
882.929382,1362
883.046326,1385
883.163208,1353
883.280151,1387
883.397034,1395
883.513916,1370
883.630798,1350
883.747742,1372
883.864563,1379
883.981506,1319
884.098389,1378
884.21521,1343
884.332153,1387
884.448975,1343
884.565796,1379
884.682678,1376
884.7995,1383
884.916443,1385
885.033264,1380
885.150085,1396
885.266968,1384
885.383789,1413
885.500671,1416
885.617493,1375
885.734314,1437
885.851196,1353
885.967896,1412
886.084717,1395
886.201599,1404
886.318359,1403
886.435181,1411
886.552002,1415
886.668762,1387
886.785645,1374
886.902344,1396
887.019165,1392
887.135925,1368
887.252747,1416
887.369446,1393
887.486267,1384
887.603027,1378
887.719788,1397
887.836548,1414
887.953247,1375
888.070068,1388
888.186829,1415
888.303528,1396
888.420288,1384
888.536987,1359
888.653687,1367
888.770447,1352
888.887146,1399
889.003967,1351
889.120667,1391
889.237305,1373
889.354065,1386
889.470703,1380
889.587463,1349
889.704163,1412
889.820862,1356
889.937561,1377
890.054199,1354
890.170837,1386
890.287598,1384
890.404236,1370
890.520874,1384
890.637634,1396
890.754211,1367
890.87085,1390
890.987549,1440
891.104187,1372
891.220886,1402
891.337463,1408
891.454102,1369
891.57074,1405
891.687378,1393
891.804077,1408
891.920654,1386
892.037231,1387
892.15387,1389
892.270447,1415
892.387085,1396
892.503723,1392
892.6203,1367
892.736877,1383
892.853516,1414
892.970032,1419
893.08667,1403
893.203186,1408
893.319763,1354
893.43634,1390
893.552917,1391
893.669556,1387
893.786011,1401
893.902588,1389
894.019165,1387
894.135681,1410
894.252197,1405
894.368835,1402
894.485291,1422
894.601868,1396
894.718384,1415
894.8349,1403
894.951355,1408
895.067932,1429
895.184448,1386
895.300964,1398
895.417419,1441
895.533936,1448
895.650452,1400
895.766907,1401
895.883423,1425
895.999878,1399
896.116333,1382
896.232849,1399
896.349304,1401
896.465759,1394
896.582214,1452
896.698669,1414
896.815125,1448
896.931641,1375
897.048035,1403
897.164551,1406
897.280884,1425
897.397339,1391
897.513794,1411
897.630249,1449
897.746582,1401
897.863098,1433
897.979431,1398
898.095886,1440
898.212341,1442
898.328674,1433
898.445129,1407
898.561462,1423
898.677795,1419
898.794312,1432
898.910645,1372
899.026978,1378
899.143433,1395
899.259766,1429
899.37616,1431
899.492493,1394
899.608765,1412
899.725159,1452
899.841553,1388
899.957947,1420
900.07428,1434
900.190552,1444
900.306946,1470
900.423157,1450
900.53949,1439
900.655884,1438
900.772156,1436
900.888489,1457
901.004822,1423
901.121033,1420
901.237366,1446
901.353699,1418
901.46991,1432
901.586304,1433
901.702515,1435
901.818787,1450
901.93512,1398
902.051331,1457
902.167603,1420
902.283875,1450
902.400085,1438
902.516418,1386
902.632629,1463
902.74884,1432
902.865112,1444
902.981384,1419
903.097595,1437
903.213867,1446
903.330017,1465
903.446289,1438
903.5625,1459
903.67865,1468
903.794922,1435
903.911072,1459
904.027344,1436
904.143494,1488
904.259705,1426
904.375916,1479
904.492065,1423
904.608215,1413
904.724426,1432
904.840576,1443
904.956726,1424
905.072876,1450
905.189087,1445
905.305176,1437
905.421387,1429
905.537537,1424
905.653687,1435
905.769775,1464
905.885925,1440
906.002014,1443
906.118164,1439
906.234314,1434
906.350403,1470
906.466492,1418
906.582642,1470
906.69873,1456
906.814758,1415
906.930908,1414
907.046936,1446
907.163086,1405
907.279175,1497
907.395264,1425
907.511353,1438
907.62738,1436
907.743408,1422
907.859497,1448
907.975525,1449
908.091553,1467
908.207703,1423
908.32373,1481
908.439758,1418
908.555786,1475
908.671814,1477
908.787842,1359
908.90387,1512
909.019775,1447
909.135864,1486
909.251892,1455
909.367859,1422
909.483826,1390
909.599854,1448
909.715881,1421
909.831848,1458
909.947815,1438
910.063782,1460
910.179749,1442
910.295776,1413
910.411743,1456
910.527649,1444
910.643616,1436
910.759583,1426
910.875488,1440
910.991455,1441
911.107361,1436
911.223267,1424
911.339294,1427
911.4552,1446
911.571106,1447
911.687073,1471
911.802979,1448
911.918823,1479
912.034729,1407
912.150635,1430
912.266602,1448
912.382446,1455
912.498352,1497
912.614197,1422
912.730103,1401
912.846008,1455
792.44574,2333
792.56488,2335
792.68396,2407
792.80304,2249
792.92218,2237
793.041199,2241
793.160339,2183
793.279419,2202
793.398499,2205
793.517578,2180
793.636658,2228
793.755737,2195
793.874817,2171
793.993896,2185
794.112976,2122
794.232056,2166
794.351074,2131
794.470215,2130
794.589233,2130
794.708313,2115
794.827393,2111
794.946411,2067
795.065552,2111
795.18457,2145
795.303589,2071
795.422668,2020
795.541687,2030
795.660767,2067
795.779846,2050
795.898865,2022
796.017883,2014
796.136963,2016
796.255981,2030
796.375061,2036
796.49408,2068
796.613037,2019
796.732117,1991
796.851135,2037
796.970154,2065
797.089233,2009
797.208191,2012
797.327271,2018
797.446228,2005
797.565186,2023
797.684265,2035
797.803223,2004
797.922241,2017
798.04126,2034
798.160278,1950
798.279297,2010
798.398315,1981
798.517273,1997
798.636292,1980
798.75531,2057
798.874268,2019
798.993286,1956
799.112244,1974
799.231323,1981
799.350281,1958
799.469238,2075
799.588257,1990
799.707153,2010
799.826111,1989
799.945129,1999
800.064087,2014
800.183044,1972
800.302063,2038
800.421021,1953
800.539978,1987
800.658936,2005
800.777893,1985
800.896912,2003
801.015747,2003
801.134705,2013
801.253723,1975
801.37262,2010
801.491638,2033
801.610535,2009
801.729492,2063
801.84845,2026
801.967407,1970
802.086243,2080
802.205261,2034
802.324158,2026
802.443115,2048
802.562073,2035
802.680969,2070
802.799927,2073
802.918762,2045
803.037659,2055
803.156677,2069
803.275574,2095
803.39447,2077
803.513428,2010
803.632263,2071
803.751221,2042
803.870117,2096
803.989014,2050
804.107971,2078
804.226746,2101
804.345642,2102
804.4646,2120
804.583496,2089
804.702393,2095
804.821228,2096
804.940125,2060
805.059021,2096
805.177917,2156
805.296814,2152
805.415649,2126
805.534546,2142
805.653442,2158
805.772278,2105
805.891113,2112
806.01001,2143
806.128906,2208
806.247742,2157
806.366577,2171
806.485413,2166
806.604309,2161
806.723145,2200
806.84198,2169
806.960876,2196
807.079712,2162
807.198486,2185
807.317383,2105
807.436218,2143
807.554993,2164
807.673889,2131
807.792725,2186
807.91156,2228
808.030396,2189
808.14917,2190
808.268005,2192
808.386841,2163
808.505676,2212
808.624451,2210
808.743286,2262
808.862122,2210
808.980896,2163
809.099731,2225
809.218506,2231
809.337341,2229
809.456116,2194
809.57489,2203
809.693726,2252
809.8125,2197
809.931274,2236
810.050049,2230
810.168884,2210
810.287659,2238
810.406372,2224
810.525269,2265
810.643982,2238
810.762756,2198
810.881531,2266
811.000305,2224
811.11908,2218
811.237854,2204
811.356567,2232
811.475403,2255
811.594116,2212
811.71283,2197
811.831604,2185
811.950378,2187
812.069153,2225
812.187927,2219
812.30658,2219
812.425415,2281
812.544128,2235
812.662781,2224
812.781616,2235
812.900269,2209
813.019043,2260
813.137756,2235
813.256531,2241
813.375244,2257
813.493896,2209
813.612671,2237
813.731384,2281
813.850037,2232
813.96875,2225
814.087524,2261
814.206238,2223
814.324951,2205
814.443604,2197
814.562256,2200
814.68103,2248
814.799683,2225
814.918335,2267
815.037109,2161
815.155762,2185
815.274475,2204
815.393188,2173
815.511841,2151
815.630554,2171
815.749146,2194
815.867859,2135
815.986572,2115
816.105164,2130
816.223877,2180
816.342529,2087
816.461182,2112
816.579895,2175
816.698486,2109
816.817139,2162
816.935791,2144
817.054504,2210
817.173096,2195
817.291748,2165
817.4104,2170
817.529053,2095
817.647644,2027
817.766235,1968
817.884949,2034
818.00354,1957
818.122192,1884
818.240845,1847
818.359436,1848
818.478088,1859
818.59668,1846
818.715271,1754
818.833923,1753
818.952515,1692
819.071106,1731
819.189758,1691
819.30835,1662
819.426941,1655
819.545532,1587
819.664124,1646
819.782715,1603
819.901306,1638
820.019897,1616
820.138489,1594
820.25708,1615
820.375671,1595
820.494202,1638
820.612732,1571
820.731384,1591
820.849915,1530
820.968506,1571
821.087097,1580
821.205627,1540
821.324158,1541
821.442749,1506
821.561279,1560
821.679871,1568
821.798401,1535
821.916931,1500
822.035461,1504
822.154053,1536
822.272583,1520
822.391174,1546
822.509583,1505
822.628174,1502
822.746704,1489
822.865234,1481
822.983765,1490
823.102295,1506
823.220825,1523
823.339294,1468
823.457825,1514
823.576355,1526
823.694824,1510
823.813354,1495
823.931885,1494
824.050354,1578
824.168884,1507
824.287354,1536
824.405823,1554
824.524353,1548
824.642822,1527
824.761353,1515
824.879822,1526
824.998291,1534
825.116699,1538
825.235291,1511
825.353699,1537
825.472168,1479
825.590637,1505
825.709106,1512
825.827576,1478
825.946045,1482
826.064453,1433
826.182983,1476
826.301392,1435
826.4198,1450
826.53833,1467
826.656738,1427
826.775208,1447
826.893677,1460
827.012024,1454
827.130493,1433
827.248962,1449
827.36731,1425
827.485779,1440
827.604248,1442
827.722595,1423
827.841064,1434
827.959412,1396
828.077942,1422
828.196289,1395
828.314636,1422
828.433105,1441
828.551514,1431
828.669861,1393
828.78833,1427
828.906677,1393
829.025085,1469
829.143433,1427
829.261841,1417
829.38031,1377
829.498657,1401
829.617004,1400
829.735413,1411
829.85376,1376
829.972107,1380
830.090515,1371
830.208862,1423
830.327209,1421
830.445557,1399
830.563904,1398
830.682312,1412
830.800659,1408
830.919006,1369
831.037354,1431
831.155701,1372
831.274048,1391
831.392395,1387
831.51062,1381
831.629028,1327
831.747314,1371
831.865662,1393
831.984009,1411
832.102356,1389
832.220642,1387
832.338928,1373
832.457275,1374
832.575623,1384
832.693909,1378
832.812134,1376
832.930481,1398
833.048828,1371
833.167114,1407
833.2854,1395
833.403687,1391
833.521973,1359
833.640259,1402
833.758545,1386
833.876831,1390
833.995056,1424
834.113281,1384
834.231628,1409
834.349915,1407
834.468201,1407
834.586426,1355
834.704651,1378
834.822998,1357
834.941162,1376
835.059448,1377
835.177673,1391
835.295959,1428
835.414246,1417
835.53241,1404
835.650635,1399
835.768921,1410
835.887146,1392
836.005371,1425
836.123596,1396
836.241821,1449
836.360046,1453
836.478271,1423
836.596497,1459
836.714722,1479
836.832886,1445
836.95105,1410
837.069336,1424
837.1875,1414
837.305725,1459
837.423889,1468
837.542053,1445
837.660339,1473
837.778503,1469
837.896667,1487
838.014832,1437
838.132996,1453
838.25116,1466
838.369385,1489
838.487488,1452
838.605713,1485
838.723877,1432
838.84198,1488
838.960205,1442
839.078308,1461
839.196472,1477
839.314636,1458
839.4328,1418
839.550964,1447
839.669067,1452
839.787231,1431
839.905396,1494
840.023499,1422
840.141602,1432
840.259766,1406
840.377869,1464
840.495972,1423
840.614136,1416
840.732239,1461
840.850342,1400
840.968445,1403
841.086548,1416
841.204651,1406
841.322754,1382
841.440918,1390
841.55896,1385
841.677002,1407
841.795166,1377
841.913208,1387
842.031311,1386
842.149353,1384
842.267456,1361
842.385498,1445
842.503601,1384
842.621643,1372
842.739746,1357
842.857788,1352
842.97583,1332
843.093933,1379
843.211975,1336
843.330017,1343
843.44812,1342
843.566101,1397
843.684204,1342
843.802246,1375
843.920227,1383
844.038269,1349
844.156311,1404
844.274292,1364
844.392395,1320
844.510376,1298
844.628357,1376
844.74646,1323
844.864441,1354
844.982422,1326
845.100403,1313
845.218384,1396
845.336426,1382
845.454468,1316
845.572449,1363
845.69043,1370
845.808411,1357
845.926453,1334
846.044373,1338
846.162354,1358
846.280396,1331
846.398315,1342
846.516296,1351
846.634216,1357
846.752197,1331
846.870178,1354
846.988098,1356
847.106079,1338
847.22406,1353
847.34198,1349
847.4599,1329
847.577881,1431
847.695801,1350
847.813782,1340
847.931641,1325
848.049561,1340
848.167603,1309
848.285461,1381
848.403381,1332
848.521362,1345
848.639221,1311
848.75708,1338
848.875,1356
848.99292,1314
849.110901,1353
849.22876,1325
849.34668,1333
849.464539,1338
849.582458,1363
849.700317,1328
849.818176,1313
849.936096,1346
850.053955,1322
850.171875,1368
850.289673,1353
850.407593,1349
850.525452,1346
850.643311,1340
850.761169,1326
850.878967,1345
850.996887,1347
851.114746,1331
851.232544,1345
851.350403,1305
851.468262,1328
851.58606,1343
851.703979,1362
851.821777,1346
851.939636,1315
852.057434,1341
852.175232,1355
852.293091,1378
852.410889,1306
852.528687,1317
852.646545,1370
852.764343,1325
852.88208,1376
852.999939,1363
853.117676,1389
853.235535,1313
853.353271,1372
853.471069,1341
853.588928,1357
853.706604,1386
853.824402,1360
853.9422,1341
854.059998,1333
854.177734,1348
854.295532,1295
854.413269,1346
854.531006,1383
854.648804,1297
854.766541,1394
854.884277,1334
855.002014,1368
855.119751,1361
855.237549,1396
855.355225,1365
855.473022,1389
855.590698,1381
855.708435,1406
855.826172,1363
855.943848,1405
856.061646,1365
856.179321,1356
856.296997,1382
856.414795,1380
856.53241,1374
856.650085,1377
856.767822,1381
856.885559,1382
857.003174,1417
857.120911,1395
857.238586,1390
857.356201,1422
857.473938,1358
857.591614,1366
857.709351,1385
857.826965,1381
857.944641,1377
858.062317,1373
858.179993,1384
858.297668,1404
858.415283,1371
858.532959,1386
858.650574,1383
858.768188,1390
858.885803,1377
859.003479,1364
859.121094,1358
859.23877,1376
859.356384,1384
859.473999,1340
859.591675,1369
859.709229,1395
859.826843,1322
859.944458,1397
860.062012,1382
860.179626,1328
860.297302,1365
860.414856,1379
860.532471,1357
860.650024,1306
860.767639,1366
860.885193,1367
861.002808,1335
861.120361,1360
861.237976,1372
861.35553,1354
861.473022,1344
861.590698,1374
861.708191,1384
861.825745,1362
861.943298,1339
862.060852,1302
862.178406,1384
862.295959,1345
862.413513,1368
862.531006,1337
862.64856,1389
862.766113,1357
862.883667,1351
863.00116,1368
863.118713,1368
863.236206,1404
863.353699,1352
863.471252,1360
863.588745,1343
863.706177,1389
863.82373,1327
863.941162,1405
864.058716,1353
864.176208,1393
864.29364,1353
864.411194,1383
864.528687,1317
864.646118,1375
864.763611,1372
864.881042,1394
864.998535,1355
865.116028,1372
865.233459,1387
865.350891,1353
865.468384,1352
865.585754,1397
865.703308,1347
865.820679,1394
865.938171,1322
866.055542,1353
866.173035,1357
866.290466,1351
866.407837,1343
866.52533,1378
866.6427,1351
866.760071,1411
866.877563,1398
866.994934,1374
867.112305,1369
867.229736,1393
867.347107,1340
867.464539,1361
867.58197,1376
867.699341,1413
867.81665,1384
867.934082,1345
868.051453,1384
868.168823,1425
868.286194,1348
868.403564,1371
868.520935,1355
868.638306,1369
868.755676,1352
868.872986,1368
868.990295,1380
869.107727,1392
869.225037,1368
869.342346,1375
869.459717,1377
869.577026,1337
869.694336,1372
869.811707,1372
869.929016,1370
870.046326,1343
870.163635,1365
870.280945,1394
870.398254,1330
870.515564,1361
870.632812,1353
870.750183,1340
870.867432,1385
870.984741,1371
871.102051,1352
871.219299,1383
871.336609,1375
871.453918,1401
871.571106,1323
871.688416,1366
871.805664,1350
871.922852,1364
872.040222,1348
872.157471,1389
872.274719,1372
872.391968,1418
872.509155,1367
872.626465,1382
872.743652,1393
872.860962,1340
872.978149,1351
873.095337,1350
873.212646,1394
873.329834,1328
873.44696,1372
873.564209,1314
873.681396,1404
873.798645,1362
873.915894,1369
874.03302,1356
874.150208,1355
874.267456,1374
874.384583,1385
874.501831,1385
874.618958,1341
874.736145,1389
874.853333,1365
874.970459,1407
875.087646,1352
875.204834,1358
875.32196,1356
875.439148,1389
875.556274,1356
875.673401,1332
875.790527,1393
875.907715,1377
876.024841,1399
876.141968,1379
876.259094,1372
876.376282,1378
876.493347,1403
876.610474,1317
876.7276,1380
876.844727,1391
876.961853,1412
877.078918,1329
877.195984,1370
877.313171,1352
877.430237,1413
877.547302,1376
877.664368,1356
877.781433,1402
877.898499,1376
878.015625,1396
878.13269,1376
878.249695,1373
878.366821,1364
878.483887,1316
878.600952,1332
878.717957,1382
878.834961,1364
878.952087,1382
879.069092,1385
879.186157,1389
879.303162,1312
879.420227,1347
879.537231,1385
879.654236,1373
879.77124,1377
879.888306,1353
880.005249,1311
880.122314,1387
880.239319,1361
880.356323,1363
880.473328,1389
880.590271,1408
880.707275,1345
880.824341,1354
880.941284,1349
881.058228,1340
881.175232,1388
881.292236,1331
881.40918,1366
881.526123,1371
881.643066,1392
881.760071,1368
881.877014,1351
881.993958,1384
882.11084,1363
882.227783,1372
882.344727,1374
882.46167,1365
882.578613,1400
882.695618,1350
882.812439,1331
882.929382,1360
883.046326,1407
883.163208,1372
883.280151,1351
883.397034,1371
883.513916,1371
883.630798,1401
883.747742,1347
883.864563,1392
883.981506,1376
884.098389,1369
884.21521,1403
884.332153,1350
884.448975,1374
884.565796,1379
884.682678,1393
884.7995,1382
884.916443,1412
885.033264,1366
885.150085,1405
885.266968,1402
885.383789,1439
885.500671,1369
885.617493,1370
885.734314,1387
885.851196,1390
885.967896,1406
886.084717,1400
886.201599,1431
886.318359,1379
886.435181,1415
886.552002,1358
886.668762,1425
886.785645,1356
886.902344,1382
887.019165,1379
887.135925,1430
887.252747,1368
887.369446,1389
887.486267,1403
887.603027,1385
887.719788,1396
887.836548,1394
887.953247,1396
888.070068,1396
888.186829,1403
888.303528,1425
888.420288,1387
888.536987,1379
888.653687,1373
888.770447,1414
888.887146,1441
889.003967,1385
889.120667,1407
889.237305,1389
889.354065,1388
889.470703,1402
889.587463,1372
889.704163,1392
889.820862,1412
889.937561,1392
890.054199,1428
890.170837,1384
890.287598,1432
890.404236,1355
890.520874,1408
890.637634,1430
890.754211,1386
890.87085,1372
890.987549,1359
891.104187,1417
891.220886,1435
891.337463,1404
891.454102,1414
891.57074,1403
891.687378,1441
891.804077,1435
891.920654,1404
892.037231,1413
892.15387,1395
892.270447,1394
892.387085,1420
892.503723,1409
892.6203,1424
892.736877,1385
892.853516,1419
892.970032,1408
893.08667,1427
893.203186,1398
893.319763,1417
893.43634,1457
893.552917,1427
893.669556,1445
893.786011,1381
893.902588,1414
894.019165,1439
894.135681,1406
894.252197,1399
894.368835,1414
894.485291,1394
894.601868,1435
894.718384,1457
894.8349,1415
894.951355,1394
895.067932,1450
895.184448,1376
895.300964,1436
895.417419,1412
895.533936,1432
895.650452,1426
895.766907,1407
895.883423,1400
895.999878,1431
896.116333,1437
896.232849,1430
896.349304,1398
896.465759,1436
896.582214,1429
896.698669,1443
896.815125,1400
896.931641,1420
897.048035,1392
897.164551,1436
897.280884,1391
897.397339,1403
897.513794,1391
897.630249,1441
897.746582,1420
897.863098,1429
897.979431,1441
898.095886,1449
898.212341,1442
898.328674,1423
898.445129,1409
898.561462,1424
898.677795,1396
898.794312,1410
898.910645,1465
899.026978,1383
899.143433,1481
899.259766,1365
899.37616,1442
899.492493,1443
899.608765,1416
899.725159,1432
899.841553,1457
899.957947,1427
900.07428,1404
900.190552,1461
900.306946,1418
900.423157,1421
900.53949,1402
900.655884,1446
900.772156,1440
900.888489,1465
901.004822,1404
901.121033,1447
901.237366,1420
901.353699,1439
901.46991,1462
901.586304,1457
901.702515,1444
901.818787,1443
901.93512,1445
902.051331,1456
902.167603,1423
902.283875,1438
902.400085,1420
902.516418,1481
902.632629,1457
902.74884,1475
902.865112,1490
902.981384,1427
903.097595,1446
903.213867,1480
903.330017,1454
903.446289,1436
903.5625,1442
903.67865,1451
903.794922,1468
903.911072,1413
904.027344,1421
904.143494,1484
904.259705,1451
904.375916,1449
904.492065,1428
904.608215,1469
904.724426,1413
904.840576,1465
904.956726,1442
905.072876,1480
905.189087,1456
905.305176,1450
905.421387,1447
905.537537,1487
905.653687,1373
905.769775,1453
905.885925,1476
906.002014,1432
906.118164,1472
906.234314,1483
906.350403,1445
906.466492,1480
906.582642,1446
906.69873,1446
906.814758,1426
906.930908,1452
907.046936,1412
907.163086,1423
907.279175,1448
907.395264,1464
907.511353,1456
907.62738,1461
907.743408,1450
907.859497,1401
907.975525,1517
908.091553,1452
908.207703,1432
908.32373,1464
908.439758,1493
908.555786,1494
908.671814,1414
908.787842,1451
908.90387,1463
909.019775,1470
909.135864,1490
909.251892,1422
909.367859,1501
909.483826,1476
909.599854,1440
909.715881,1443
909.831848,1441
909.947815,1454
910.063782,1435
910.179749,1452
910.295776,1444
910.411743,1483
910.527649,1450
910.643616,1459
910.759583,1445
910.875488,1428
910.991455,1463
911.107361,1437
911.223267,1487
911.339294,1443
911.4552,1434
911.571106,1496
911.687073,1461
911.802979,1439
911.918823,1433
912.034729,1461
912.150635,1466
912.266602,1487
912.382446,1469
912.498352,1429
912.614197,1503
912.730103,1443
912.846008,1472
