792.44574,4661
792.56488,4422
792.68396,4329
792.80304,4268
792.92218,4086
793.041199,3966
793.160339,3906
793.279419,3803
793.398499,3815
793.517578,3610
793.636658,3589
793.755737,3518
793.874817,3445
793.993896,3388
794.112976,3222
794.232056,3185
794.351074,3180
794.470215,3046
794.589233,3108
794.708313,3044
794.827393,2983
794.946411,2986
795.065552,2967
795.18457,2868
795.303589,2892
795.422668,2820
795.541687,2890
795.660767,2794
795.779846,2771
795.898865,2671
796.017883,2570
796.136963,2640
796.255981,2594
796.375061,2576
796.49408,2582
796.613037,2475
796.732117,2506
796.851135,2468
796.970154,2448
797.089233,2453
797.208191,2388
797.327271,2385
797.446228,2366
797.565186,2354
797.684265,2368
797.803223,2259
797.922241,2323
798.04126,2326
798.160278,2305
798.279297,2243
798.398315,2286
798.517273,2264
798.636292,2183
798.75531,2210
798.874268,2238
798.993286,2254
799.112244,2200
799.231323,2176
799.350281,2226
799.469238,2170
799.588257,2142
799.707153,2286
799.826111,2181
799.945129,2199
800.064087,2126
800.183044,2145
800.302063,2139
800.421021,2168
800.539978,2117
800.658936,2067
800.777893,2129
800.896912,2034
801.015747,2037
801.134705,2027
801.253723,2044
801.37262,2047
801.491638,2062
801.610535,2057
801.729492,2057
801.84845,2003
801.967407,2005
802.086243,2045
802.205261,2015
802.324158,1918
802.443115,1956
802.562073,1955
802.680969,1980
802.799927,1938
802.918762,1937
803.037659,1940
803.156677,1952
803.275574,1921
803.39447,1919
803.513428,1926
803.632263,1940
803.751221,1958
803.870117,1890
803.989014,1920
804.107971,1942
804.226746,1887
804.345642,1910
804.4646,1918
804.583496,1909
804.702393,1900
804.821228,1806
804.940125,1870
805.059021,1856
805.177917,1834
805.296814,1883
805.415649,1891
805.534546,1852
805.653442,1835
805.772278,1869
805.891113,1846
806.01001,1838
806.128906,1881
806.247742,1843
806.366577,1876
806.485413,1861
806.604309,1870
806.723145,1823
806.84198,1849
806.960876,1799
807.079712,1814
807.198486,1862
807.317383,1802
807.436218,1780
807.554993,1825
807.673889,1768
807.792725,1837
807.91156,1802
808.030396,1783
808.14917,1752
808.268005,1736
808.386841,1776
808.505676,1786
808.624451,1767
808.743286,1759
808.862122,1757
808.980896,1730
809.099731,1747
809.218506,1703
809.337341,1768
809.456116,1746
809.57489,1814
809.693726,1751
809.8125,1750
809.931274,1725
810.050049,1767
810.168884,1726
810.287659,1741
810.406372,1739
810.525269,1740
810.643982,1735
810.762756,1756
810.881531,1737
811.000305,1771
811.11908,1714
811.237854,1790
811.356567,1749
811.475403,1794
811.594116,1766
811.71283,1814
811.831604,1744
811.950378,1775
812.069153,1800
812.187927,1767
812.30658,1771
812.425415,1807
812.544128,1782
812.662781,1789
812.781616,1789
812.900269,1764
813.019043,1783
813.137756,1790
813.256531,1813
813.375244,1739
813.493896,1742
813.612671,1733
813.731384,1757
813.850037,1673
813.96875,1718
814.087524,1685
814.206238,1694
814.324951,1728
814.443604,1697
814.562256,1682
814.68103,1678
814.799683,1739
814.918335,1710
815.037109,1724
815.155762,1728
815.274475,1723
815.393188,1721
815.511841,1701
815.630554,1709
815.749146,1694
815.867859,1694
815.986572,1736
816.105164,1685
816.223877,1739
816.342529,1736
816.461182,1712
816.579895,1685
816.698486,1759
816.817139,1736
816.935791,1696
817.054504,1757
817.173096,1741
817.291748,1740
817.4104,1777
817.529053,1715
817.647644,1703
817.766235,1710
817.884949,1695
818.00354,1667
818.122192,1685
818.240845,1626
818.359436,1687
818.478088,1641
818.59668,1651
818.715271,1652
818.833923,1607
818.952515,1668
819.071106,1649
819.189758,1621
819.30835,1591
819.426941,1615
819.545532,1599
819.664124,1603
819.782715,1620
819.901306,1656
820.019897,1643
820.138489,1597
820.25708,1611
820.375671,1563
820.494202,1635
820.612732,1597
820.731384,1586
820.849915,1592
820.968506,1607
821.087097,1564
821.205627,1589
821.324158,1552
821.442749,1593
821.561279,1581
821.679871,1579
821.798401,1618
821.916931,1536
822.035461,1512
822.154053,1556
822.272583,1552
822.391174,1576
822.509583,1535
822.628174,1519
822.746704,1545
822.865234,1529
822.983765,1523
823.102295,1537
823.220825,1538
823.339294,1548
823.457825,1554
823.576355,1548
823.694824,1552
823.813354,1580
823.931885,1537
824.050354,1548
824.168884,1539
824.287354,1574
824.405823,1537
824.524353,1561
824.642822,1576
824.761353,1535
824.879822,1529
824.998291,1559
825.116699,1583
825.235291,1584
825.353699,1535
825.472168,1496
825.590637,1532
825.709106,1525
825.827576,1545
825.946045,1528
826.064453,1551
826.182983,1522
826.301392,1472
826.4198,1556
826.53833,1545
826.656738,1486
826.775208,1536
826.893677,1519
827.012024,1548
827.130493,1473
827.248962,1577
827.36731,1560
827.485779,1558
827.604248,1573
827.722595,1486
827.841064,1507
827.959412,1483
828.077942,1489
828.196289,1463
828.314636,1446
828.433105,1525
828.551514,1508
828.669861,1512
828.78833,1495
828.906677,1450
829.025085,1460
829.143433,1496
829.261841,1503
829.38031,1469
829.498657,1492
829.617004,1487
829.735413,1516
829.85376,1441
829.972107,1519
830.090515,1478
830.208862,1493
830.327209,1513
830.445557,1476
830.563904,1497
830.682312,1448
830.800659,1510
830.919006,1503
831.037354,1539
831.155701,1595
831.274048,1549
831.392395,1570
831.51062,1508
831.629028,1498
831.747314,1537
831.865662,1518
831.984009,1514
832.102356,1514
832.220642,1516
832.338928,1575
832.457275,1529
832.575623,1531
832.693909,1489
832.812134,1602
832.930481,1518
833.048828,1487
833.167114,1532
833.2854,1529
833.403687,1513
833.521973,1505
833.640259,1527
833.758545,1527
833.876831,1498
833.995056,1533
834.113281,1515
834.231628,1588
834.349915,1518
834.468201,1516
834.586426,1529
834.704651,1529
834.822998,1554
834.941162,1532
835.059448,1502
835.177673,1576
835.295959,1473
835.414246,1521
835.53241,1510
835.650635,1545
835.768921,1552
835.887146,1491
836.005371,1488
836.123596,1513
836.241821,1523
836.360046,1503
836.478271,1529
836.596497,1530
836.714722,1468
836.832886,1502
836.95105,1479
837.069336,1523
837.1875,1491
837.305725,1479
837.423889,1506
837.542053,1479
837.660339,1441
837.778503,1476
837.896667,1468
838.014832,1513
838.132996,1471
838.25116,1583
838.369385,1522
838.487488,1503
838.605713,1512
838.723877,1486
838.84198,1507
838.960205,1552
839.078308,1535
839.196472,1535
839.314636,1540
839.4328,1537
839.550964,1515
839.669067,1580
839.787231,1637
839.905396,1602
840.023499,1591
840.141602,1624
840.259766,1622
840.377869,1645
840.495972,1627
840.614136,1648
840.732239,1647
840.850342,1700
840.968445,1653
841.086548,1657
841.204651,1658
841.322754,1679
841.440918,1692
841.55896,1657
841.677002,1720
841.795166,1724
841.913208,1735
842.031311,1671
842.149353,1702
842.267456,1667
842.385498,1655
842.503601,1685
842.621643,1653
842.739746,1696
842.857788,1588
842.97583,1644
843.093933,1688
843.211975,1669
843.330017,1671
843.44812,1732
843.566101,1658
843.684204,1706
843.802246,1674
843.920227,1701
844.038269,1669
844.156311,1674
844.274292,1655
844.392395,1650
844.510376,1677
844.628357,1612
844.74646,1665
844.864441,1632
844.982422,1632
845.100403,1635
845.218384,1627
845.336426,1630
845.454468,1605
845.572449,1610
845.69043,1642
845.808411,1634
845.926453,1571
846.044373,1621
846.162354,1591
846.280396,1668
846.398315,1651
846.516296,1661
846.634216,1602
846.752197,1646
846.870178,1606
846.988098,1664
847.106079,1636
847.22406,1673
847.34198,1602
847.4599,1630
847.577881,1652
847.695801,1656
847.813782,1667
847.931641,1665
848.049561,1625
848.167603,1631
848.285461,1660
848.403381,1626
848.521362,1659
848.639221,1647
848.75708,1631
848.875,1645
848.99292,1673
849.110901,1662
849.22876,1663
849.34668,1639
849.464539,1663
849.582458,1640
849.700317,1647
849.818176,1665
849.936096,1668
850.053955,1663
850.171875,1656
850.289673,1625
850.407593,1604
850.525452,1638
850.643311,1648
850.761169,1638
850.878967,1646
850.996887,1608
851.114746,1606
851.232544,1613
851.350403,1645
851.468262,1617
851.58606,1594
851.703979,1633
851.821777,1620
851.939636,1614
852.057434,1632
852.175232,1649
852.293091,1661
852.410889,1698
852.528687,1708
852.646545,1837
852.764343,1775
852.88208,1765
852.999939,1734
853.117676,1682
853.235535,1675
853.353271,1677
853.471069,1670
853.588928,1666
853.706604,1649
853.824402,1629
853.9422,1620
854.059998,1611
854.177734,1649
854.295532,1637
854.413269,1666
854.531006,1678
854.648804,1643
854.766541,1665
854.884277,1665
855.002014,1686
855.119751,1681
855.237549,1650
855.355225,1661
855.473022,1628
855.590698,1640
855.708435,1675
855.826172,1628
855.943848,1652
856.061646,1660
856.179321,1689
856.296997,1654
856.414795,1698
856.53241,1648
856.650085,1717
856.767822,1733
856.885559,1725
857.003174,1723
857.120911,1717
857.238586,1700
857.356201,1745
857.473938,1697
857.591614,1679
857.709351,1703
857.826965,1688
857.944641,1728
858.062317,1663
858.179993,1696
858.297668,1719
858.415283,1737
858.532959,1746
858.650574,1697
858.768188,1740
858.885803,1711
859.003479,1688
859.121094,1679
859.23877,1683
859.356384,1668
859.473999,1635
859.591675,1674
859.709229,1694
859.826843,1619
859.944458,1600
860.062012,1632
860.179626,1625
860.297302,1642
860.414856,1611
860.532471,1582
860.650024,1665
860.767639,1604
860.885193,1649
861.002808,1616
861.120361,1654
861.237976,1645
861.35553,1625
861.473022,1640
861.590698,1628
861.708191,1625
861.825745,1616
861.943298,1591
862.060852,1597
862.178406,1577
862.295959,1557
862.413513,1555
862.531006,1521
862.64856,1567
862.766113,1553
862.883667,1519
863.00116,1558
863.118713,1507
863.236206,1548
863.353699,1546
863.471252,1552
863.588745,1551
863.706177,1588
863.82373,1548
863.941162,1533
864.058716,1575
864.176208,1589
864.29364,1561
864.411194,1544
864.528687,1544
864.646118,1558
864.763611,1536
864.881042,1535
864.998535,1560
865.116028,1551
865.233459,1555
865.350891,1553
865.468384,1528
865.585754,1550
865.703308,1565
865.820679,1519
865.938171,1516
866.055542,1520
866.173035,1538
866.290466,1506
866.407837,1526
866.52533,1545
866.6427,1571
866.760071,1539
866.877563,1569
866.994934,1533
867.112305,1567
867.229736,1549
867.347107,1577
867.464539,1578
867.58197,1595
867.699341,1558
867.81665,1569
867.934082,1599
868.051453,1575
868.168823,1569
868.286194,1560
868.403564,1588
868.520935,1545
868.638306,1577
868.755676,1554
868.872986,1601
868.990295,1596
869.107727,1644
869.225037,1576
869.342346,1637
869.459717,1615
869.577026,1654
869.694336,1622
869.811707,1661
869.929016,1654
870.046326,1637
870.163635,1673
870.280945,1651
870.398254,1684
870.515564,1687
870.632812,1723
870.750183,1712
870.867432,1692
870.984741,1725
871.102051,1675
871.219299,1769
871.336609,1755
871.453918,1775
871.571106,1763
871.688416,1751
871.805664,1783
871.922852,1744
872.040222,1767
872.157471,1789
872.274719,1791
872.391968,1757
872.509155,1778
872.626465,1725
872.743652,1788
872.860962,1742
872.978149,1743
873.095337,1752
873.212646,1703
873.329834,1733
873.44696,1712
873.564209,1717
873.681396,1728
873.798645,1716
873.915894,1681
874.03302,1709
874.150208,1787
874.267456,1743
874.384583,1711
874.501831,1766
874.618958,1774
874.736145,1791
874.853333,1760
874.970459,1784
875.087646,1771
875.204834,1779
875.32196,1789
875.439148,1726
875.556274,1766
875.673401,1748
875.790527,1690
875.907715,1702
876.024841,1683
876.141968,1681
876.259094,1629
876.376282,1674
876.493347,1696
876.610474,1633
876.7276,1703
876.844727,1688
876.961853,1673
877.078918,1676
877.195984,1648
877.313171,1657
877.430237,1630
877.547302,1661
877.664368,1613
877.781433,1629
877.898499,1635
878.015625,1644
878.13269,1650
878.249695,1596
878.366821,1578
878.483887,1613
878.600952,1600
878.717957,1537
878.834961,1576
878.952087,1597
879.069092,1558
879.186157,1533
879.303162,1541
879.420227,1582
879.537231,1547
879.654236,1537
879.77124,1552
879.888306,1547
880.005249,1572
880.122314,1515
880.239319,1527
880.356323,1531
880.473328,1534
880.590271,1519
880.707275,1507
880.824341,1528
880.941284,1497
881.058228,1485
881.175232,1493
881.292236,1540
881.40918,1527
881.526123,1520
881.643066,1459
881.760071,1524
881.877014,1498
881.993958,1504
882.11084,1523
882.227783,1478
882.344727,1504
882.46167,1521
882.578613,1546
882.695618,1511
882.812439,1555
882.929382,1506
883.046326,1516
883.163208,1479
883.280151,1548
883.397034,1492
883.513916,1549
883.630798,1549
883.747742,1529
883.864563,1557
883.981506,1542
884.098389,1622
884.21521,1561
884.332153,1661
884.448975,1565
884.565796,1606
884.682678,1667
884.7995,1730
884.916443,1766
885.033264,1877
885.150085,1853
885.266968,1954
885.383789,1996
885.500671,1999
885.617493,1999
885.734314,2002
885.851196,1996
885.967896,1981
886.084717,1999
886.201599,1994
886.318359,1951
886.435181,1951
886.552002,1926
886.668762,1874
886.785645,1912
886.902344,1923
887.019165,1871
887.135925,1854
887.252747,1827
887.369446,1832
887.486267,1819
887.603027,1755
887.719788,1682
887.836548,1687
887.953247,1674
888.070068,1636
888.186829,1619
888.303528,1603
888.420288,1532
888.536987,1566
888.653687,1521
888.770447,1531
888.887146,1517
889.003967,1488
889.120667,1459
889.237305,1440
889.354065,1443
889.470703,1441
889.587463,1429
889.704163,1487
889.820862,1390
889.937561,1436
890.054199,1433
890.170837,1456
890.287598,1421
890.404236,1415
890.520874,1427
890.637634,1473
890.754211,1425
890.87085,1474
890.987549,1451
891.104187,1441
891.220886,1440
891.337463,1440
891.454102,1470
891.57074,1462
891.687378,1443
891.804077,1475
891.920654,1481
892.037231,1457
892.15387,1482
892.270447,1468
892.387085,1450
892.503723,1456
892.6203,1473
892.736877,1454
892.853516,1488
892.970032,1486
893.08667,1471
893.203186,1441
893.319763,1428
893.43634,1473
893.552917,1450
893.669556,1425
893.786011,1424
893.902588,1448
894.019165,1415
894.135681,1469
894.252197,1473
894.368835,1458
894.485291,1472
894.601868,1459
894.718384,1470
894.8349,1446
894.951355,1464
895.067932,1475
895.184448,1434
895.300964,1478
895.417419,1493
895.533936,1404
895.650452,1440
895.766907,1456
895.883423,1433
895.999878,1443
896.116333,1448
896.232849,1445
896.349304,1386
896.465759,1456
896.582214,1421
896.698669,1472
896.815125,1450
896.931641,1475
897.048035,1409
897.164551,1466
897.280884,1418
897.397339,1474
897.513794,1497
897.630249,1444
897.746582,1450
897.863098,1465
897.979431,1453
898.095886,1461
898.212341,1486
898.328674,1427
898.445129,1515
898.561462,1484
898.677795,1486
898.794312,1450
898.910645,1458
899.026978,1471
899.143433,1484
899.259766,1501
899.37616,1462
899.492493,1501
899.608765,1475
899.725159,1473
899.841553,1460
899.957947,1460
900.07428,1452
900.190552,1470
900.306946,1459
900.423157,1458
900.53949,1493
900.655884,1483
900.772156,1450
900.888489,1526
901.004822,1476
901.121033,1518
901.237366,1485
901.353699,1487
901.46991,1557
901.586304,1532
901.702515,1558
901.818787,1574
901.93512,1613
902.051331,1609
902.167603,1606
902.283875,1643
902.400085,1652
902.516418,1656
902.632629,1720
902.74884,1772
902.865112,1806
902.981384,1746
903.097595,1796
903.213867,1769
903.330017,1709
903.446289,1682
903.5625,1722
903.67865,1700
903.794922,1621
903.911072,1667
904.027344,1661
904.143494,1641
904.259705,1577
904.375916,1580
904.492065,1587
904.608215,1573
904.724426,1528
904.840576,1528
904.956726,1565
905.072876,1548
905.189087,1479
905.305176,1511
905.421387,1487
905.537537,1515
905.653687,1490
905.769775,1516
905.885925,1463
906.002014,1456
906.118164,1444
906.234314,1437
906.350403,1413
906.466492,1454
906.582642,1396
906.69873,1489
906.814758,1425
906.930908,1401
907.046936,1387
907.163086,1428
907.279175,1409
907.395264,1455
907.511353,1427
907.62738,1413
907.743408,1403
907.859497,1429
907.975525,1452
908.091553,1452
908.207703,1407
908.32373,1458
908.439758,1413
908.555786,1411
908.671814,1446
908.787842,1424
908.90387,1476
909.019775,1445
909.135864,1445
909.251892,1472
909.367859,1398
909.483826,1446
909.599854,1419
909.715881,1425
909.831848,1434
909.947815,1443
910.063782,1470
910.179749,1433
910.295776,1463
910.411743,1482
910.527649,1515
910.643616,1447
910.759583,1399
910.875488,1459
910.991455,1440
911.107361,1447
911.223267,1444
911.339294,1441
911.4552,1425
911.571106,1437
911.687073,1449
911.802979,1422
911.918823,1418
912.034729,1452
912.150635,1399
912.266602,1414
912.382446,1422
912.498352,1421
912.614197,1396
912.730103,1407
912.846008,1445
792.44574,4660
792.56488,4478
792.68396,4440
792.80304,4244
792.92218,4110
793.041199,4050
793.160339,3907
793.279419,3854
793.398499,3688
793.517578,3637
793.636658,3608
793.755737,3531
793.874817,3439
793.993896,3426
794.112976,3342
794.232056,3206
794.351074,3210
794.470215,3158
794.589233,3149
794.708313,3067
794.827393,2983
794.946411,2944
795.065552,3009
795.18457,2813
795.303589,2863
795.422668,2859
795.541687,2829
795.660767,2855
795.779846,2712
795.898865,2654
796.017883,2637
796.136963,2661
796.255981,2628
796.375061,2606
796.49408,2556
796.613037,2565
796.732117,2548
796.851135,2484
796.970154,2478
797.089233,2388
797.208191,2473
797.327271,2360
797.446228,2385
797.565186,2376
797.684265,2353
797.803223,2340
797.922241,2329
798.04126,2349
798.160278,2308
798.279297,2300
798.398315,2280
798.517273,2267
798.636292,2269
798.75531,2258
798.874268,2241
798.993286,2230
799.112244,2205
799.231323,2203
799.350281,2229
799.469238,2240
799.588257,2210
799.707153,2224
799.826111,2176
799.945129,2138
800.064087,2123
800.183044,2132
800.302063,2106
800.421021,2134
800.539978,2127
800.658936,2072
800.777893,2070
800.896912,2117
801.015747,2084
801.134705,2102
801.253723,2078
801.37262,2029
801.491638,1993
801.610535,2054
801.729492,2069
801.84845,2077
801.967407,2012
802.086243,1956
802.205261,2027
802.324158,1974
802.443115,2010
802.562073,2007
802.680969,1932
802.799927,2011
802.918762,1979
803.037659,1908
803.156677,1986
803.275574,1962
803.39447,1983
803.513428,1969
803.632263,1950
803.751221,1972
803.870117,1885
803.989014,1922
804.107971,1921
804.226746,1913
804.345642,1905
804.4646,1890
804.583496,1877
804.702393,1883
804.821228,1956
804.940125,1880
805.059021,1865
805.177917,1861
805.296814,1868
805.415649,1883
805.534546,1914
805.653442,1887
805.772278,1901
805.891113,1827
806.01001,1851
806.128906,1874
806.247742,1814
806.366577,1843
806.485413,1817
806.604309,1877
806.723145,1870
806.84198,1869
806.960876,1890
807.079712,1851
807.198486,1859
807.317383,1823
807.436218,1782
807.554993,1806
807.673889,1779
807.792725,1772
807.91156,1835
808.030396,1782
808.14917,1822
808.268005,1820
808.386841,1803
808.505676,1813
808.624451,1793
808.743286,1800
808.862122,1780
808.980896,1734
809.099731,1740
809.218506,1789
809.337341,1819
809.456116,1789
809.57489,1828
809.693726,1760
809.8125,1811
809.931274,1789
810.050049,1734
810.168884,1749
810.287659,1721
810.406372,1755
810.525269,1811
810.643982,1758
810.762756,1783
810.881531,1784
811.000305,1796
811.11908,1731
811.237854,1797
811.356567,1816
811.475403,1752
811.594116,1768
811.71283,1787
811.831604,1766
811.950378,1822
812.069153,1779
812.187927,1810
812.30658,1818
812.425415,1829
812.544128,1826
812.662781,1804
812.781616,1773
812.900269,1801
813.019043,1797
813.137756,1812
813.256531,1777
813.375244,1744
813.493896,1740
813.612671,1747
813.731384,1746
813.850037,1722
813.96875,1740
814.087524,1749
814.206238,1758
814.324951,1711
814.443604,1708
814.562256,1767
814.68103,1729
814.799683,1729
814.918335,1767
815.037109,1756
815.155762,1739
815.274475,1740
815.393188,1706
815.511841,1678
815.630554,1765
815.749146,1717
815.867859,1701
815.986572,1735
816.105164,1693
816.223877,1727
816.342529,1729
816.461182,1706
816.579895,1735
816.698486,1779
816.817139,1702
816.935791,1763
817.054504,1779
817.173096,1798
817.291748,1786
817.4104,1756
817.529053,1706
817.647644,1717
817.766235,1728
817.884949,1696
818.00354,1697
818.122192,1711
818.240845,1671
818.359436,1709
818.478088,1706
818.59668,1651
818.715271,1664
818.833923,1668
818.952515,1631
819.071106,1594
819.189758,1650
819.30835,1624
819.426941,1602
819.545532,1621
819.664124,1629
819.782715,1595
819.901306,1593
820.019897,1574
820.138489,1633
820.25708,1604
820.375671,1616
820.494202,1623
820.612732,1605
820.731384,1637
820.849915,1623
820.968506,1633
821.087097,1647
821.205627,1629
821.324158,1590
821.442749,1580
821.561279,1571
821.679871,1594
821.798401,1603
821.916931,1537
822.035461,1581
822.154053,1586
822.272583,1588
822.391174,1619
822.509583,1583
822.628174,1591
822.746704,1580
822.865234,1541
822.983765,1588
823.102295,1556
823.220825,1525
823.339294,1558
823.457825,1562
823.576355,1523
823.694824,1548
823.813354,1581
823.931885,1540
824.050354,1576
824.168884,1589
824.287354,1573
824.405823,1526
824.524353,1535
824.642822,1603
824.761353,1606
824.879822,1594
824.998291,1565
825.116699,1566
825.235291,1543
825.353699,1569
825.472168,1493
825.590637,1520
825.709106,1582
825.827576,1552
825.946045,1532
826.064453,1513
826.182983,1560
826.301392,1527
826.4198,1522
826.53833,1489
826.656738,1507
826.775208,1508
826.893677,1514
827.012024,1478
827.130493,1540
827.248962,1571
827.36731,1534
827.485779,1544
827.604248,1552
827.722595,1544
827.841064,1509
827.959412,1518
828.077942,1462
828.196289,1508
828.314636,1500
828.433105,1498
828.551514,1522
828.669861,1498
828.78833,1482
828.906677,1498
829.025085,1469
829.143433,1565
829.261841,1478
829.38031,1525
829.498657,1504
829.617004,1523
829.735413,1530
829.85376,1503
829.972107,1498
830.090515,1500
830.208862,1527
830.327209,1465
830.445557,1444
830.563904,1507
830.682312,1486
830.800659,1506
830.919006,1493
831.037354,1510
831.155701,1539
831.274048,1557
831.392395,1566
831.51062,1549
831.629028,1514
831.747314,1545
831.865662,1498
831.984009,1565
832.102356,1515
832.220642,1545
832.338928,1557
832.457275,1586
832.575623,1542
832.693909,1518
832.812134,1558
832.930481,1529
833.048828,1534
833.167114,1550
833.2854,1512
833.403687,1537
833.521973,1534
833.640259,1524
833.758545,1560
833.876831,1576
833.995056,1515
834.113281,1574
834.231628,1553
834.349915,1550
834.468201,1522
834.586426,1506
834.704651,1513
834.822998,1510
834.941162,1531
835.059448,1546
835.177673,1512
835.295959,1590
835.414246,1536
835.53241,1548
835.650635,1571
835.768921,1540
835.887146,1526
836.005371,1497
836.123596,1482
836.241821,1495
836.360046,1536
836.478271,1506
836.596497,1500
836.714722,1496
836.832886,1512
836.95105,1493
837.069336,1524
837.1875,1470
837.305725,1510
837.423889,1467
837.542053,1518
837.660339,1479
837.778503,1479
837.896667,1493
838.014832,1494
838.132996,1519
838.25116,1479
838.369385,1512
838.487488,1520
838.605713,1529
838.723877,1528
838.84198,1553
838.960205,1542
839.078308,1557
839.196472,1533
839.314636,1557
839.4328,1602
839.550964,1556
839.669067,1610
839.787231,1586
839.905396,1625
840.023499,1620
840.141602,1648
840.259766,1664
840.377869,1648
840.495972,1628
840.614136,1650
840.732239,1648
840.850342,1664
840.968445,1669
841.086548,1688
841.204651,1676
841.322754,1705
841.440918,1671
841.55896,1696
841.677002,1750
841.795166,1723
841.913208,1717
842.031311,1678
842.149353,1657
842.267456,1717
842.385498,1690
842.503601,1653
842.621643,1689
842.739746,1682
842.857788,1647
842.97583,1658
843.093933,1656
843.211975,1669
843.330017,1719
843.44812,1712
843.566101,1680
843.684204,1683
843.802246,1661
843.920227,1639
844.038269,1682
844.156311,1646
844.274292,1672
844.392395,1666
844.510376,1668
844.628357,1624
844.74646,1644
844.864441,1672
844.982422,1660
845.100403,1623
845.218384,1599
845.336426,1580
845.454468,1688
845.572449,1617
845.69043,1643
845.808411,1610
845.926453,1625
846.044373,1628
846.162354,1633
846.280396,1624
846.398315,1621
846.516296,1637
846.634216,1657
846.752197,1651
846.870178,1660
846.988098,1636
847.106079,1634
847.22406,1635
847.34198,1697
847.4599,1609
847.577881,1648
847.695801,1655
847.813782,1659
847.931641,1661
848.049561,1659
848.167603,1632
848.285461,1638
848.403381,1611
848.521362,1605
848.639221,1581
848.75708,1679
848.875,1651
848.99292,1692
849.110901,1642
849.22876,1686
849.34668,1632
849.464539,1646
849.582458,1619
849.700317,1672
849.818176,1652
849.936096,1656
850.053955,1631
850.171875,1643
850.289673,1637
850.407593,1668
850.525452,1678
850.643311,1675
850.761169,1630
850.878967,1654
850.996887,1659
851.114746,1623
851.232544,1641
851.350403,1600
851.468262,1627
851.58606,1630
851.703979,1638
851.821777,1640
851.939636,1671
852.057434,1631
852.175232,1691
852.293091,1672
852.410889,1720
852.528687,1751
852.646545,1783
852.764343,1836
852.88208,1801
852.999939,1722
853.117676,1713
853.235535,1670
853.353271,1662
853.471069,1667
853.588928,1629
853.706604,1646
853.824402,1621
853.9422,1603
854.059998,1611
854.177734,1672
854.295532,1658
854.413269,1638
854.531006,1675
854.648804,1684
854.766541,1685
854.884277,1693
855.002014,1713
855.119751,1674
855.237549,1697
855.355225,1713
855.473022,1661
855.590698,1637
855.708435,1619
855.826172,1631
855.943848,1675
856.061646,1699
856.179321,1682
856.296997,1677
856.414795,1698
856.53241,1716
856.650085,1744
856.767822,1735
856.885559,1788
857.003174,1776
857.120911,1745
857.238586,1749
857.356201,1740
857.473938,1687
857.591614,1691
857.709351,1744
857.826965,1713
857.944641,1735
858.062317,1716
858.179993,1708
858.297668,1723
858.415283,1776
858.532959,1732
858.650574,1729
858.768188,1753
858.885803,1732
859.003479,1670
859.121094,1696
859.23877,1688
859.356384,1701
859.473999,1661
859.591675,1649
859.709229,1702
859.826843,1676
859.944458,1677
860.062012,1669
860.179626,1623
860.297302,1656
860.414856,1626
860.532471,1614
860.650024,1629
860.767639,1584
860.885193,1583
861.002808,1618
861.120361,1643
861.237976,1623
861.35553,1604
861.473022,1643
861.590698,1684
861.708191,1667
861.825745,1651
861.943298,1633
862.060852,1585
862.178406,1588
862.295959,1592
862.413513,1578
862.531006,1537
862.64856,1575
862.766113,1545
862.883667,1539
863.00116,1558
863.118713,1558
863.236206,1569
863.353699,1574
863.471252,1537
863.588745,1585
863.706177,1564
863.82373,1589
863.941162,1600
864.058716,1632
864.176208,1584
864.29364,1601
864.411194,1530
864.528687,1558
864.646118,1582
864.763611,1547
864.881042,1557
864.998535,1568
865.116028,1559
865.233459,1547
865.350891,1537
865.468384,1537
865.585754,1587
865.703308,1581
865.820679,1583
865.938171,1566
866.055542,1522
866.173035,1556
866.290466,1546
866.407837,1502
866.52533,1562
866.6427,1578
866.760071,1555
866.877563,1568
866.994934,1576
867.112305,1541
867.229736,1586
867.347107,1543
867.464539,1565
867.58197,1582
867.699341,1568
867.81665,1609
867.934082,1636
868.051453,1615
868.168823,1566
868.286194,1630
868.403564,1575
868.520935,1603
868.638306,1583
868.755676,1650
868.872986,1584
868.990295,1590
869.107727,1601
869.225037,1605
869.342346,1635
869.459717,1648
869.577026,1671
869.694336,1650
869.811707,1637
869.929016,1704
870.046326,1680
870.163635,1667
870.280945,1668
870.398254,1698
870.515564,1701
870.632812,1729
870.750183,1679
870.867432,1814
870.984741,1732
871.102051,1744
871.219299,1758
871.336609,1756
871.453918,1772
871.571106,1829
871.688416,1785
871.805664,1822
871.922852,1785
872.040222,1848
872.157471,1807
872.274719,1782
872.391968,1774
872.509155,1797
872.626465,1808
872.743652,1766
872.860962,1776
872.978149,1748
873.095337,1693
873.212646,1743
873.329834,1719
873.44696,1709
873.564209,1716
873.681396,1727
873.798645,1716
873.915894,1656
874.03302,1718
874.150208,1749
874.267456,1729
874.384583,1779
874.501831,1817
874.618958,1855
874.736145,1827
874.853333,1790
874.970459,1793
875.087646,1797
875.204834,1795
875.32196,1780
875.439148,1763
875.556274,1754
875.673401,1730
875.790527,1755
875.907715,1707
876.024841,1727
876.141968,1684
876.259094,1724
876.376282,1705
876.493347,1615
876.610474,1691
876.7276,1687
876.844727,1672
876.961853,1631
877.078918,1658
877.195984,1659
877.313171,1651
877.430237,1640
877.547302,1609
877.664368,1659
877.781433,1630
877.898499,1643
878.015625,1641
878.13269,1591
878.249695,1631
878.366821,1598
878.483887,1635
878.600952,1600
878.717957,1594
878.834961,1612
878.952087,1654
879.069092,1600
879.186157,1576
879.303162,1588
879.420227,1600
879.537231,1604
879.654236,1553
879.77124,1583
879.888306,1552
880.005249,1520
880.122314,1543
880.239319,1570
880.356323,1517
880.473328,1513
880.590271,1528
880.707275,1519
880.824341,1547
880.941284,1548
881.058228,1491
881.175232,1560
881.292236,1562
881.40918,1501
881.526123,1541
881.643066,1565
881.760071,1539
881.877014,1541
881.993958,1505
882.11084,1516
882.227783,1509
882.344727,1540
882.46167,1538
882.578613,1522
882.695618,1532
882.812439,1504
882.929382,1523
883.046326,1536
883.163208,1563
883.280151,1527
883.397034,1557
883.513916,1527
883.630798,1552
883.747742,1581
883.864563,1567
883.981506,1566
884.098389,1615
884.21521,1602
884.332153,1613
884.448975,1622
884.565796,1713
884.682678,1720
884.7995,1799
884.916443,1786
885.033264,1886
885.150085,1900
885.266968,1974
885.383789,1966
885.500671,2010
885.617493,2015
885.734314,2065
885.851196,2014
885.967896,1997
886.084717,1980
886.201599,2033
886.318359,1997
886.435181,1926
886.552002,1952
886.668762,1928
886.785645,1861
886.902344,1919
887.019165,1933
887.135925,1874
887.252747,1831
887.369446,1868
887.486267,1821
887.603027,1778
887.719788,1671
887.836548,1729
887.953247,1677
888.070068,1632
888.186829,1646
888.303528,1613
888.420288,1604
888.536987,1557
888.653687,1596
888.770447,1507
888.887146,1490
889.003967,1513
889.120667,1521
889.237305,1467
889.354065,1475
889.470703,1466
889.587463,1462
889.704163,1498
889.820862,1476
889.937561,1459
890.054199,1480
890.170837,1428
890.287598,1454
890.404236,1459
890.520874,1487
890.637634,1495
890.754211,1431
890.87085,1482
890.987549,1454
891.104187,1453
891.220886,1471
891.337463,1521
891.454102,1452
891.57074,1486
891.687378,1440
891.804077,1519
891.920654,1520
892.037231,1476
892.15387,1512
892.270447,1465
892.387085,1493
892.503723,1493
892.6203,1504
892.736877,1480
892.853516,1491
892.970032,1517
893.08667,1467
893.203186,1447
893.319763,1473
893.43634,1432
893.552917,1442
893.669556,1517
893.786011,1486
893.902588,1447
894.019165,1448
894.135681,1437
894.252197,1468
894.368835,1492
894.485291,1468
894.601868,1513
894.718384,1488
894.8349,1458
894.951355,1466
895.067932,1458
895.184448,1443
895.300964,1474
895.417419,1467
895.533936,1482
895.650452,1483
895.766907,1475
895.883423,1460
895.999878,1416
896.116333,1485
896.232849,1413
896.349304,1454
896.465759,1493
896.582214,1478
896.698669,1453
896.815125,1467
896.931641,1471
897.048035,1493
897.164551,1426
897.280884,1483
897.397339,1467
897.513794,1457
897.630249,1444
897.746582,1433
897.863098,1491
897.979431,1466
898.095886,1505
898.212341,1493
898.328674,1483
898.445129,1506
898.561462,1458
898.677795,1480
898.794312,1465
898.910645,1513
899.026978,1503
899.143433,1524
899.259766,1494
899.37616,1497
899.492493,1472
899.608765,1538
899.725159,1489
899.841553,1511
899.957947,1455
900.07428,1500
900.190552,1548
900.306946,1470
900.423157,1502
900.53949,1506
900.655884,1481
900.772156,1498
900.888489,1493
901.004822,1504
901.121033,1563
901.237366,1523
901.353699,1512
901.46991,1565
901.586304,1554
901.702515,1533
901.818787,1591
901.93512,1569
902.051331,1661
902.167603,1706
902.283875,1718
902.400085,1689
902.516418,1712
902.632629,1768
902.74884,1768
902.865112,1786
902.981384,1758
903.097595,1793
903.213867,1770
903.330017,1729
903.446289,1742
903.5625,1695
903.67865,1739
903.794922,1700
903.911072,1654
904.027344,1623
904.143494,1639
904.259705,1630
904.375916,1642
904.492065,1599
904.608215,1605
904.724426,1610
904.840576,1559
904.956726,1577
905.072876,1518
905.189087,1527
905.305176,1517
905.421387,1510
905.537537,1448
905.653687,1529
905.769775,1510
905.885925,1516
906.002014,1487
906.118164,1502
906.234314,1449
906.350403,1495
906.466492,1482
906.582642,1482
906.69873,1466
906.814758,1442
906.930908,1467
907.046936,1477
907.163086,1481
907.279175,1468
907.395264,1465
907.511353,1456
907.62738,1491
907.743408,1421
907.859497,1468
907.975525,1457
908.091553,1464
908.207703,1469
908.32373,1529
908.439758,1397
908.555786,1518
908.671814,1462
908.787842,1486
908.90387,1415
909.019775,1465
909.135864,1464
909.251892,1491
909.367859,1461
909.483826,1471
909.599854,1500
909.715881,1443
909.831848,1471
909.947815,1457
910.063782,1455
910.179749,1488
910.295776,1465
910.411743,1470
910.527649,1430
910.643616,1464
910.759583,1503
910.875488,1466
910.991455,1439
911.107361,1459
911.223267,1463
911.339294,1484
911.4552,1470
911.571106,1450
911.687073,1484
911.802979,1440
911.918823,1473
912.034729,1464
912.150635,1444
912.266602,1399
912.382446,1446
912.498352,1435
912.614197,1414
912.730103,1459
912.846008,1444
792.44574,4725
792.56488,4432
792.68396,4512
792.80304,4267
792.92218,4127
793.041199,4036
793.160339,3948
793.279419,3880
793.398499,3789
793.517578,3754
793.636658,3549
793.755737,3546
793.874817,3456
793.993896,3356
794.112976,3279
794.232056,3270
794.351074,3160
794.470215,3143
794.589233,3092
794.708313,3035
794.827393,3050
794.946411,2970
795.065552,2986
795.18457,2882
795.303589,2867
795.422668,2836
795.541687,2837
795.660767,2863
795.779846,2692
795.898865,2707
796.017883,2705
796.136963,2620
796.255981,2578
796.375061,2549
796.49408,2559
796.613037,2528
796.732117,2532
796.851135,2503
796.970154,2436
797.089233,2434
797.208191,2465
797.327271,2399
797.446228,2395
797.565186,2387
797.684265,2373
797.803223,2305
797.922241,2363
798.04126,2308
798.160278,2288
798.279297,2326
798.398315,2265
798.517273,2309
798.636292,2253
798.75531,2200
798.874268,2270
798.993286,2260
799.112244,2215
799.231323,2230
799.350281,2200
799.469238,2171
799.588257,2234
799.707153,2199
799.826111,2206
799.945129,2182
800.064087,2135
800.183044,2131
800.302063,2157
800.421021,2107
800.539978,2152
800.658936,2132
800.777893,2096
800.896912,2075
801.015747,2103
801.134705,2085
801.253723,2079
801.37262,2069
801.491638,2063
801.610535,2036
801.729492,2069
801.84845,2043
801.967407,1973
802.086243,2022
802.205261,2053
802.324158,2004
802.443115,2006
802.562073,2005
802.680969,1984
802.799927,2008
802.918762,1998
803.037659,1951
803.156677,1943
803.275574,1964
803.39447,1938
803.513428,1906
803.632263,1989
803.751221,1949
803.870117,1918
803.989014,1930
804.107971,1928
804.226746,1944
804.345642,1870
804.4646,1896
804.583496,1941
804.702393,1911
804.821228,1867
804.940125,1917
805.059021,1946
805.177917,1870
805.296814,1893
805.415649,1881
805.534546,1920
805.653442,1885
805.772278,1859
805.891113,1890
806.01001,1864
806.128906,1903
806.247742,1828
806.366577,1871
806.485413,1852
806.604309,1821
806.723145,1840
806.84198,1846
806.960876,1836
807.079712,1835
807.198486,1821
807.317383,1841
807.436218,1819
807.554993,1819
807.673889,1842
807.792725,1848
807.91156,1828
808.030396,1835
808.14917,1773
808.268005,1797
808.386841,1808
808.505676,1819
808.624451,1794
808.743286,1792
808.862122,1791
808.980896,1755
809.099731,1743
809.218506,1825
809.337341,1799
809.456116,1823
809.57489,1783
809.693726,1788
809.8125,1800
809.931274,1745
810.050049,1751
810.168884,1779
810.287659,1816
810.406372,1756
810.525269,1726
810.643982,1722
810.762756,1749
810.881531,1750
811.000305,1794
811.11908,1774
811.237854,1751
811.356567,1790
811.475403,1820
811.594116,1764
811.71283,1764
811.831604,1754
811.950378,1783
812.069153,1761
812.187927,1822
812.30658,1819
812.425415,1794
812.544128,1832
812.662781,1770
812.781616,1835
812.900269,1765
813.019043,1786
813.137756,1717
813.256531,1763
813.375244,1792
813.493896,1723
813.612671,1798
813.731384,1704
813.850037,1726
813.96875,1770
814.087524,1742
814.206238,1719
814.324951,1714
814.443604,1748
814.562256,1727
814.68103,1735
814.799683,1748
814.918335,1761
815.037109,1749
815.155762,1732
815.274475,1738
815.393188,1739
815.511841,1724
815.630554,1731
815.749146,1677
815.867859,1725
815.986572,1742
816.105164,1726
816.223877,1734
816.342529,1736
816.461182,1744
816.579895,1718
816.698486,1712
816.817139,1755
816.935791,1768
817.054504,1762
817.173096,1744
817.291748,1763
817.4104,1753
817.529053,1789
817.647644,1730
817.766235,1666
817.884949,1746
818.00354,1740
818.122192,1669
818.240845,1678
818.359436,1718
818.478088,1690
818.59668,1702
818.715271,1701
818.833923,1660
818.952515,1664
819.071106,1688
819.189758,1622
819.30835,1647
819.426941,1608
819.545532,1611
819.664124,1629
819.782715,1591
819.901306,1646
820.019897,1562
820.138489,1652
820.25708,1604
820.375671,1592
820.494202,1600
820.612732,1658
820.731384,1633
820.849915,1615
820.968506,1624
821.087097,1631
821.205627,1650
821.324158,1604
821.442749,1588
821.561279,1595
821.679871,1561
821.798401,1509
821.916931,1587
822.035461,1605
822.154053,1549
822.272583,1565
822.391174,1604
822.509583,1579
822.628174,1579
822.746704,1536
822.865234,1570
822.983765,1544
823.102295,1581
823.220825,1565
823.339294,1557
823.457825,1549
823.576355,1559
823.694824,1569
823.813354,1570
823.931885,1587
824.050354,1547
824.168884,1590
824.287354,1569
824.405823,1606
824.524353,1577
824.642822,1554
824.761353,1604
824.879822,1562
824.998291,1540
825.116699,1552
825.235291,1534
825.353699,1522
825.472168,1550
825.590637,1561
825.709106,1593
825.827576,1578
825.946045,1533
826.064453,1550
826.182983,1519
826.301392,1594
826.4198,1585
826.53833,1528
826.656738,1506
826.775208,1489
826.893677,1525
827.012024,1525
827.130493,1522
827.248962,1544
827.36731,1531
827.485779,1560
827.604248,1524
827.722595,1510
827.841064,1558
827.959412,1516
828.077942,1516
828.196289,1511
828.314636,1557
828.433105,1504
828.551514,1537
828.669861,1545
828.78833,1483
828.906677,1511
829.025085,1480
829.143433,1503
829.261841,1519
829.38031,1512
829.498657,1518
829.617004,1489
829.735413,1498
829.85376,1486
829.972107,1478
830.090515,1529
830.208862,1503
830.327209,1497
830.445557,1495
830.563904,1518
830.682312,1484
830.800659,1504
830.919006,1496
831.037354,1571
831.155701,1531
831.274048,1579
831.392395,1578
831.51062,1526
831.629028,1565
831.747314,1536
831.865662,1572
831.984009,1558
832.102356,1567
832.220642,1548
832.338928,1549
832.457275,1560
832.575623,1551
832.693909,1574
832.812134,1597
832.930481,1585
833.048828,1533
833.167114,1524
833.2854,1552
833.403687,1555
833.521973,1513
833.640259,1519
833.758545,1524
833.876831,1541
833.995056,1524
834.113281,1579
834.231628,1531
834.349915,1508
834.468201,1545
834.586426,1560
834.704651,1558
834.822998,1563
834.941162,1536
835.059448,1576
835.177673,1536
835.295959,1571
835.414246,1538
835.53241,1532
835.650635,1546
835.768921,1552
835.887146,1510
836.005371,1532
836.123596,1528
836.241821,1490
836.360046,1502
836.478271,1512
836.596497,1513
836.714722,1485
836.832886,1492
836.95105,1489
837.069336,1493
837.1875,1490
837.305725,1519
837.423889,1555
837.542053,1536
837.660339,1500
837.778503,1522
837.896667,1510
838.014832,1510
838.132996,1514
838.25116,1496
838.369385,1514
838.487488,1490
838.605713,1512
838.723877,1534
838.84198,1536
838.960205,1532
839.078308,1577
839.196472,1556
839.314636,1513
839.4328,1551
839.550964,1580
839.669067,1575
839.787231,1569
839.905396,1613
840.023499,1628
840.141602,1622
840.259766,1690
840.377869,1671
840.495972,1682
840.614136,1651
840.732239,1631
840.850342,1646
840.968445,1652
841.086548,1680
841.204651,1726
841.322754,1730
841.440918,1721
841.55896,1679
841.677002,1674
841.795166,1694
841.913208,1742
842.031311,1741
842.149353,1704
842.267456,1673
842.385498,1702
842.503601,1699
842.621643,1672
842.739746,1642
842.857788,1689
842.97583,1637
843.093933,1722
843.211975,1710
843.330017,1705
843.44812,1675
843.566101,1724
843.684204,1746
843.802246,1678
843.920227,1726
844.038269,1687
844.156311,1684
844.274292,1674
844.392395,1659
844.510376,1627
844.628357,1663
844.74646,1637
844.864441,1684
844.982422,1614
845.100403,1616
845.218384,1656
845.336426,1608
845.454468,1679
845.572449,1639
845.69043,1665
845.808411,1652
845.926453,1685
846.044373,1631
846.162354,1648
846.280396,1598
846.398315,1622
846.516296,1627
846.634216,1625
846.752197,1655
846.870178,1704
846.988098,1661
847.106079,1700
847.22406,1673
847.34198,1676
847.4599,1631
847.577881,1677
847.695801,1630
847.813782,1636
847.931641,1710
848.049561,1619
848.167603,1675
848.285461,1646
848.403381,1633
848.521362,1640
848.639221,1677
848.75708,1688
848.875,1648
848.99292,1656
849.110901,1661
849.22876,1667
849.34668,1660
849.464539,1696
849.582458,1670
849.700317,1717
849.818176,1623
849.936096,1652
850.053955,1628
850.171875,1661
850.289673,1700
850.407593,1672
850.525452,1644
850.643311,1655
850.761169,1678
850.878967,1630
850.996887,1659
851.114746,1626
851.232544,1633
851.350403,1690
851.468262,1665
851.58606,1627
851.703979,1619
851.821777,1649
851.939636,1604
852.057434,1631
852.175232,1640
852.293091,1695
852.410889,1716
852.528687,1761
852.646545,1804
852.764343,1879
852.88208,1805
852.999939,1768
853.117676,1734
853.235535,1686
853.353271,1682
853.471069,1669
853.588928,1672
853.706604,1638
853.824402,1681
853.9422,1626
854.059998,1609
854.177734,1677
854.295532,1701
854.413269,1644
854.531006,1706
854.648804,1733
854.766541,1664
854.884277,1720
855.002014,1695
855.119751,1639
855.237549,1696
855.355225,1691
855.473022,1627
855.590698,1681
855.708435,1647
855.826172,1626
855.943848,1644
856.061646,1668
856.179321,1667
856.296997,1655
856.414795,1726
856.53241,1711
856.650085,1681
856.767822,1716
856.885559,1763
857.003174,1739
857.120911,1739
857.238586,1751
857.356201,1727
857.473938,1743
857.591614,1744
857.709351,1732
857.826965,1715
857.944641,1726
858.062317,1751
858.179993,1715
858.297668,1723
858.415283,1749
858.532959,1710
858.650574,1721
858.768188,1710
858.885803,1696
859.003479,1729
859.121094,1674
859.23877,1674
859.356384,1693
859.473999,1676
859.591675,1700
859.709229,1697
859.826843,1669
859.944458,1629
860.062012,1645
860.179626,1615
860.297302,1649
860.414856,1578
860.532471,1636
860.650024,1589
860.767639,1601
860.885193,1668
861.002808,1642
861.120361,1622
861.237976,1635
861.35553,1637
861.473022,1621
861.590698,1642
861.708191,1673
861.825745,1652
861.943298,1662
862.060852,1619
862.178406,1588
862.295959,1607
862.413513,1572
862.531006,1564
862.64856,1508
862.766113,1494
862.883667,1540
863.00116,1538
863.118713,1555
863.236206,1561
863.353699,1561
863.471252,1575
863.588745,1593
863.706177,1577
863.82373,1581
863.941162,1599
864.058716,1592
864.176208,1593
864.29364,1592
864.411194,1559
864.528687,1552
864.646118,1575
864.763611,1570
864.881042,1579
864.998535,1550
865.116028,1546
865.233459,1556
865.350891,1577
865.468384,1561
865.585754,1557
865.703308,1525
865.820679,1564
865.938171,1577
866.055542,1569
866.173035,1568
866.290466,1582
866.407837,1583
866.52533,1545
866.6427,1566
866.760071,1577
866.877563,1537
866.994934,1575
867.112305,1566
867.229736,1640
867.347107,1573
867.464539,1581
867.58197,1584
867.699341,1618
867.81665,1596
867.934082,1572
868.051453,1603
868.168823,1571
868.286194,1608
868.403564,1624
868.520935,1599
868.638306,1621
868.755676,1619
868.872986,1617
868.990295,1633
869.107727,1621
869.225037,1644
869.342346,1613
869.459717,1639
869.577026,1666
869.694336,1679
869.811707,1658
869.929016,1629
870.046326,1673
870.163635,1652
870.280945,1731
870.398254,1726
870.515564,1752
870.632812,1723
870.750183,1713
870.867432,1749
870.984741,1757
871.102051,1780
871.219299,1801
871.336609,1777
871.453918,1752
871.571106,1773
871.688416,1798
871.805664,1743
871.922852,1805
872.040222,1759
872.157471,1805
872.274719,1796
872.391968,1766
872.509155,1748
872.626465,1791
872.743652,1774
872.860962,1731
872.978149,1745
873.095337,1746
873.212646,1757
873.329834,1717
873.44696,1747
873.564209,1718
873.681396,1740
873.798645,1704
873.915894,1719
874.03302,1739
874.150208,1768
874.267456,1769
874.384583,1805
874.501831,1795
874.618958,1788
874.736145,1804
874.853333,1808
874.970459,1837
875.087646,1742
875.204834,1780
875.32196,1775
875.439148,1791
875.556274,1741
875.673401,1771
875.790527,1747
875.907715,1768
876.024841,1675
876.141968,1693
876.259094,1688
876.376282,1727
876.493347,1668
876.610474,1688
876.7276,1631
876.844727,1689
876.961853,1618
877.078918,1671
877.195984,1649
877.313171,1673
877.430237,1672
877.547302,1677
877.664368,1649
877.781433,1649
877.898499,1646
878.015625,1626
878.13269,1634
878.249695,1661
878.366821,1593
878.483887,1596
878.600952,1602
878.717957,1565
878.834961,1586
878.952087,1632
879.069092,1615
879.186157,1615
879.303162,1613
879.420227,1581
879.537231,1610
879.654236,1587
879.77124,1536
879.888306,1575
880.005249,1560
880.122314,1552
880.239319,1532
880.356323,1575
880.473328,1491
880.590271,1505
880.707275,1551
880.824341,1519
880.941284,1521
881.058228,1514
881.175232,1548
881.292236,1482
881.40918,1527
881.526123,1504
881.643066,1510
881.760071,1511
881.877014,1536
881.993958,1526
882.11084,1553
882.227783,1577
882.344727,1567
882.46167,1552
882.578613,1528
882.695618,1541
882.812439,1548
882.929382,1497
883.046326,1543
883.163208,1532
883.280151,1543
883.397034,1525
883.513916,1541
883.630798,1500
883.747742,1602
883.864563,1541
883.981506,1599
884.098389,1580
884.21521,1636
884.332153,1620
884.448975,1614
884.565796,1681
884.682678,1667
884.7995,1752
884.916443,1800
885.033264,1868
885.150085,1908
885.266968,1962
885.383789,1982
885.500671,2015
885.617493,2050
885.734314,2001
885.851196,1992
885.967896,1997
886.084717,1996
886.201599,2017
886.318359,1973
886.435181,1996
886.552002,1967
886.668762,1956
886.785645,1926
886.902344,1891
887.019165,1894
887.135925,1872
887.252747,1832
887.369446,1866
887.486267,1792
887.603027,1749
887.719788,1701
887.836548,1761
887.953247,1691
888.070068,1675
888.186829,1652
888.303528,1590
888.420288,1618
888.536987,1573
888.653687,1558
888.770447,1540
888.887146,1543
889.003967,1516
889.120667,1501
889.237305,1468
889.354065,1502
889.470703,1499
889.587463,1404
889.704163,1484
889.820862,1499
889.937561,1452
890.054199,1461
890.170837,1451
890.287598,1445
890.404236,1459
890.520874,1477
890.637634,1491
890.754211,1456
890.87085,1478
890.987549,1482
891.104187,1491
891.220886,1495
891.337463,1475
891.454102,1462
891.57074,1465
891.687378,1511
891.804077,1503
891.920654,1488
892.037231,1482
892.15387,1491
892.270447,1519
892.387085,1488
892.503723,1481
892.6203,1501
892.736877,1471
892.853516,1470
892.970032,1478
893.08667,1508
893.203186,1453
893.319763,1475
893.43634,1382
893.552917,1479
893.669556,1451
893.786011,1491
893.902588,1439
894.019165,1485
894.135681,1458
894.252197,1465
894.368835,1500
894.485291,1463
894.601868,1501
894.718384,1521
894.8349,1445
894.951355,1462
895.067932,1468
895.184448,1468
895.300964,1478
895.417419,1529
895.533936,1488
895.650452,1463
895.766907,1462
895.883423,1469
895.999878,1485
896.116333,1451
896.232849,1484
896.349304,1479
896.465759,1413
896.582214,1481
896.698669,1450
896.815125,1462
896.931641,1462
897.048035,1463
897.164551,1525
897.280884,1429
897.397339,1507
897.513794,1467
897.630249,1490
897.746582,1454
897.863098,1473
897.979431,1484
898.095886,1456
898.212341,1492
898.328674,1470
898.445129,1508
898.561462,1459
898.677795,1551
898.794312,1511
898.910645,1506
899.026978,1516
899.143433,1514
899.259766,1503
899.37616,1500
899.492493,1486
899.608765,1496
899.725159,1556
899.841553,1515
899.957947,1507
900.07428,1474
900.190552,1528
900.306946,1490
900.423157,1520
900.53949,1486
900.655884,1520
900.772156,1504
900.888489,1498
901.004822,1529
901.121033,1518
901.237366,1529
901.353699,1536
901.46991,1542
901.586304,1551
901.702515,1520
901.818787,1592
901.93512,1627
902.051331,1616
902.167603,1623
902.283875,1676
902.400085,1698
902.516418,1715
902.632629,1759
902.74884,1751
902.865112,1778
902.981384,1795
903.097595,1823
903.213867,1769
903.330017,1738
903.446289,1743
903.5625,1676
903.67865,1713
903.794922,1714
903.911072,1684
904.027344,1666
904.143494,1667
904.259705,1665
904.375916,1599
904.492065,1603
904.608215,1590
904.724426,1568
904.840576,1558
904.956726,1549
905.072876,1549
905.189087,1515
905.305176,1570
905.421387,1546
905.537537,1497
905.653687,1516
905.769775,1535
905.885925,1523
906.002014,1501
906.118164,1435
906.234314,1499
906.350403,1488
906.466492,1464
906.582642,1499
906.69873,1501
906.814758,1472
906.930908,1472
907.046936,1482
907.163086,1483
907.279175,1449
907.395264,1433
907.511353,1457
907.62738,1499
907.743408,1457
907.859497,1529
907.975525,1453
908.091553,1495
908.207703,1483
908.32373,1476
908.439758,1461
908.555786,1467
908.671814,1430
908.787842,1488
908.90387,1455
909.019775,1488
909.135864,1474
909.251892,1497
909.367859,1470
909.483826,1482
909.599854,1448
909.715881,1433
909.831848,1505
909.947815,1495
910.063782,1478
910.179749,1491
910.295776,1425
910.411743,1494
910.527649,1475
910.643616,1491
910.759583,1471
910.875488,1520
910.991455,1473
911.107361,1446
911.223267,1481
911.339294,1476
911.4552,1473
911.571106,1460
911.687073,1455
911.802979,1490
911.918823,1447
912.034729,1448
912.150635,1497
912.266602,1478
912.382446,1439
912.498352,1429
912.614197,1446
912.730103,1415
912.846008,1448
