792.44574,1177
792.56488,1176
792.68396,1205
792.80304,1182
792.92218,1056
793.041199,1038
793.160339,1039
793.279419,1011
793.398499,989
793.517578,970
793.636658,942
793.755737,957
793.874817,928
793.993896,937
794.112976,900
794.232056,876
794.351074,892
794.470215,853
794.589233,871
794.708313,812
794.827393,833
794.946411,851
795.065552,807
795.18457,812
795.303589,782
795.422668,765
795.541687,787
795.660767,774
795.779846,802
795.898865,742
796.017883,749
796.136963,744
796.255981,741
796.375061,733
796.49408,738
796.613037,735
796.732117,757
796.851135,682
796.970154,739
797.089233,691
797.208191,664
797.327271,689
797.446228,676
797.565186,678
797.684265,688
797.803223,681
797.922241,660
798.04126,653
798.160278,678
798.279297,674
798.398315,687
798.517273,651
798.636292,647
798.75531,649
798.874268,657
798.993286,662
799.112244,639
799.231323,641
799.350281,646
799.469238,627
799.588257,647
799.707153,632
799.826111,649
799.945129,639
800.064087,649
800.183044,641
800.302063,627
800.421021,642
800.539978,635
800.658936,629
800.777893,629
800.896912,598
801.015747,614
801.134705,617
801.253723,589
801.37262,605
801.491638,583
801.610535,611
801.729492,620
801.84845,589
801.967407,610
802.086243,599
802.205261,605
802.324158,615
802.443115,609
802.562073,591
802.680969,599
802.799927,573
802.918762,605
803.037659,594
803.156677,584
803.275574,567
803.39447,570
803.513428,579
803.632263,597
803.751221,575
803.870117,592
803.989014,594
804.107971,565
804.226746,571
804.345642,583
804.4646,584
804.583496,600
804.702393,575
804.821228,565
804.940125,578
805.059021,556
805.177917,565
805.296814,556
805.415649,555
805.534546,570
805.653442,582
805.772278,566
805.891113,562
806.01001,575
806.128906,570
806.247742,580
806.366577,562
806.485413,593
806.604309,561
806.723145,575
806.84198,538
806.960876,552
807.079712,565
807.198486,578
807.317383,575
807.436218,556
807.554993,535
807.673889,548
807.792725,557
807.91156,563
808.030396,562
808.14917,539
808.268005,561
808.386841,565
808.505676,542
808.624451,551
808.743286,555
808.862122,572
808.980896,543
809.099731,548
809.218506,535
809.337341,554
809.456116,549
809.57489,551
809.693726,542
809.8125,557
809.931274,553
810.050049,564
810.168884,557
810.287659,572
810.406372,542
810.525269,549
810.643982,559
810.762756,548
810.881531,538
811.000305,544
811.11908,540
811.237854,566
811.356567,552
811.475403,566
811.594116,545
811.71283,544
811.831604,539
811.950378,551
812.069153,541
812.187927,574
812.30658,557
812.425415,564
812.544128,552
812.662781,577
812.781616,565
812.900269,565
813.019043,551
813.137756,551
813.256531,547
813.375244,560
813.493896,552
813.612671,564
813.731384,552
813.850037,541
813.96875,524
814.087524,547
814.206238,527
814.324951,542
814.443604,535
814.562256,537
814.68103,520
814.799683,517
814.918335,537
815.037109,557
815.155762,526
815.274475,549
815.393188,523
815.511841,561
815.630554,537
815.749146,541
815.867859,534
815.986572,534
816.105164,524
816.223877,554
816.342529,540
816.461182,557
816.579895,560
816.698486,550
816.817139,565
816.935791,546
817.054504,557
817.173096,542
817.291748,550
817.4104,527
817.529053,560
817.647644,537
817.766235,545
817.884949,540
818.00354,545
818.122192,542
818.240845,532
818.359436,530
818.478088,540
818.59668,518
818.715271,514
818.833923,534
818.952515,526
819.071106,538
819.189758,520
819.30835,520
819.426941,517
819.545532,526
819.664124,515
819.782715,519
819.901306,533
820.019897,526
820.138489,507
820.25708,514
820.375671,519
820.494202,540
820.612732,522
820.731384,510
820.849915,507
820.968506,506
821.087097,511
821.205627,525
821.324158,516
821.442749,518
821.561279,506
821.679871,538
821.798401,512
821.916931,502
822.035461,508
822.154053,488
822.272583,507
822.391174,518
822.509583,491
822.628174,518
822.746704,505
822.865234,504
822.983765,511
823.102295,489
823.220825,525
823.339294,503
823.457825,489
823.576355,504
823.694824,510
823.813354,495
823.931885,480
824.050354,501
824.168884,518
824.287354,528
824.405823,514
824.524353,530
824.642822,511
824.761353,517
824.879822,499
824.998291,517
825.116699,508
825.235291,508
825.353699,502
825.472168,511
825.590637,506
825.709106,519
825.827576,507
825.946045,504
826.064453,510
826.182983,513
826.301392,481
826.4198,503
826.53833,492
826.656738,509
826.775208,513
826.893677,507
827.012024,493
827.130493,494
827.248962,493
827.36731,507
827.485779,499
827.604248,507
827.722595,504
827.841064,497
827.959412,498
828.077942,500
828.196289,493
828.314636,494
828.433105,503
828.551514,483
828.669861,499
828.78833,491
828.906677,477
829.025085,507
829.143433,497
829.261841,490
829.38031,491
829.498657,522
829.617004,489
829.735413,507
829.85376,491
829.972107,485
830.090515,493
830.208862,500
830.327209,488
830.445557,488
830.563904,493
830.682312,497
830.800659,501
830.919006,509
831.037354,486
831.155701,504
831.274048,492
831.392395,528
831.51062,495
831.629028,489
831.747314,485
831.865662,473
831.984009,492
832.102356,524
832.220642,494
832.338928,516
832.457275,516
832.575623,524
832.693909,499
832.812134,526
832.930481,499
833.048828,503
833.167114,500
833.2854,500
833.403687,494
833.521973,490
833.640259,479
833.758545,496
833.876831,476
833.995056,500
834.113281,511
834.231628,488
834.349915,512
834.468201,483
834.586426,495
834.704651,507
834.822998,511
834.941162,509
835.059448,494
835.177673,517
835.295959,502
835.414246,511
835.53241,519
835.650635,515
835.768921,491
835.887146,514
836.005371,504
836.123596,501
836.241821,493
836.360046,487
836.478271,482
836.596497,495
836.714722,499
836.832886,488
836.95105,476
837.069336,465
837.1875,469
837.305725,490
837.423889,497
837.542053,500
837.660339,479
837.778503,479
837.896667,487
838.014832,490
838.132996,491
838.25116,493
838.369385,486
838.487488,496
838.605713,497
838.723877,515
838.84198,514
838.960205,505
839.078308,497
839.196472,512
839.314636,504
839.4328,501
839.550964,492
839.669067,519
839.787231,501
839.905396,510
840.023499,497
840.141602,507
840.259766,523
840.377869,535
840.495972,524
840.614136,526
840.732239,510
840.850342,529
840.968445,519
841.086548,549
841.204651,507
841.322754,517
841.440918,525
841.55896,544
841.677002,554
841.795166,526
841.913208,528
842.031311,545
842.149353,548
842.267456,556
842.385498,537
842.503601,539
842.621643,525
842.739746,544
842.857788,528
842.97583,555
843.093933,565
843.211975,544
843.330017,520
843.44812,514
843.566101,532
843.684204,532
843.802246,529
843.920227,532
844.038269,532
844.156311,556
844.274292,514
844.392395,546
844.510376,538
844.628357,532
844.74646,511
844.864441,533
844.982422,545
845.100403,523
845.218384,520
845.336426,529
845.454468,528
845.572449,528
845.69043,521
845.808411,517
845.926453,548
846.044373,529
846.162354,520
846.280396,545
846.398315,543
846.516296,526
846.634216,533
846.752197,532
846.870178,548
846.988098,518
847.106079,517
847.22406,515
847.34198,543
847.4599,557
847.577881,526
847.695801,549
847.813782,516
847.931641,525
848.049561,539
848.167603,553
848.285461,546
848.403381,511
848.521362,526
848.639221,545
848.75708,537
848.875,547
848.99292,523
849.110901,538
849.22876,517
849.34668,537
849.464539,515
849.582458,547
849.700317,531
849.818176,537
849.936096,530
850.053955,513
850.171875,537
850.289673,531
850.407593,517
850.525452,537
850.643311,512
850.761169,525
850.878967,507
850.996887,534
851.114746,491
851.232544,540
851.350403,532
851.468262,511
851.58606,522
851.703979,524
851.821777,509
851.939636,520
852.057434,514
852.175232,522
852.293091,521
852.410889,535
852.528687,532
852.646545,563
852.764343,559
852.88208,559
852.999939,513
853.117676,556
853.235535,529
853.353271,519
853.471069,519
853.588928,520
853.706604,524
853.824402,523
853.9422,520
854.059998,537
854.177734,524
854.295532,528
854.413269,531
854.531006,544
854.648804,537
854.766541,551
854.884277,530
855.002014,548
855.119751,530
855.237549,541
855.355225,523
855.473022,536
855.590698,540
855.708435,548
855.826172,530
855.943848,536
856.061646,527
856.179321,534
856.296997,530
856.414795,551
856.53241,555
856.650085,548
856.767822,540
856.885559,545
857.003174,529
857.120911,553
857.238586,531
857.356201,546
857.473938,549
857.591614,542
857.709351,542
857.826965,563
857.944641,536
858.062317,554
858.179993,555
858.297668,533
858.415283,550
858.532959,551
858.650574,553
858.768188,545
858.885803,552
859.003479,532
859.121094,546
859.23877,557
859.356384,520
859.473999,531
859.591675,513
859.709229,520
859.826843,526
859.944458,548
860.062012,510
860.179626,525
860.297302,525
860.414856,523
860.532471,535
860.650024,523
860.767639,527
860.885193,540
861.002808,519
861.120361,518
861.237976,513
861.35553,524
861.473022,531
861.590698,516
861.708191,501
861.825745,533
861.943298,540
862.060852,504
862.178406,511
862.295959,528
862.413513,493
862.531006,514
862.64856,493
862.766113,503
862.883667,497
863.00116,495
863.118713,482
863.236206,491
863.353699,502
863.471252,513
863.588745,491
863.706177,502
863.82373,532
863.941162,506
864.058716,512
864.176208,509
864.29364,494
864.411194,503
864.528687,492
864.646118,519
864.763611,513
864.881042,518
864.998535,511
865.116028,493
865.233459,490
865.350891,503
865.468384,497
865.585754,510
865.703308,522
865.820679,511
865.938171,488
866.055542,525
866.173035,494
866.290466,515
866.407837,492
866.52533,501
866.6427,505
866.760071,487
866.877563,519
866.994934,517
867.112305,508
867.229736,496
867.347107,519
867.464539,509
867.58197,481
867.699341,518
867.81665,514
867.934082,531
868.051453,499
868.168823,503
868.286194,519
868.403564,497
868.520935,507
868.638306,525
868.755676,508
868.872986,517
868.990295,518
869.107727,533
869.225037,532
869.342346,504
869.459717,533
869.577026,552
869.694336,540
869.811707,552
869.929016,523
870.046326,530
870.163635,514
870.280945,529
870.398254,535
870.515564,553
870.632812,518
870.750183,536
870.867432,535
870.984741,549
871.102051,552
871.219299,556
871.336609,542
871.453918,583
871.571106,561
871.688416,554
871.805664,559
871.922852,539
872.040222,557
872.157471,563
872.274719,537
872.391968,554
872.509155,541
872.626465,557
872.743652,553
872.860962,525
872.978149,535
873.095337,545
873.212646,533
873.329834,545
873.44696,549
873.564209,539
873.681396,530
873.798645,538
873.915894,526
874.03302,558
874.150208,543
874.267456,536
874.384583,542
874.501831,566
874.618958,569
874.736145,560
874.853333,561
874.970459,566
875.087646,545
875.204834,548
875.32196,522
875.439148,551
875.556274,558
875.673401,536
875.790527,533
875.907715,528
876.024841,526
876.141968,535
876.259094,528
876.376282,524
876.493347,500
876.610474,544
876.7276,499
876.844727,542
876.961853,516
877.078918,537
877.195984,537
877.313171,529
877.430237,530
877.547302,533
877.664368,534
877.781433,521
877.898499,532
878.015625,507
878.13269,506
878.249695,527
878.366821,503
878.483887,515
878.600952,533
878.717957,522
878.834961,500
878.952087,523
879.069092,503
879.186157,518
879.303162,513
879.420227,506
879.537231,521
879.654236,519
879.77124,489
879.888306,512
880.005249,528
880.122314,510
880.239319,497
880.356323,498
880.473328,492
880.590271,514
880.707275,486
880.824341,473
880.941284,493
881.058228,503
881.175232,499
881.292236,486
881.40918,477
881.526123,511
881.643066,467
881.760071,485
881.877014,516
881.993958,492
882.11084,489
882.227783,481
882.344727,501
882.46167,475
882.578613,494
882.695618,516
882.812439,487
882.929382,515
883.046326,484
883.163208,496
883.280151,488
883.397034,495
883.513916,492
883.630798,509
883.747742,511
883.864563,517
883.981506,518
884.098389,502
884.21521,516
884.332153,546
884.448975,519
884.565796,529
884.682678,519
884.7995,542
884.916443,550
885.033264,574
885.150085,579
885.266968,586
885.383789,603
885.500671,586
885.617493,603
885.734314,596
885.851196,591
885.967896,575
886.084717,595
886.201599,605
886.318359,577
886.435181,591
886.552002,564
886.668762,594
886.785645,572
886.902344,578
887.019165,563
887.135925,574
887.252747,571
887.369446,561
887.486267,547
887.603027,546
887.719788,555
887.836548,526
887.953247,536
888.070068,527
888.186829,502
888.303528,522
888.420288,491
888.536987,506
888.653687,486
888.770447,495
888.887146,505
889.003967,484
889.120667,485
889.237305,481
889.354065,481
889.470703,485
889.587463,454
889.704163,481
889.820862,465
889.937561,479
890.054199,464
890.170837,476
890.287598,480
890.404236,490
890.520874,490
890.637634,481
890.754211,468
890.87085,489
890.987549,474
891.104187,483
891.220886,462
891.337463,495
891.454102,477
891.57074,473
891.687378,483
891.804077,490
891.920654,478
892.037231,494
892.15387,478
892.270447,479
892.387085,493
892.503723,476
892.6203,475
892.736877,486
892.853516,496
892.970032,455
893.08667,495
893.203186,479
893.319763,473
893.43634,479
893.552917,483
893.669556,483
893.786011,479
893.902588,472
894.019165,467
894.135681,484
894.252197,486
894.368835,490
894.485291,487
894.601868,462
894.718384,482
894.8349,489
894.951355,480
895.067932,484
895.184448,469
895.300964,479
895.417419,480
895.533936,486
895.650452,461
895.766907,458
895.883423,474
895.999878,481
896.116333,479
896.232849,491
896.349304,460
896.465759,485
896.582214,473
896.698669,482
896.815125,469
896.931641,459
897.048035,447
897.164551,475
897.280884,483
897.397339,481
897.513794,453
897.630249,492
897.746582,486
897.863098,497
897.979431,485
898.095886,492
898.212341,464
898.328674,481
898.445129,483
898.561462,489
898.677795,476
898.794312,490
898.910645,477
899.026978,489
899.143433,481
899.259766,471
899.37616,485
899.492493,479
899.608765,494
899.725159,487
899.841553,474
899.957947,497
900.07428,487
900.190552,487
900.306946,485
900.423157,480
900.53949,479
900.655884,477
900.772156,488
900.888489,502
901.004822,465
901.121033,477
901.237366,484
901.353699,496
901.46991,508
901.586304,487
901.702515,494
901.818787,500
901.93512,511
902.051331,505
902.167603,520
902.283875,529
902.400085,517
902.516418,525
902.632629,531
902.74884,556
902.865112,551
902.981384,537
903.097595,540
903.213867,538
903.330017,524
903.446289,522
903.5625,540
903.67865,554
903.794922,520
903.911072,517
904.027344,501
904.143494,503
904.259705,512
904.375916,511
904.492065,517
904.608215,490
904.724426,498
904.840576,508
904.956726,481
905.072876,481
905.189087,489
905.305176,499
905.421387,479
905.537537,479
905.653687,469
905.769775,479
905.885925,475
906.002014,486
906.118164,477
906.234314,484
906.350403,484
906.466492,471
906.582642,443
906.69873,485
906.814758,470
906.930908,476
907.046936,453
907.163086,459
907.279175,452
907.395264,478
907.511353,457
907.62738,466
907.743408,480
907.859497,463
907.975525,483
908.091553,467
908.207703,480
908.32373,477
908.439758,478
908.555786,496
908.671814,473
908.787842,458
908.90387,483
909.019775,474
909.135864,470
909.251892,457
909.367859,458
909.483826,490
909.599854,479
909.715881,483
909.831848,445
909.947815,458
910.063782,484
910.179749,473
910.295776,472
910.411743,461
910.527649,455
910.643616,471
910.759583,476
910.875488,480
910.991455,493
911.107361,465
911.223267,484
911.339294,472
911.4552,469
911.571106,486
911.687073,489
911.802979,481
911.918823,486
912.034729,479
912.150635,474
912.266602,480
912.382446,451
912.498352,472
912.614197,474
912.730103,459
912.846008,468
792.44574,1159
792.56488,1220
792.68396,1186
792.80304,1168
792.92218,1078
793.041199,1017
793.160339,1001
793.279419,1013
793.398499,1012
793.517578,966
793.636658,946
793.755737,961
793.874817,960
793.993896,914
794.112976,917
794.232056,885
794.351074,870
794.470215,840
794.589233,815
794.708313,854
794.827393,864
794.946411,809
795.065552,823
795.18457,818
795.303589,811
795.422668,789
795.541687,764
795.660767,790
795.779846,766
795.898865,763
796.017883,751
796.136963,760
796.255981,741
796.375061,731
796.49408,747
796.613037,721
796.732117,732
796.851135,703
796.970154,717
797.089233,692
797.208191,703
797.327271,706
797.446228,702
797.565186,669
797.684265,683
797.803223,676
797.922241,675
798.04126,679
798.160278,681
798.279297,691
798.398315,647
798.517273,662
798.636292,666
798.75531,667
798.874268,664
798.993286,639
799.112244,664
799.231323,647
799.350281,650
799.469238,644
799.588257,648
799.707153,628
799.826111,628
799.945129,644
800.064087,617
800.183044,679
800.302063,651
800.421021,627
800.539978,625
800.658936,635
800.777893,619
800.896912,636
801.015747,609
801.134705,610
801.253723,618
801.37262,615
801.491638,616
801.610535,607
801.729492,601
801.84845,607
801.967407,592
802.086243,594
802.205261,587
802.324158,575
802.443115,585
802.562073,632
802.680969,600
802.799927,600
802.918762,599
803.037659,586
803.156677,603
803.275574,603
803.39447,587
803.513428,600
803.632263,559
803.751221,579
803.870117,586
803.989014,615
804.107971,579
804.226746,576
804.345642,593
804.4646,559
804.583496,586
804.702393,589
804.821228,558
804.940125,595
805.059021,587
805.177917,560
805.296814,567
805.415649,568
805.534546,575
805.653442,563
805.772278,579
805.891113,568
806.01001,591
806.128906,559
806.247742,563
806.366577,567
806.485413,567
806.604309,547
806.723145,562
806.84198,557
806.960876,584
807.079712,545
807.198486,561
807.317383,540
807.436218,549
807.554993,558
807.673889,555
807.792725,554
807.91156,576
808.030396,554
808.14917,541
808.268005,552
808.386841,549
808.505676,521
808.624451,566
808.743286,545
808.862122,556
808.980896,535
809.099731,566
809.218506,550
809.337341,554
809.456116,548
809.57489,571
809.693726,564
809.8125,544
809.931274,563
810.050049,551
810.168884,536
810.287659,569
810.406372,547
810.525269,529
810.643982,543
810.762756,543
810.881531,550
811.000305,545
811.11908,527
811.237854,540
811.356567,566
811.475403,560
811.594116,549
811.71283,573
811.831604,557
811.950378,551
812.069153,565
812.187927,557
812.30658,582
812.425415,571
812.544128,561
812.662781,553
812.781616,551
812.900269,564
813.019043,561
813.137756,550
813.256531,564
813.375244,552
813.493896,571
813.612671,571
813.731384,529
813.850037,533
813.96875,554
814.087524,558
814.206238,538
814.324951,538
814.443604,535
814.562256,529
814.68103,571
814.799683,558
814.918335,550
815.037109,553
815.155762,544
815.274475,541
815.393188,534
815.511841,543
815.630554,555
815.749146,526
815.867859,539
815.986572,543
816.105164,525
816.223877,549
816.342529,531
816.461182,550
816.579895,543
816.698486,558
816.817139,538
816.935791,547
817.054504,549
817.173096,546
817.291748,559
817.4104,547
817.529053,546
817.647644,522
817.766235,565
817.884949,555
818.00354,548
818.122192,538
818.240845,525
818.359436,523
818.478088,524
818.59668,544
818.715271,532
818.833923,523
818.952515,542
819.071106,543
819.189758,513
819.30835,505
819.426941,516
819.545532,500
819.664124,524
819.782715,512
819.901306,515
820.019897,514
820.138489,513
820.25708,523
820.375671,541
820.494202,507
820.612732,529
820.731384,531
820.849915,509
820.968506,520
821.087097,508
821.205627,507
821.324158,516
821.442749,492
821.561279,514
821.679871,504
821.798401,526
821.916931,513
822.035461,517
822.154053,517
822.272583,514
822.391174,517
822.509583,500
822.628174,512
822.746704,503
822.865234,519
822.983765,486
823.102295,498
823.220825,485
823.339294,509
823.457825,511
823.576355,508
823.694824,507
823.813354,509
823.931885,490
824.050354,502
824.168884,497
824.287354,512
824.405823,508
824.524353,522
824.642822,509
824.761353,500
824.879822,504
824.998291,522
825.116699,512
825.235291,470
825.353699,476
825.472168,523
825.590637,520
825.709106,512
825.827576,501
825.946045,497
826.064453,502
826.182983,491
826.301392,520
826.4198,498
826.53833,489
826.656738,481
826.775208,510
826.893677,500
827.012024,487
827.130493,506
827.248962,515
827.36731,518
827.485779,497
827.604248,512
827.722595,504
827.841064,502
827.959412,512
828.077942,512
828.196289,521
828.314636,498
828.433105,507
828.551514,495
828.669861,485
828.78833,479
828.906677,505
829.025085,503
829.143433,508
829.261841,480
829.38031,488
829.498657,486
829.617004,502
829.735413,472
829.85376,510
829.972107,506
830.090515,507
830.208862,486
830.327209,491
830.445557,488
830.563904,499
830.682312,487
830.800659,497
830.919006,509
831.037354,503
831.155701,498
831.274048,505
831.392395,517
831.51062,500
831.629028,494
831.747314,491
831.865662,497
831.984009,491
832.102356,497
832.220642,503
832.338928,503
832.457275,487
832.575623,497
832.693909,495
832.812134,498
832.930481,511
833.048828,483
833.167114,505
833.2854,495
833.403687,493
833.521973,510
833.640259,504
833.758545,491
833.876831,502
833.995056,502
834.113281,511
834.231628,503
834.349915,501
834.468201,504
834.586426,517
834.704651,500
834.822998,490
834.941162,526
835.059448,510
835.177673,505
835.295959,498
835.414246,506
835.53241,492
835.650635,501
835.768921,498
835.887146,509
836.005371,513
836.123596,508
836.241821,491
836.360046,519
836.478271,485
836.596497,482
836.714722,494
836.832886,481
836.95105,480
837.069336,487
837.1875,478
837.305725,478
837.423889,511
837.542053,497
837.660339,492
837.778503,466
837.896667,495
838.014832,489
838.132996,506
838.25116,492
838.369385,493
838.487488,506
838.605713,509
838.723877,500
838.84198,484
838.960205,514
839.078308,508
839.196472,503
839.314636,517
839.4328,501
839.550964,519
839.669067,517
839.787231,535
839.905396,524
840.023499,530
840.141602,548
840.259766,554
840.377869,523
840.495972,548
840.614136,541
840.732239,518
840.850342,524
840.968445,526
841.086548,524
841.204651,548
841.322754,550
841.440918,533
841.55896,545
841.677002,543
841.795166,557
841.913208,532
842.031311,551
842.149353,559
842.267456,533
842.385498,537
842.503601,536
842.621643,527
842.739746,529
842.857788,541
842.97583,534
843.093933,549
843.211975,513
843.330017,558
843.44812,534
843.566101,542
843.684204,538
843.802246,557
843.920227,549
844.038269,558
844.156311,524
844.274292,551
844.392395,539
844.510376,528
844.628357,521
844.74646,548
844.864441,540
844.982422,523
845.100403,522
845.218384,516
845.336426,522
845.454468,535
845.572449,529
845.69043,513
845.808411,534
845.926453,517
846.044373,532
846.162354,542
846.280396,551
846.398315,534
846.516296,536
846.634216,532
846.752197,536
846.870178,531
846.988098,534
847.106079,522
847.22406,524
847.34198,562
847.4599,543
847.577881,528
847.695801,526
847.813782,531
847.931641,544
848.049561,522
848.167603,533
848.285461,538
848.403381,530
848.521362,546
848.639221,525
848.75708,549
848.875,534
848.99292,546
849.110901,540
849.22876,533
849.34668,543
849.464539,541
849.582458,512
849.700317,562
849.818176,515
849.936096,520
850.053955,537
850.171875,550
850.289673,543
850.407593,547
850.525452,532
850.643311,519
850.761169,525
850.878967,546
850.996887,542
851.114746,528
851.232544,519
851.350403,536
851.468262,544
851.58606,547
851.703979,546
851.821777,528
851.939636,518
852.057434,518
852.175232,534
852.293091,519
852.410889,532
852.528687,563
852.646545,562
852.764343,574
852.88208,556
852.999939,550
853.117676,549
853.235535,543
853.353271,542
853.471069,533
853.588928,516
853.706604,525
853.824402,506
853.9422,516
854.059998,523
854.177734,523
854.295532,527
854.413269,544
854.531006,507
854.648804,548
854.766541,544
854.884277,532
855.002014,551
855.119751,533
855.237549,517
855.355225,539
855.473022,541
855.590698,521
855.708435,517
855.826172,535
855.943848,533
856.061646,542
856.179321,526
856.296997,533
856.414795,538
856.53241,527
856.650085,554
856.767822,550
856.885559,564
857.003174,574
857.120911,539
857.238586,565
857.356201,546
857.473938,546
857.591614,534
857.709351,531
857.826965,546
857.944641,545
858.062317,537
858.179993,534
858.297668,532
858.415283,552
858.532959,545
858.650574,545
858.768188,533
858.885803,565
859.003479,528
859.121094,532
859.23877,544
859.356384,541
859.473999,527
859.591675,536
859.709229,555
859.826843,528
859.944458,523
860.062012,537
860.179626,531
860.297302,534
860.414856,516
860.532471,553
860.650024,525
860.767639,511
860.885193,526
861.002808,531
861.120361,528
861.237976,524
861.35553,532
861.473022,528
861.590698,512
861.708191,525
861.825745,536
861.943298,532
862.060852,522
862.178406,520
862.295959,501
862.413513,494
862.531006,504
862.64856,529
862.766113,493
862.883667,508
863.00116,475
863.118713,500
863.236206,519
863.353699,503
863.471252,503
863.588745,507
863.706177,499
863.82373,531
863.941162,503
864.058716,517
864.176208,507
864.29364,518
864.411194,492
864.528687,497
864.646118,504
864.763611,506
864.881042,500
864.998535,503
865.116028,509
865.233459,512
865.350891,513
865.468384,491
865.585754,492
865.703308,498
865.820679,495
865.938171,507
866.055542,500
866.173035,518
866.290466,483
866.407837,489
866.52533,505
866.6427,492
866.760071,497
866.877563,500
866.994934,495
867.112305,504
867.229736,492
867.347107,514
867.464539,497
867.58197,508
867.699341,540
867.81665,517
867.934082,518
868.051453,504
868.168823,512
868.286194,532
868.403564,488
868.520935,520
868.638306,494
868.755676,518
868.872986,511
868.990295,515
869.107727,513
869.225037,514
869.342346,538
869.459717,529
869.577026,510
869.694336,522
869.811707,515
869.929016,552
870.046326,548
870.163635,544
870.280945,528
870.398254,541
870.515564,557
870.632812,545
870.750183,529
870.867432,543
870.984741,576
871.102051,552
871.219299,552
871.336609,546
871.453918,553
871.571106,554
871.688416,537
871.805664,572
871.922852,520
872.040222,559
872.157471,535
872.274719,567
872.391968,557
872.509155,564
872.626465,539
872.743652,570
872.860962,564
872.978149,571
873.095337,554
873.212646,546
873.329834,557
873.44696,548
873.564209,548
873.681396,532
873.798645,551
873.915894,537
874.03302,521
874.150208,545
874.267456,548
874.384583,563
874.501831,559
874.618958,554
874.736145,542
874.853333,554
874.970459,557
875.087646,565
875.204834,577
875.32196,582
875.439148,546
875.556274,542
875.673401,541
875.790527,546
875.907715,523
876.024841,533
876.141968,522
876.259094,543
876.376282,521
876.493347,540
876.610474,535
876.7276,531
876.844727,555
876.961853,546
877.078918,546
877.195984,527
877.313171,534
877.430237,531
877.547302,531
877.664368,527
877.781433,513
877.898499,534
878.015625,509
878.13269,543
878.249695,534
878.366821,512
878.483887,534
878.600952,514
878.717957,518
878.834961,499
878.952087,506
879.069092,516
879.186157,517
879.303162,505
879.420227,521
879.537231,510
879.654236,513
879.77124,517
879.888306,496
880.005249,498
880.122314,475
880.239319,519
880.356323,505
880.473328,488
880.590271,499
880.707275,517
880.824341,515
880.941284,481
881.058228,488
881.175232,523
881.292236,510
881.40918,505
881.526123,502
881.643066,510
881.760071,492
881.877014,508
881.993958,494
882.11084,499
882.227783,489
882.344727,503
882.46167,525
882.578613,503
882.695618,495
882.812439,499
882.929382,504
883.046326,515
883.163208,506
883.280151,512
883.397034,502
883.513916,504
883.630798,505
883.747742,498
883.864563,534
883.981506,488
884.098389,509
884.21521,508
884.332153,535
884.448975,528
884.565796,534
884.682678,555
884.7995,531
884.916443,562
885.033264,564
885.150085,581
885.266968,579
885.383789,594
885.500671,578
885.617493,593
885.734314,621
885.851196,589
885.967896,579
886.084717,595
886.201599,618
886.318359,551
886.435181,593
886.552002,590
886.668762,602
886.785645,581
886.902344,587
887.019165,570
887.135925,555
887.252747,597
887.369446,554
887.486267,573
887.603027,548
887.719788,521
887.836548,528
887.953247,555
888.070068,531
888.186829,525
888.303528,498
888.420288,509
888.536987,510
888.653687,494
888.770447,482
888.887146,495
889.003967,497
889.120667,467
889.237305,495
889.354065,492
889.470703,469
889.587463,465
889.704163,489
889.820862,481
889.937561,477
890.054199,474
890.170837,475
890.287598,483
890.404236,490
890.520874,492
890.637634,485
890.754211,471
890.87085,470
890.987549,466
891.104187,470
891.220886,474
891.337463,488
891.454102,474
891.57074,491
891.687378,501
891.804077,463
891.920654,470
892.037231,482
892.15387,499
892.270447,467
892.387085,488
892.503723,469
892.6203,464
892.736877,484
892.853516,469
892.970032,464
893.08667,476
893.203186,474
893.319763,496
893.43634,470
893.552917,473
893.669556,462
893.786011,495
893.902588,486
894.019165,465
894.135681,475
894.252197,488
894.368835,481
894.485291,510
894.601868,472
894.718384,479
894.8349,481
894.951355,494
895.067932,478
895.184448,499
895.300964,489
895.417419,477
895.533936,473
895.650452,495
895.766907,473
895.883423,467
895.999878,484
896.116333,487
896.232849,466
896.349304,480
896.465759,465
896.582214,486
896.698669,475
896.815125,505
896.931641,488
897.048035,460
897.164551,485
897.280884,483
897.397339,483
897.513794,459
897.630249,491
897.746582,475
897.863098,473
897.979431,471
898.095886,473
898.212341,467
898.328674,485
898.445129,473
898.561462,491
898.677795,502
898.794312,500
898.910645,495
899.026978,495
899.143433,485
899.259766,473
899.37616,504
899.492493,493
899.608765,493
899.725159,493
899.841553,499
899.957947,485
900.07428,484
900.190552,502
900.306946,479
900.423157,485
900.53949,470
900.655884,492
900.772156,468
900.888489,492
901.004822,493
901.121033,488
901.237366,501
901.353699,509
901.46991,506
901.586304,474
901.702515,511
901.818787,515
901.93512,511
902.051331,524
902.167603,495
902.283875,521
902.400085,539
902.516418,533
902.632629,520
902.74884,567
902.865112,542
902.981384,525
903.097595,536
903.213867,541
903.330017,532
903.446289,513
903.5625,552
903.67865,525
903.794922,532
903.911072,516
904.027344,533
904.143494,527
904.259705,500
904.375916,527
904.492065,527
904.608215,496
904.724426,493
904.840576,503
904.956726,498
905.072876,480
905.189087,489
905.305176,497
905.421387,472
905.537537,483
905.653687,489
905.769775,490
905.885925,491
906.002014,478
906.118164,485
906.234314,493
906.350403,469
906.466492,495
906.582642,491
906.69873,469
906.814758,471
906.930908,470
907.046936,462
907.163086,466
907.279175,476
907.395264,455
907.511353,471
907.62738,459
907.743408,459
907.859497,471
907.975525,482
908.091553,465
908.207703,467
908.32373,478
908.439758,486
908.555786,463
908.671814,488
908.787842,484
908.90387,473
909.019775,485
909.135864,482
909.251892,468
909.367859,481
909.483826,467
909.599854,480
909.715881,483
909.831848,499
909.947815,478
910.063782,460
910.179749,480
910.295776,477
910.411743,490
910.527649,483
910.643616,482
910.759583,471
910.875488,468
910.991455,475
911.107361,490
911.223267,458
911.339294,470
911.4552,483
911.571106,484
911.687073,493
911.802979,460
911.918823,465
912.034729,476
912.150635,481
912.266602,491
912.382446,463
912.498352,479
912.614197,460
912.730103,469
912.846008,470
792.44574,1206
792.56488,1180
792.68396,1219
792.80304,1159
792.92218,1101
793.041199,1030
793.160339,1037
793.279419,998
793.398499,996
793.517578,977
793.636658,947
793.755737,961
793.874817,955
793.993896,924
794.112976,898
794.232056,884
794.351074,885
794.470215,898
794.589233,869
794.708313,854
794.827393,865
794.946411,794
795.065552,838
795.18457,817
795.303589,842
795.422668,814
795.541687,778
795.660767,777
795.779846,772
795.898865,754
796.017883,751
796.136963,759
796.255981,747
796.375061,739
796.49408,729
796.613037,718
796.732117,707
796.851135,713
796.970154,714
797.089233,688
797.208191,719
797.327271,676
797.446228,706
797.565186,672
797.684265,708
797.803223,692
797.922241,684
798.04126,684
798.160278,692
798.279297,644
798.398315,643
798.517273,668
798.636292,668
798.75531,630
798.874268,663
798.993286,661
799.112244,661
799.231323,645
799.350281,646
799.469238,629
799.588257,653
799.707153,631
799.826111,638
799.945129,643
800.064087,644
800.183044,626
800.302063,621
800.421021,637
800.539978,637
800.658936,626
800.777893,617
800.896912,621
801.015747,594
801.134705,615
801.253723,630
801.37262,583
801.491638,624
801.610535,598
801.729492,627
801.84845,602
801.967407,613
802.086243,601
802.205261,635
802.324158,594
802.443115,595
802.562073,590
802.680969,586
802.799927,590
802.918762,591
803.037659,601
803.156677,595
803.275574,610
803.39447,565
803.513428,580
803.632263,592
803.751221,597
803.870117,572
803.989014,567
804.107971,566
804.226746,555
804.345642,587
804.4646,560
804.583496,580
804.702393,558
804.821228,578
804.940125,554
805.059021,577
805.177917,570
805.296814,583
805.415649,547
805.534546,574
805.653442,575
805.772278,568
805.891113,552
806.01001,575
806.128906,567
806.247742,560
806.366577,560
806.485413,573
806.604309,542
806.723145,534
806.84198,565
806.960876,559
807.079712,579
807.198486,561
807.317383,567
807.436218,553
807.554993,555
807.673889,562
807.792725,551
807.91156,569
808.030396,562
808.14917,555
808.268005,534
808.386841,551
808.505676,559
808.624451,557
808.743286,550
808.862122,562
808.980896,546
809.099731,541
809.218506,536
809.337341,542
809.456116,550
809.57489,554
809.693726,558
809.8125,553
809.931274,563
810.050049,558
810.168884,540
810.287659,526
810.406372,571
810.525269,539
810.643982,524
810.762756,537
810.881531,536
811.000305,559
811.11908,556
811.237854,550
811.356567,553
811.475403,557
811.594116,547
811.71283,541
811.831604,555
811.950378,580
812.069153,557
812.187927,564
812.30658,547
812.425415,545
812.544128,564
812.662781,570
812.781616,545
812.900269,568
813.019043,553
813.137756,553
813.256531,552
813.375244,532
813.493896,531
813.612671,555
813.731384,564
813.850037,547
813.96875,543
814.087524,543
814.206238,540
814.324951,543
814.443604,543
814.562256,532
814.68103,545
814.799683,546
814.918335,557
815.037109,526
815.155762,544
815.274475,540
815.393188,544
815.511841,548
815.630554,558
815.749146,547
815.867859,539
815.986572,529
816.105164,541
816.223877,547
816.342529,536
816.461182,561
816.579895,550
816.698486,539
816.817139,554
816.935791,558
817.054504,560
817.173096,563
817.291748,537
817.4104,565
817.529053,497
817.647644,538
817.766235,548
817.884949,529
818.00354,526
818.122192,539
818.240845,523
818.359436,535
818.478088,533
818.59668,530
818.715271,525
818.833923,534
818.952515,503
819.071106,522
819.189758,523
819.30835,511
819.426941,531
819.545532,509
819.664124,504
819.782715,524
819.901306,485
820.019897,536
820.138489,497
820.25708,528
820.375671,504
820.494202,530
820.612732,509
820.731384,510
820.849915,526
820.968506,509
821.087097,504
821.205627,504
821.324158,523
821.442749,516
821.561279,498
821.679871,526
821.798401,514
821.916931,520
822.035461,500
822.154053,504
822.272583,504
822.391174,489
822.509583,493
822.628174,517
822.746704,517
822.865234,514
822.983765,487
823.102295,513
823.220825,532
823.339294,506
823.457825,503
823.576355,505
823.694824,501
823.813354,507
823.931885,507
824.050354,495
824.168884,506
824.287354,523
824.405823,512
824.524353,511
824.642822,497
824.761353,507
824.879822,499
824.998291,515
825.116699,510
825.235291,497
825.353699,516
825.472168,494
825.590637,502
825.709106,509
825.827576,501
825.946045,511
826.064453,461
826.182983,515
826.301392,500
826.4198,493
826.53833,492
826.656738,485
826.775208,480
826.893677,485
827.012024,501
827.130493,513
827.248962,479
827.36731,506
827.485779,507
827.604248,496
827.722595,498
827.841064,510
827.959412,496
828.077942,497
828.196289,496
828.314636,506
828.433105,507
828.551514,503
828.669861,519
828.78833,488
828.906677,485
829.025085,501
829.143433,495
829.261841,510
829.38031,476
829.498657,498
829.617004,497
829.735413,502
829.85376,502
829.972107,502
830.090515,504
830.208862,485
830.327209,501
830.445557,502
830.563904,494
830.682312,495
830.800659,480
830.919006,493
831.037354,487
831.155701,515
831.274048,501
831.392395,507
831.51062,495
831.629028,498
831.747314,488
831.865662,499
831.984009,482
832.102356,489
832.220642,488
832.338928,518
832.457275,490
832.575623,481
832.693909,499
832.812134,500
832.930481,481
833.048828,483
833.167114,503
833.2854,494
833.403687,497
833.521973,496
833.640259,478
833.758545,512
833.876831,492
833.995056,495
834.113281,485
834.231628,520
834.349915,485
834.468201,497
834.586426,497
834.704651,479
834.822998,496
834.941162,504
835.059448,478
835.177673,517
835.295959,495
835.414246,503
835.53241,511
835.650635,504
835.768921,509
835.887146,488
836.005371,524
836.123596,494
836.241821,510
836.360046,505
836.478271,506
836.596497,499
836.714722,500
836.832886,496
836.95105,505
837.069336,488
837.1875,506
837.305725,501
837.423889,492
837.542053,487
837.660339,488
837.778503,497
837.896667,483
838.014832,522
838.132996,491
838.25116,495
838.369385,494
838.487488,506
838.605713,503
838.723877,516
838.84198,495
838.960205,531
839.078308,505
839.196472,492
839.314636,510
839.4328,518
839.550964,509
839.669067,489
839.787231,513
839.905396,503
840.023499,522
840.141602,533
840.259766,523
840.377869,542
840.495972,521
840.614136,530
840.732239,514
840.850342,507
840.968445,533
841.086548,564
841.204651,516
841.322754,527
841.440918,528
841.55896,547
841.677002,535
841.795166,561
841.913208,563
842.031311,548
842.149353,539
842.267456,556
842.385498,523
842.503601,532
842.621643,535
842.739746,517
842.857788,526
842.97583,528
843.093933,534
843.211975,557
843.330017,537
843.44812,544
843.566101,519
843.684204,551
843.802246,526
843.920227,541
844.038269,548
844.156311,557
844.274292,546
844.392395,537
844.510376,545
844.628357,535
844.74646,539
844.864441,530
844.982422,511
845.100403,528
845.218384,517
845.336426,537
845.454468,539
845.572449,519
845.69043,515
845.808411,520
845.926453,515
846.044373,502
846.162354,503
846.280396,555
846.398315,500
846.516296,535
846.634216,533
846.752197,530
846.870178,529
846.988098,543
847.106079,531
847.22406,501
847.34198,523
847.4599,526
847.577881,530
847.695801,526
847.813782,514
847.931641,519
848.049561,551
848.167603,542
848.285461,540
848.403381,530
848.521362,540
848.639221,543
848.75708,546
848.875,547
848.99292,529
849.110901,526
849.22876,531
849.34668,540
849.464539,556
849.582458,536
849.700317,526
849.818176,529
849.936096,518
850.053955,526
850.171875,509
850.289673,533
850.407593,520
850.525452,521
850.643311,524
850.761169,540
850.878967,516
850.996887,539
851.114746,527
851.232544,526
851.350403,521
851.468262,544
851.58606,514
851.703979,525
851.821777,537
851.939636,537
852.057434,530
852.175232,550
852.293091,542
852.410889,547
852.528687,550
852.646545,577
852.764343,564
852.88208,553
852.999939,565
853.117676,539
853.235535,516
853.353271,521
853.471069,529
853.588928,511
853.706604,539
853.824402,526
853.9422,526
854.059998,523
854.177734,504
854.295532,542
854.413269,509
854.531006,549
854.648804,536
854.766541,524
854.884277,534
855.002014,543
855.119751,534
855.237549,513
855.355225,541
855.473022,530
855.590698,534
855.708435,521
855.826172,508
855.943848,544
856.061646,536
856.179321,534
856.296997,545
856.414795,536
856.53241,544
856.650085,539
856.767822,563
856.885559,544
857.003174,538
857.120911,524
857.238586,539
857.356201,542
857.473938,542
857.591614,537
857.709351,528
857.826965,545
857.944641,540
858.062317,552
858.179993,533
858.297668,560
858.415283,545
858.532959,552
858.650574,541
858.768188,570
858.885803,547
859.003479,542
859.121094,553
859.23877,539
859.356384,517
859.473999,551
859.591675,520
859.709229,532
859.826843,526
859.944458,538
860.062012,529
860.179626,498
860.297302,515
860.414856,538
860.532471,520
860.650024,530
860.767639,530
860.885193,525
861.002808,509
861.120361,540
861.237976,522
861.35553,526
861.473022,520
861.590698,532
861.708191,540
861.825745,536
861.943298,518
862.060852,509
862.178406,535
862.295959,509
862.413513,515
862.531006,498
862.64856,516
862.766113,482
862.883667,498
863.00116,491
863.118713,511
863.236206,485
863.353699,500
863.471252,501
863.588745,512
863.706177,516
863.82373,510
863.941162,540
864.058716,491
864.176208,509
864.29364,496
864.411194,519
864.528687,509
864.646118,497
864.763611,494
864.881042,493
864.998535,510
865.116028,522
865.233459,496
865.350891,485
865.468384,516
865.585754,491
865.703308,493
865.820679,499
865.938171,502
866.055542,507
866.173035,513
866.290466,514
866.407837,500
866.52533,521
866.6427,509
866.760071,499
866.877563,499
866.994934,507
867.112305,510
867.229736,509
867.347107,517
867.464539,529
867.58197,521
867.699341,507
867.81665,510
867.934082,520
868.051453,521
868.168823,532
868.286194,515
868.403564,500
868.520935,530
868.638306,519
868.755676,520
868.872986,538
868.990295,506
869.107727,520
869.225037,510
869.342346,519
869.459717,520
869.577026,526
869.694336,520
869.811707,560
869.929016,526
870.046326,538
870.163635,544
870.280945,551
870.398254,549
870.515564,544
870.632812,525
870.750183,562
870.867432,543
870.984741,546
871.102051,541
871.219299,550
871.336609,556
871.453918,539
871.571106,553
871.688416,556
871.805664,533
871.922852,583
872.040222,534
872.157471,574
872.274719,520
872.391968,585
872.509155,557
872.626465,561
872.743652,557
872.860962,549
872.978149,534
873.095337,563
873.212646,553
873.329834,549
873.44696,521
873.564209,541
873.681396,543
873.798645,538
873.915894,545
874.03302,523
874.150208,543
874.267456,540
874.384583,559
874.501831,579
874.618958,557
874.736145,583
874.853333,541
874.970459,553
875.087646,549
875.204834,544
875.32196,523
875.439148,545
875.556274,525
875.673401,568
875.790527,521
875.907715,545
876.024841,542
876.141968,547
876.259094,524
876.376282,523
876.493347,538
876.610474,538
876.7276,535
876.844727,533
876.961853,525
877.078918,511
877.195984,527
877.313171,528
877.430237,548
877.547302,552
877.664368,521
877.781433,516
877.898499,526
878.015625,527
878.13269,510
878.249695,534
878.366821,516
878.483887,505
878.600952,520
878.717957,504
878.834961,488
878.952087,519
879.069092,497
879.186157,526
879.303162,484
879.420227,507
879.537231,514
879.654236,495
879.77124,527
879.888306,507
880.005249,514
880.122314,495
880.239319,489
880.356323,508
880.473328,512
880.590271,491
880.707275,509
880.824341,525
880.941284,506
881.058228,482
881.175232,503
881.292236,495
881.40918,479
881.526123,497
881.643066,478
881.760071,503
881.877014,515
881.993958,518
882.11084,481
882.227783,518
882.344727,505
882.46167,489
882.578613,491
882.695618,495
882.812439,503
882.929382,514
883.046326,517
883.163208,495
883.280151,491
883.397034,493
883.513916,496
883.630798,530
883.747742,480
883.864563,500
883.981506,505
884.098389,516
884.21521,499
884.332153,506
884.448975,528
884.565796,516
884.682678,524
884.7995,535
884.916443,560
885.033264,569
885.150085,563
885.266968,594
885.383789,576
885.500671,592
885.617493,584
885.734314,609
885.851196,567
885.967896,597
886.084717,591
886.201599,583
886.318359,607
886.435181,592
886.552002,578
886.668762,591
886.785645,592
886.902344,589
887.019165,577
887.135925,574
887.252747,552
887.369446,549
887.486267,548
887.603027,547
887.719788,554
887.836548,541
887.953247,520
888.070068,523
888.186829,532
888.303528,532
888.420288,522
888.536987,511
888.653687,497
888.770447,479
888.887146,485
889.003967,488
889.120667,503
889.237305,495
889.354065,488
889.470703,515
889.587463,506
889.704163,516
889.820862,471
889.937561,486
890.054199,483
890.170837,462
890.287598,475
890.404236,457
890.520874,464
890.637634,494
890.754211,461
890.87085,507
890.987549,465
891.104187,487
891.220886,490
891.337463,480
891.454102,466
891.57074,492
891.687378,480
891.804077,478
891.920654,483
892.037231,473
892.15387,493
892.270447,458
892.387085,460
892.503723,473
892.6203,490
892.736877,496
892.853516,490
892.970032,472
893.08667,484
893.203186,468
893.319763,471
893.43634,496
893.552917,477
893.669556,484
893.786011,488
893.902588,472
894.019165,481
894.135681,489
894.252197,473
894.368835,495
894.485291,472
894.601868,490
894.718384,479
894.8349,498
894.951355,479
895.067932,491
895.184448,452
895.300964,483
895.417419,483
895.533936,486
895.650452,468
895.766907,471
895.883423,466
895.999878,482
896.116333,480
896.232849,476
896.349304,457
896.465759,490
896.582214,476
896.698669,473
896.815125,480
896.931641,470
897.048035,488
897.164551,485
897.280884,484
897.397339,490
897.513794,467
897.630249,490
897.746582,474
897.863098,487
897.979431,477
898.095886,477
898.212341,497
898.328674,487
898.445129,492
898.561462,491
898.677795,459
898.794312,483
898.910645,481
899.026978,483
899.143433,493
899.259766,494
899.37616,473
899.492493,485
899.608765,488
899.725159,477
899.841553,487
899.957947,468
900.07428,463
900.190552,495
900.306946,479
900.423157,489
900.53949,495
900.655884,490
900.772156,485
900.888489,482
901.004822,481
901.121033,486
901.237366,496
901.353699,472
901.46991,488
901.586304,518
901.702515,495
901.818787,524
901.93512,497
902.051331,499
902.167603,499
902.283875,521
902.400085,541
902.516418,562
902.632629,540
902.74884,536
902.865112,552
902.981384,560
903.097595,549
903.213867,546
903.330017,531
903.446289,541
903.5625,502
903.67865,543
903.794922,529
903.911072,528
904.027344,527
904.143494,514
904.259705,504
904.375916,499
904.492065,478
904.608215,503
904.724426,487
904.840576,519
904.956726,502
905.072876,503
905.189087,470
905.305176,488
905.421387,492
905.537537,497
905.653687,488
905.769775,485
905.885925,476
906.002014,471
906.118164,495
906.234314,482
906.350403,462
906.466492,476
906.582642,464
906.69873,475
906.814758,475
906.930908,485
907.046936,480
907.163086,485
907.279175,480
907.395264,488
907.511353,475
907.62738,474
907.743408,475
907.859497,470
907.975525,474
908.091553,502
908.207703,457
908.32373,482
908.439758,443
908.555786,474
908.671814,471
908.787842,466
908.90387,457
909.019775,476
909.135864,482
909.251892,476
909.367859,477
909.483826,468
909.599854,449
909.715881,471
909.831848,466
909.947815,469
910.063782,482
910.179749,485
910.295776,482
910.411743,480
910.527649,478
910.643616,478
910.759583,484
910.875488,476
910.991455,462
911.107361,471
911.223267,458
911.339294,473
911.4552,474
911.571106,459
911.687073,462
911.802979,477
911.918823,471
912.034729,484
912.150635,493
912.266602,464
912.382446,481
912.498352,457
912.614197,459
912.730103,453
912.846008,469
