792.44574,946
792.56488,965
792.68396,977
792.80304,956
792.92218,868
793.041199,863
793.160339,845
793.279419,863
793.398499,852
793.517578,806
793.636658,782
793.755737,802
793.874817,794
793.993896,787
794.112976,766
794.232056,751
794.351074,742
794.470215,764
794.589233,760
794.708313,748
794.827393,716
794.946411,727
795.065552,726
795.18457,751
795.303589,716
795.422668,705
795.541687,706
795.660767,699
795.779846,665
795.898865,696
796.017883,661
796.136963,664
796.255981,686
796.375061,648
796.49408,684
796.613037,671
796.732117,663
796.851135,646
796.970154,655
797.089233,646
797.208191,653
797.327271,643
797.446228,638
797.565186,642
797.684265,648
797.803223,619
797.922241,635
798.04126,636
798.160278,644
798.279297,592
798.398315,624
798.517273,635
798.636292,650
798.75531,614
798.874268,608
798.993286,618
799.112244,590
799.231323,613
799.350281,610
799.469238,599
799.588257,623
799.707153,615
799.826111,594
799.945129,594
800.064087,609
800.183044,612
800.302063,617
800.421021,581
800.539978,581
800.658936,574
800.777893,622
800.896912,595
801.015747,589
801.134705,597
801.253723,594
801.37262,579
801.491638,579
801.610535,567
801.729492,573
801.84845,585
801.967407,583
802.086243,580
802.205261,584
802.324158,600
802.443115,586
802.562073,579
802.680969,583
802.799927,587
802.918762,566
803.037659,573
803.156677,593
803.275574,566
803.39447,601
803.513428,574
803.632263,565
803.751221,555
803.870117,560
803.989014,558
804.107971,548
804.226746,553
804.345642,577
804.4646,585
804.583496,590
804.702393,553
804.821228,557
804.940125,548
805.059021,577
805.177917,557
805.296814,548
805.415649,579
805.534546,572
805.653442,579
805.772278,592
805.891113,568
806.01001,553
806.128906,577
806.247742,573
806.366577,558
806.485413,560
806.604309,579
806.723145,562
806.84198,594
806.960876,576
807.079712,576
807.198486,558
807.317383,568
807.436218,560
807.554993,561
807.673889,558
807.792725,542
807.91156,551
808.030396,568
808.14917,571
808.268005,558
808.386841,536
808.505676,562
808.624451,588
808.743286,540
808.862122,562
808.980896,555
809.099731,554
809.218506,562
809.337341,550
809.456116,554
809.57489,576
809.693726,554
809.8125,564
809.931274,551
810.050049,581
810.168884,537
810.287659,530
810.406372,566
810.525269,548
810.643982,550
810.762756,553
810.881531,550
811.000305,562
811.11908,558
811.237854,566
811.356567,551
811.475403,559
811.594116,551
811.71283,564
811.831604,568
811.950378,552
812.069153,574
812.187927,576
812.30658,549
812.425415,553
812.544128,560
812.662781,557
812.781616,556
812.900269,570
813.019043,556
813.137756,570
813.256531,543
813.375244,561
813.493896,555
813.612671,581
813.731384,549
813.850037,547
813.96875,551
814.087524,555
814.206238,566
814.324951,538
814.443604,555
814.562256,535
814.68103,560
814.799683,534
814.918335,563
815.037109,554
815.155762,558
815.274475,543
815.393188,542
815.511841,550
815.630554,544
815.749146,566
815.867859,534
815.986572,538
816.105164,570
816.223877,551
816.342529,564
816.461182,525
816.579895,560
816.698486,564
816.817139,547
816.935791,581
817.054504,575
817.173096,562
817.291748,529
817.4104,540
817.529053,546
817.647644,545
817.766235,562
817.884949,535
818.00354,549
818.122192,548
818.240845,521
818.359436,531
818.478088,528
818.59668,510
818.715271,509
818.833923,535
818.952515,537
819.071106,502
819.189758,540
819.30835,507
819.426941,527
819.545532,504
819.664124,514
819.782715,522
819.901306,498
820.019897,497
820.138489,520
820.25708,493
820.375671,515
820.494202,514
820.612732,533
820.731384,497
820.849915,505
820.968506,517
821.087097,516
821.205627,495
821.324158,511
821.442749,515
821.561279,487
821.679871,518
821.798401,472
821.916931,501
822.035461,507
822.154053,514
822.272583,514
822.391174,512
822.509583,502
822.628174,516
822.746704,526
822.865234,493
822.983765,498
823.102295,491
823.220825,496
823.339294,492
823.457825,504
823.576355,483
823.694824,510
823.813354,504
823.931885,487
824.050354,504
824.168884,493
824.287354,511
824.405823,495
824.524353,485
824.642822,497
824.761353,504
824.879822,503
824.998291,509
825.116699,500
825.235291,481
825.353699,488
825.472168,490
825.590637,490
825.709106,488
825.827576,498
825.946045,476
826.064453,498
826.182983,477
826.301392,488
826.4198,485
826.53833,482
826.656738,478
826.775208,485
826.893677,486
827.012024,481
827.130493,499
827.248962,513
827.36731,469
827.485779,495
827.604248,480
827.722595,509
827.841064,479
827.959412,489
828.077942,474
828.196289,469
828.314636,470
828.433105,477
828.551514,496
828.669861,479
828.78833,476
828.906677,467
829.025085,484
829.143433,485
829.261841,475
829.38031,459
829.498657,475
829.617004,501
829.735413,480
829.85376,477
829.972107,475
830.090515,476
830.208862,469
830.327209,464
830.445557,474
830.563904,472
830.682312,470
830.800659,483
830.919006,480
831.037354,500
831.155701,483
831.274048,501
831.392395,495
831.51062,488
831.629028,478
831.747314,485
831.865662,488
831.984009,484
832.102356,487
832.220642,493
832.338928,486
832.457275,475
832.575623,490
832.693909,494
832.812134,489
832.930481,470
833.048828,466
833.167114,474
833.2854,493
833.403687,484
833.521973,481
833.640259,489
833.758545,472
833.876831,485
833.995056,497
834.113281,474
834.231628,480
834.349915,475
834.468201,474
834.586426,513
834.704651,464
834.822998,499
834.941162,506
835.059448,481
835.177673,489
835.295959,496
835.414246,475
835.53241,482
835.650635,495
835.768921,473
835.887146,492
836.005371,500
836.123596,480
836.241821,475
836.360046,440
836.478271,480
836.596497,488
836.714722,481
836.832886,502
836.95105,498
837.069336,496
837.1875,481
837.305725,473
837.423889,491
837.542053,472
837.660339,488
837.778503,479
837.896667,505
838.014832,476
838.132996,486
838.25116,483
838.369385,469
838.487488,479
838.605713,510
838.723877,507
838.84198,492
838.960205,503
839.078308,494
839.196472,509
839.314636,488
839.4328,513
839.550964,515
839.669067,507
839.787231,498
839.905396,499
840.023499,499
840.141602,496
840.259766,505
840.377869,495
840.495972,510
840.614136,511
840.732239,493
840.850342,515
840.968445,521
841.086548,518
841.204651,531
841.322754,508
841.440918,530
841.55896,533
841.677002,530
841.795166,526
841.913208,540
842.031311,541
842.149353,519
842.267456,518
842.385498,514
842.503601,502
842.621643,552
842.739746,518
842.857788,521
842.97583,519
843.093933,505
843.211975,504
843.330017,510
843.44812,497
843.566101,501
843.684204,481
843.802246,505
843.920227,506
844.038269,501
844.156311,491
844.274292,503
844.392395,506
844.510376,515
844.628357,492
844.74646,521
844.864441,497
844.982422,495
845.100403,519
845.218384,508
845.336426,511
845.454468,492
845.572449,499
845.69043,506
845.808411,519
845.926453,506
846.044373,490
846.162354,513
846.280396,493
846.398315,511
846.516296,478
846.634216,498
846.752197,513
846.870178,490
846.988098,516
847.106079,498
847.22406,516
847.34198,498
847.4599,484
847.577881,503
847.695801,550
847.813782,506
847.931641,499
848.049561,528
848.167603,486
848.285461,513
848.403381,495
848.521362,515
848.639221,483
848.75708,501
848.875,506
848.99292,505
849.110901,518
849.22876,508
849.34668,508
849.464539,507
849.582458,489
849.700317,509
849.818176,484
849.936096,518
850.053955,491
850.171875,506
850.289673,531
850.407593,508
850.525452,512
850.643311,492
850.761169,501
850.878967,497
850.996887,496
851.114746,489
851.232544,520
851.350403,533
851.468262,499
851.58606,506
851.703979,506
851.821777,496
851.939636,493
852.057434,502
852.175232,527
852.293091,516
852.410889,502
852.528687,534
852.646545,516
852.764343,537
852.88208,533
852.999939,518
853.117676,509
853.235535,508
853.353271,513
853.471069,516
853.588928,494
853.706604,499
853.824402,492
853.9422,506
854.059998,498
854.177734,487
854.295532,492
854.413269,513
854.531006,501
854.648804,518
854.766541,495
854.884277,518
855.002014,482
855.119751,496
855.237549,502
855.355225,494
855.473022,510
855.590698,493
855.708435,502
855.826172,514
855.943848,491
856.061646,534
856.179321,490
856.296997,516
856.414795,513
856.53241,487
856.650085,504
856.767822,518
856.885559,527
857.003174,509
857.120911,514
857.238586,521
857.356201,509
857.473938,542
857.591614,516
857.709351,518
857.826965,505
857.944641,532
858.062317,519
858.179993,525
858.297668,523
858.415283,507
858.532959,521
858.650574,530
858.768188,513
858.885803,524
859.003479,529
859.121094,526
859.23877,531
859.356384,529
859.473999,518
859.591675,496
859.709229,499
859.826843,503
859.944458,515
860.062012,496
860.179626,491
860.297302,490
860.414856,479
860.532471,506
860.650024,508
860.767639,511
860.885193,479
861.002808,518
861.120361,500
861.237976,504
861.35553,507
861.473022,516
861.590698,472
861.708191,503
861.825745,497
861.943298,486
862.060852,489
862.178406,481
862.295959,508
862.413513,478
862.531006,473
862.64856,494
862.766113,473
862.883667,497
863.00116,476
863.118713,469
863.236206,492
863.353699,480
863.471252,480
863.588745,493
863.706177,486
863.82373,470
863.941162,510
864.058716,455
864.176208,503
864.29364,489
864.411194,479
864.528687,496
864.646118,491
864.763611,481
864.881042,499
864.998535,486
865.116028,479
865.233459,481
865.350891,502
865.468384,459
865.585754,483
865.703308,492
865.820679,482
865.938171,484
866.055542,492
866.173035,482
866.290466,487
866.407837,485
866.52533,503
866.6427,487
866.760071,491
866.877563,469
866.994934,498
867.112305,480
867.229736,470
867.347107,495
867.464539,470
867.58197,503
867.699341,478
867.81665,502
867.934082,492
868.051453,486
868.168823,476
868.286194,480
868.403564,485
868.520935,514
868.638306,488
868.755676,501
868.872986,504
868.990295,485
869.107727,489
869.225037,493
869.342346,503
869.459717,527
869.577026,525
869.694336,497
869.811707,498
869.929016,498
870.046326,498
870.163635,509
870.280945,506
870.398254,515
870.515564,484
870.632812,516
870.750183,539
870.867432,488
870.984741,525
871.102051,515
871.219299,528
871.336609,518
871.453918,522
871.571106,527
871.688416,509
871.805664,556
871.922852,535
872.040222,518
872.157471,520
872.274719,496
872.391968,520
872.509155,506
872.626465,543
872.743652,535
872.860962,514
872.978149,518
873.095337,497
873.212646,514
873.329834,493
873.44696,520
873.564209,513
873.681396,509
873.798645,511
873.915894,501
874.03302,515
874.150208,532
874.267456,520
874.384583,516
874.501831,522
874.618958,529
874.736145,540
874.853333,513
874.970459,513
875.087646,523
875.204834,518
875.32196,521
875.439148,518
875.556274,524
875.673401,500
875.790527,513
875.907715,512
876.024841,499
876.141968,504
876.259094,489
876.376282,515
876.493347,497
876.610474,480
876.7276,490
876.844727,500
876.961853,500
877.078918,496
877.195984,502
877.313171,523
877.430237,511
877.547302,499
877.664368,494
877.781433,499
877.898499,507
878.015625,490
878.13269,493
878.249695,500
878.366821,488
878.483887,507
878.600952,511
878.717957,503
878.834961,484
878.952087,488
879.069092,495
879.186157,487
879.303162,471
879.420227,484
879.537231,492
879.654236,483
879.77124,470
879.888306,468
880.005249,479
880.122314,478
880.239319,476
880.356323,472
880.473328,483
880.590271,472
880.707275,478
880.824341,464
880.941284,469
881.058228,475
881.175232,481
881.292236,475
881.40918,478
881.526123,490
881.643066,482
881.760071,491
881.877014,496
881.993958,482
882.11084,469
882.227783,484
882.344727,491
882.46167,467
882.578613,495
882.695618,469
882.812439,489
882.929382,468
883.046326,481
883.163208,473
883.280151,483
883.397034,466
883.513916,466
883.630798,489
883.747742,493
883.864563,485
883.981506,490
884.098389,495
884.21521,482
884.332153,503
884.448975,513
884.565796,487
884.682678,517
884.7995,519
884.916443,525
885.033264,533
885.150085,544
885.266968,541
885.383789,572
885.500671,562
885.617493,568
885.734314,562
885.851196,569
885.967896,534
886.084717,561
886.201599,537
886.318359,540
886.435181,534
886.552002,544
886.668762,548
886.785645,532
886.902344,527
887.019165,522
887.135925,549
887.252747,534
887.369446,518
887.486267,521
887.603027,519
887.719788,538
887.836548,512
887.953247,510
888.070068,503
888.186829,492
888.303528,490
888.420288,502
888.536987,491
888.653687,464
888.770447,506
888.887146,483
889.003967,501
889.120667,469
889.237305,470
889.354065,493
889.470703,464
889.587463,473
889.704163,456
889.820862,478
889.937561,463
890.054199,472
890.170837,468
890.287598,473
890.404236,469
890.520874,478
890.637634,445
890.754211,481
890.87085,446
890.987549,465
891.104187,474
891.220886,491
891.337463,461
891.454102,482
891.57074,469
891.687378,466
891.804077,472
891.920654,478
892.037231,479
892.15387,492
892.270447,459
892.387085,479
892.503723,481
892.6203,488
892.736877,480
892.853516,475
892.970032,465
893.08667,488
893.203186,464
893.319763,476
893.43634,474
893.552917,470
893.669556,467
893.786011,463
893.902588,459
894.019165,470
894.135681,448
894.252197,459
894.368835,480
894.485291,486
894.601868,476
894.718384,468
894.8349,464
894.951355,475
895.067932,487
895.184448,456
895.300964,465
895.417419,463
895.533936,475
895.650452,472
895.766907,456
895.883423,482
895.999878,473
896.116333,462
896.232849,465
896.349304,468
896.465759,472
896.582214,492
896.698669,455
896.815125,490
896.931641,469
897.048035,476
897.164551,460
897.280884,466
897.397339,480
897.513794,477
897.630249,490
897.746582,451
897.863098,468
897.979431,467
898.095886,476
898.212341,468
898.328674,482
898.445129,480
898.561462,480
898.677795,475
898.794312,488
898.910645,486
899.026978,467
899.143433,462
899.259766,470
899.37616,492
899.492493,466
899.608765,483
899.725159,468
899.841553,487
899.957947,472
900.07428,472
900.190552,474
900.306946,486
900.423157,473
900.53949,468
900.655884,487
900.772156,481
900.888489,471
901.004822,460
901.121033,477
901.237366,482
901.353699,474
901.46991,494
901.586304,476
901.702515,473
901.818787,487
901.93512,496
902.051331,475
902.167603,513
902.283875,512
902.400085,505
902.516418,517
902.632629,519
902.74884,519
902.865112,520
902.981384,525
903.097595,506
903.213867,514
903.330017,516
903.446289,509
903.5625,506
903.67865,501
903.794922,520
903.911072,484
904.027344,491
904.143494,488
904.259705,476
904.375916,473
904.492065,481
904.608215,496
904.724426,491
904.840576,466
904.956726,490
905.072876,457
905.189087,471
905.305176,478
905.421387,487
905.537537,473
905.653687,463
905.769775,467
905.885925,479
906.002014,479
906.118164,475
906.234314,483
906.350403,469
906.466492,458
906.582642,469
906.69873,462
906.814758,471
906.930908,452
907.046936,468
907.163086,470
907.279175,482
907.395264,454
907.511353,469
907.62738,471
907.743408,477
907.859497,458
907.975525,441
908.091553,465
908.207703,480
908.32373,483
908.439758,466
908.555786,480
908.671814,480
908.787842,481
908.90387,471
909.019775,462
909.135864,480
909.251892,475
909.367859,484
909.483826,455
909.599854,476
909.715881,479
909.831848,457
909.947815,453
910.063782,487
910.179749,486
910.295776,468
910.411743,474
910.527649,480
910.643616,456
910.759583,467
910.875488,456
910.991455,447
911.107361,475
911.223267,477
911.339294,480
911.4552,465
911.571106,478
911.687073,467
911.802979,448
911.918823,482
912.034729,480
912.150635,460
912.266602,471
912.382446,463
912.498352,466
912.614197,463
912.730103,484
912.846008,466
792.44574,953
792.56488,940
792.68396,984
792.80304,920
792.92218,897
793.041199,854
793.160339,876
793.279419,847
793.398499,829
793.517578,824
793.636658,813
793.755737,783
793.874817,812
793.993896,818
794.112976,775
794.232056,748
794.351074,786
794.470215,745
794.589233,755
794.708313,718
794.827393,718
794.946411,692
795.065552,732
795.18457,734
795.303589,731
795.422668,722
795.541687,691
795.660767,705
795.779846,710
795.898865,668
796.017883,683
796.136963,700
796.255981,682
796.375061,667
796.49408,680
796.613037,674
796.732117,665
796.851135,681
796.970154,651
797.089233,673
797.208191,638
797.327271,658
797.446228,652
797.565186,634
797.684265,649
797.803223,642
797.922241,637
798.04126,645
798.160278,634
798.279297,636
798.398315,626
798.517273,623
798.636292,634
798.75531,622
798.874268,618
798.993286,622
799.112244,620
799.231323,638
799.350281,604
799.469238,618
799.588257,627
799.707153,625
799.826111,615
799.945129,604
800.064087,619
800.183044,580
800.302063,611
800.421021,582
800.539978,611
800.658936,610
800.777893,603
800.896912,597
801.015747,600
801.134705,582
801.253723,602
801.37262,583
801.491638,599
801.610535,612
801.729492,592
801.84845,600
801.967407,590
802.086243,574
802.205261,597
802.324158,564
802.443115,595
802.562073,561
802.680969,600
802.799927,587
802.918762,585
803.037659,572
803.156677,582
803.275574,560
803.39447,584
803.513428,581
803.632263,567
803.751221,575
803.870117,585
803.989014,572
804.107971,562
804.226746,562
804.345642,577
804.4646,574
804.583496,566
804.702393,577
804.821228,592
804.940125,565
805.059021,561
805.177917,562
805.296814,567
805.415649,560
805.534546,569
805.653442,584
805.772278,571
805.891113,564
806.01001,581
806.128906,572
806.247742,547
806.366577,567
806.485413,592
806.604309,574
806.723145,577
806.84198,557
806.960876,568
807.079712,586
807.198486,574
807.317383,558
807.436218,561
807.554993,551
807.673889,559
807.792725,566
807.91156,568
808.030396,533
808.14917,559
808.268005,540
808.386841,549
808.505676,572
808.624451,553
808.743286,559
808.862122,558
808.980896,570
809.099731,553
809.218506,571
809.337341,564
809.456116,549
809.57489,559
809.693726,550
809.8125,556
809.931274,543
810.050049,555
810.168884,579
810.287659,566
810.406372,555
810.525269,548
810.643982,559
810.762756,553
810.881531,548
811.000305,568
811.11908,546
811.237854,550
811.356567,569
811.475403,576
811.594116,596
811.71283,568
811.831604,572
811.950378,592
812.069153,566
812.187927,559
812.30658,573
812.425415,576
812.544128,562
812.662781,571
812.781616,554
812.900269,573
813.019043,547
813.137756,560
813.256531,558
813.375244,576
813.493896,531
813.612671,548
813.731384,548
813.850037,556
813.96875,555
814.087524,569
814.206238,560
814.324951,542
814.443604,532
814.562256,578
814.68103,573
814.799683,580
814.918335,534
815.037109,566
815.155762,558
815.274475,555
815.393188,555
815.511841,568
815.630554,569
815.749146,537
815.867859,552
815.986572,554
816.105164,522
816.223877,521
816.342529,553
816.461182,550
816.579895,558
816.698486,545
816.817139,558
816.935791,566
817.054504,552
817.173096,568
817.291748,532
817.4104,552
817.529053,528
817.647644,554
817.766235,521
817.884949,517
818.00354,531
818.122192,535
818.240845,544
818.359436,522
818.478088,539
818.59668,505
818.715271,537
818.833923,523
818.952515,502
819.071106,510
819.189758,506
819.30835,505
819.426941,525
819.545532,506
819.664124,524
819.782715,511
819.901306,516
820.019897,526
820.138489,503
820.25708,521
820.375671,514
820.494202,533
820.612732,508
820.731384,508
820.849915,508
820.968506,515
821.087097,483
821.205627,523
821.324158,498
821.442749,500
821.561279,483
821.679871,482
821.798401,501
821.916931,526
822.035461,492
822.154053,514
822.272583,500
822.391174,486
822.509583,510
822.628174,503
822.746704,487
822.865234,485
822.983765,492
823.102295,500
823.220825,499
823.339294,486
823.457825,503
823.576355,489
823.694824,495
823.813354,502
823.931885,490
824.050354,499
824.168884,494
824.287354,491
824.405823,507
824.524353,487
824.642822,488
824.761353,525
824.879822,491
824.998291,477
825.116699,506
825.235291,494
825.353699,501
825.472168,480
825.590637,499
825.709106,476
825.827576,466
825.946045,509
826.064453,497
826.182983,495
826.301392,497
826.4198,502
826.53833,480
826.656738,470
826.775208,466
826.893677,491
827.012024,467
827.130493,497
827.248962,469
827.36731,482
827.485779,502
827.604248,486
827.722595,500
827.841064,490
827.959412,478
828.077942,491
828.196289,479
828.314636,484
828.433105,467
828.551514,476
828.669861,473
828.78833,497
828.906677,467
829.025085,484
829.143433,480
829.261841,485
829.38031,466
829.498657,473
829.617004,481
829.735413,472
829.85376,472
829.972107,499
830.090515,462
830.208862,484
830.327209,485
830.445557,488
830.563904,481
830.682312,486
830.800659,496
830.919006,487
831.037354,464
831.155701,488
831.274048,503
831.392395,495
831.51062,499
831.629028,461
831.747314,467
831.865662,495
831.984009,488
832.102356,494
832.220642,508
832.338928,504
832.457275,475
832.575623,503
832.693909,495
832.812134,497
832.930481,475
833.048828,476
833.167114,487
833.2854,492
833.403687,473
833.521973,479
833.640259,471
833.758545,497
833.876831,475
833.995056,483
834.113281,468
834.231628,504
834.349915,486
834.468201,492
834.586426,499
834.704651,498
834.822998,474
834.941162,484
835.059448,483
835.177673,499
835.295959,499
835.414246,489
835.53241,472
835.650635,494
835.768921,488
835.887146,494
836.005371,481
836.123596,483
836.241821,487
836.360046,485
836.478271,488
836.596497,475
836.714722,464
836.832886,480
836.95105,486
837.069336,478
837.1875,476
837.305725,509
837.423889,482
837.542053,495
837.660339,484
837.778503,494
837.896667,485
838.014832,513
838.132996,472
838.25116,486
838.369385,499
838.487488,466
838.605713,496
838.723877,504
838.84198,484
838.960205,471
839.078308,474
839.196472,507
839.314636,499
839.4328,497
839.550964,483
839.669067,499
839.787231,509
839.905396,502
840.023499,501
840.141602,507
840.259766,501
840.377869,495
840.495972,536
840.614136,508
840.732239,511
840.850342,516
840.968445,510
841.086548,511
841.204651,523
841.322754,528
841.440918,515
841.55896,505
841.677002,523
841.795166,535
841.913208,502
842.031311,519
842.149353,495
842.267456,534
842.385498,533
842.503601,524
842.621643,501
842.739746,507
842.857788,502
842.97583,523
843.093933,516
843.211975,519
843.330017,509
843.44812,519
843.566101,529
843.684204,519
843.802246,520
843.920227,518
844.038269,494
844.156311,502
844.274292,522
844.392395,504
844.510376,506
844.628357,497
844.74646,480
844.864441,542
844.982422,490
845.100403,503
845.218384,483
845.336426,501
845.454468,515
845.572449,505
845.69043,488
845.808411,486
845.926453,522
846.044373,510
846.162354,495
846.280396,502
846.398315,485
846.516296,501
846.634216,498
846.752197,504
846.870178,516
846.988098,507
847.106079,518
847.22406,494
847.34198,499
847.4599,503
847.577881,508
847.695801,494
847.813782,506
847.931641,518
848.049561,531
848.167603,504
848.285461,487
848.403381,514
848.521362,492
848.639221,518
848.75708,494
848.875,513
848.99292,500
849.110901,513
849.22876,523
849.34668,499
849.464539,513
849.582458,502
849.700317,508
849.818176,515
849.936096,514
850.053955,509
850.171875,499
850.289673,519
850.407593,501
850.525452,524
850.643311,518
850.761169,516
850.878967,489
850.996887,493
851.114746,508
851.232544,491
851.350403,485
851.468262,524
851.58606,519
851.703979,516
851.821777,492
851.939636,515
852.057434,502
852.175232,510
852.293091,507
852.410889,500
852.528687,513
852.646545,545
852.764343,517
852.88208,523
852.999939,486
853.117676,511
853.235535,500
853.353271,522
853.471069,496
853.588928,515
853.706604,507
853.824402,514
853.9422,515
854.059998,504
854.177734,491
854.295532,503
854.413269,500
854.531006,516
854.648804,496
854.766541,520
854.884277,523
855.002014,501
855.119751,503
855.237549,482
855.355225,518
855.473022,504
855.590698,505
855.708435,515
855.826172,537
855.943848,507
856.061646,503
856.179321,514
856.296997,516
856.414795,507
856.53241,525
856.650085,512
856.767822,503
856.885559,528
857.003174,533
857.120911,560
857.238586,494
857.356201,526
857.473938,533
857.591614,516
857.709351,525
857.826965,510
857.944641,531
858.062317,509
858.179993,508
858.297668,518
858.415283,499
858.532959,537
858.650574,526
858.768188,514
858.885803,515
859.003479,537
859.121094,523
859.23877,524
859.356384,510
859.473999,501
859.591675,518
859.709229,510
859.826843,509
859.944458,508
860.062012,501
860.179626,494
860.297302,508
860.414856,490
860.532471,508
860.650024,513
860.767639,499
860.885193,495
861.002808,516
861.120361,509
861.237976,505
861.35553,514
861.473022,505
861.590698,530
861.708191,499
861.825745,512
861.943298,512
862.060852,474
862.178406,491
862.295959,509
862.413513,485
862.531006,489
862.64856,492
862.766113,487
862.883667,481
863.00116,492
863.118713,483
863.236206,492
863.353699,489
863.471252,483
863.588745,490
863.706177,500
863.82373,504
863.941162,497
864.058716,499
864.176208,486
864.29364,491
864.411194,492
864.528687,499
864.646118,500
864.763611,475
864.881042,481
864.998535,498
865.116028,490
865.233459,471
865.350891,499
865.468384,475
865.585754,507
865.703308,476
865.820679,499
865.938171,491
866.055542,480
866.173035,472
866.290466,464
866.407837,484
866.52533,465
866.6427,493
866.760071,495
866.877563,489
866.994934,494
867.112305,480
867.229736,485
867.347107,494
867.464539,479
867.58197,486
867.699341,506
867.81665,497
867.934082,489
868.051453,475
868.168823,500
868.286194,483
868.403564,496
868.520935,482
868.638306,498
868.755676,480
868.872986,516
868.990295,490
869.107727,515
869.225037,494
869.342346,493
869.459717,471
869.577026,488
869.694336,481
869.811707,502
869.929016,500
870.046326,533
870.163635,484
870.280945,500
870.398254,506
870.515564,506
870.632812,509
870.750183,498
870.867432,495
870.984741,514
871.102051,519
871.219299,529
871.336609,520
871.453918,525
871.571106,520
871.688416,529
871.805664,544
871.922852,515
872.040222,534
872.157471,537
872.274719,508
872.391968,538
872.509155,524
872.626465,530
872.743652,527
872.860962,536
872.978149,490
873.095337,542
873.212646,514
873.329834,520
873.44696,497
873.564209,529
873.681396,512
873.798645,503
873.915894,515
874.03302,523
874.150208,518
874.267456,517
874.384583,527
874.501831,516
874.618958,526
874.736145,548
874.853333,527
874.970459,539
875.087646,527
875.204834,511
875.32196,520
875.439148,509
875.556274,519
875.673401,522
875.790527,513
875.907715,506
876.024841,483
876.141968,510
876.259094,499
876.376282,502
876.493347,513
876.610474,520
876.7276,506
876.844727,501
876.961853,497
877.078918,496
877.195984,481
877.313171,492
877.430237,497
877.547302,487
877.664368,493
877.781433,531
877.898499,495
878.015625,516
878.13269,484
878.249695,499
878.366821,473
878.483887,488
878.600952,499
878.717957,501
878.834961,489
878.952087,490
879.069092,470
879.186157,462
879.303162,488
879.420227,489
879.537231,491
879.654236,491
879.77124,483
879.888306,484
880.005249,478
880.122314,482
880.239319,469
880.356323,483
880.473328,469
880.590271,496
880.707275,473
880.824341,487
880.941284,477
881.058228,481
881.175232,471
881.292236,488
881.40918,475
881.526123,503
881.643066,465
881.760071,501
881.877014,472
881.993958,475
882.11084,482
882.227783,469
882.344727,484
882.46167,497
882.578613,484
882.695618,476
882.812439,463
882.929382,481
883.046326,469
883.163208,481
883.280151,466
883.397034,475
883.513916,480
883.630798,469
883.747742,497
883.864563,492
883.981506,482
884.098389,502
884.21521,493
884.332153,494
884.448975,499
884.565796,494
884.682678,523
884.7995,512
884.916443,534
885.033264,540
885.150085,527
885.266968,559
885.383789,564
885.500671,558
885.617493,571
885.734314,562
885.851196,549
885.967896,567
886.084717,556
886.201599,580
886.318359,541
886.435181,574
886.552002,550
886.668762,546
886.785645,548
886.902344,556
887.019165,538
887.135925,533
887.252747,521
887.369446,548
887.486267,523
887.603027,534
887.719788,512
887.836548,508
887.953247,512
888.070068,516
888.186829,493
888.303528,494
888.420288,493
888.536987,487
888.653687,500
888.770447,471
888.887146,474
889.003967,479
889.120667,475
889.237305,475
889.354065,452
889.470703,485
889.587463,496
889.704163,493
889.820862,468
889.937561,483
890.054199,464
890.170837,483
890.287598,474
890.404236,469
890.520874,458
890.637634,458
890.754211,483
890.87085,482
890.987549,488
891.104187,479
891.220886,457
891.337463,461
891.454102,469
891.57074,478
891.687378,475
891.804077,473
891.920654,478
892.037231,484
892.15387,490
892.270447,473
892.387085,499
892.503723,474
892.6203,468
892.736877,472
892.853516,479
892.970032,473
893.08667,472
893.203186,458
893.319763,472
893.43634,455
893.552917,487
893.669556,468
893.786011,478
893.902588,482
894.019165,465
894.135681,494
894.252197,466
894.368835,484
894.485291,467
894.601868,468
894.718384,479
894.8349,463
894.951355,455
895.067932,470
895.184448,477
895.300964,488
895.417419,482
895.533936,476
895.650452,471
895.766907,488
895.883423,467
895.999878,481
896.116333,488
896.232849,440
896.349304,462
896.465759,477
896.582214,461
896.698669,473
896.815125,441
896.931641,466
897.048035,463
897.164551,471
897.280884,476
897.397339,477
897.513794,482
897.630249,494
897.746582,455
897.863098,461
897.979431,450
898.095886,466
898.212341,478
898.328674,495
898.445129,491
898.561462,485
898.677795,472
898.794312,484
898.910645,471
899.026978,492
899.143433,467
899.259766,480
899.37616,471
899.492493,471
899.608765,495
899.725159,485
899.841553,473
899.957947,490
900.07428,462
900.190552,478
900.306946,480
900.423157,488
900.53949,472
900.655884,465
900.772156,485
900.888489,490
901.004822,479
901.121033,491
901.237366,481
901.353699,471
901.46991,483
901.586304,470
901.702515,487
901.818787,484
901.93512,486
902.051331,484
902.167603,512
902.283875,506
902.400085,496
902.516418,516
902.632629,518
902.74884,494
902.865112,501
902.981384,505
903.097595,522
903.213867,502
903.330017,520
903.446289,510
903.5625,511
903.67865,503
903.794922,495
903.911072,508
904.027344,502
904.143494,497
904.259705,485
904.375916,506
904.492065,510
904.608215,485
904.724426,466
904.840576,493
904.956726,484
905.072876,500
905.189087,462
905.305176,473
905.421387,454
905.537537,485
905.653687,458
905.769775,473
905.885925,480
906.002014,470
906.118164,439
906.234314,459
906.350403,472
906.466492,492
906.582642,465
906.69873,492
906.814758,459
906.930908,485
907.046936,484
907.163086,477
907.279175,461
907.395264,477
907.511353,470
907.62738,471
907.743408,484
907.859497,474
907.975525,479
908.091553,479
908.207703,478
908.32373,470
908.439758,479
908.555786,482
908.671814,471
908.787842,469
908.90387,466
909.019775,466
909.135864,487
909.251892,461
909.367859,451
909.483826,499
909.599854,460
909.715881,473
909.831848,469
909.947815,484
910.063782,464
910.179749,490
910.295776,486
910.411743,478
910.527649,454
910.643616,472
910.759583,484
910.875488,480
910.991455,480
911.107361,464
911.223267,467
911.339294,463
911.4552,466
911.571106,477
911.687073,461
911.802979,473
911.918823,461
912.034729,479
912.150635,479
912.266602,444
912.382446,469
912.498352,466
912.614197,464
912.730103,491
912.846008,458
792.44574,949
792.56488,974
792.68396,1003
792.80304,919
792.92218,910
793.041199,831
793.160339,860
793.279419,858
793.398499,868
793.517578,791
793.636658,806
793.755737,822
793.874817,802
793.993896,788
794.112976,768
794.232056,764
794.351074,768
794.470215,766
794.589233,739
794.708313,709
794.827393,751
794.946411,740
795.065552,722
795.18457,745
795.303589,713
795.422668,685
795.541687,697
795.660767,742
795.779846,683
795.898865,689
796.017883,674
796.136963,674
796.255981,671
796.375061,699
796.49408,633
796.613037,657
796.732117,657
796.851135,646
796.970154,663
797.089233,660
797.208191,656
797.327271,645
797.446228,644
797.565186,651
797.684265,616
797.803223,612
797.922241,628
798.04126,600
798.160278,634
798.279297,616
798.398315,655
798.517273,627
798.636292,606
798.75531,617
798.874268,609
798.993286,617
799.112244,601
799.231323,633
799.350281,619
799.469238,611
799.588257,607
799.707153,588
799.826111,585
799.945129,593
800.064087,607
800.183044,584
800.302063,627
800.421021,600
800.539978,591
800.658936,610
800.777893,582
800.896912,595
801.015747,586
801.134705,591
801.253723,595
801.37262,573
801.491638,597
801.610535,578
801.729492,567
801.84845,585
801.967407,557
802.086243,588
802.205261,592
802.324158,583
802.443115,573
802.562073,591
802.680969,585
802.799927,564
802.918762,594
803.037659,621
803.156677,576
803.275574,562
803.39447,582
803.513428,569
803.632263,564
803.751221,580
803.870117,570
803.989014,567
804.107971,559
804.226746,552
804.345642,554
804.4646,576
804.583496,558
804.702393,579
804.821228,556
804.940125,595
805.059021,577
805.177917,568
805.296814,572
805.415649,571
805.534546,554
805.653442,564
805.772278,578
805.891113,559
806.01001,584
806.128906,576
806.247742,590
806.366577,567
806.485413,581
806.604309,569
806.723145,567
806.84198,567
806.960876,548
807.079712,563
807.198486,564
807.317383,562
807.436218,541
807.554993,571
807.673889,568
807.792725,545
807.91156,552
808.030396,552
808.14917,571
808.268005,589
808.386841,553
808.505676,556
808.624451,588
808.743286,535
808.862122,556
808.980896,553
809.099731,588
809.218506,543
809.337341,564
809.456116,539
809.57489,559
809.693726,559
809.8125,564
809.931274,555
810.050049,565
810.168884,552
810.287659,547
810.406372,558
810.525269,548
810.643982,573
810.762756,566
810.881531,559
811.000305,573
811.11908,553
811.237854,567
811.356567,555
811.475403,572
811.594116,577
811.71283,584
811.831604,565
811.950378,573
812.069153,550
812.187927,566
812.30658,569
812.425415,566
812.544128,568
812.662781,560
812.781616,560
812.900269,550
813.019043,572
813.137756,570
813.256531,567
813.375244,571
813.493896,550
813.612671,576
813.731384,533
813.850037,527
813.96875,544
814.087524,555
814.206238,541
814.324951,551
814.443604,556
814.562256,530
814.68103,538
814.799683,554
814.918335,572
815.037109,524
815.155762,554
815.274475,556
815.393188,547
815.511841,546
815.630554,535
815.749146,563
815.867859,524
815.986572,545
816.105164,574
816.223877,539
816.342529,556
816.461182,571
816.579895,550
816.698486,556
816.817139,554
816.935791,566
817.054504,565
817.173096,552
817.291748,560
817.4104,556
817.529053,540
817.647644,538
817.766235,539
817.884949,549
818.00354,538
818.122192,538
818.240845,561
818.359436,514
818.478088,525
818.59668,529
818.715271,531
818.833923,544
818.952515,543
819.071106,517
819.189758,517
819.30835,508
819.426941,532
819.545532,531
819.664124,502
819.782715,502
819.901306,490
820.019897,508
820.138489,519
820.25708,487
820.375671,514
820.494202,514
820.612732,489
820.731384,506
820.849915,510
820.968506,508
821.087097,499
821.205627,492
821.324158,527
821.442749,509
821.561279,504
821.679871,486
821.798401,504
821.916931,507
822.035461,503
822.154053,498
822.272583,490
822.391174,492
822.509583,515
822.628174,479
822.746704,516
822.865234,493
822.983765,497
823.102295,488
823.220825,488
823.339294,496
823.457825,499
823.576355,474
823.694824,509
823.813354,491
823.931885,489
824.050354,504
824.168884,504
824.287354,496
824.405823,490
824.524353,485
824.642822,478
824.761353,497
824.879822,494
824.998291,487
825.116699,487
825.235291,514
825.353699,488
825.472168,493
825.590637,494
825.709106,481
825.827576,493
825.946045,518
826.064453,486
826.182983,484
826.301392,481
826.4198,504
826.53833,479
826.656738,495
826.775208,492
826.893677,484
827.012024,503
827.130493,473
827.248962,474
827.36731,500
827.485779,488
827.604248,500
827.722595,489
827.841064,479
827.959412,467
828.077942,488
828.196289,492
828.314636,464
828.433105,495
828.551514,474
828.669861,474
828.78833,481
828.906677,491
829.025085,477
829.143433,493
829.261841,480
829.38031,497
829.498657,487
829.617004,509
829.735413,470
829.85376,478
829.972107,463
830.090515,477
830.208862,488
830.327209,482
830.445557,467
830.563904,496
830.682312,482
830.800659,472
830.919006,480
831.037354,496
831.155701,500
831.274048,492
831.392395,492
831.51062,490
831.629028,481
831.747314,478
831.865662,486
831.984009,475
832.102356,487
832.220642,483
832.338928,491
832.457275,490
832.575623,505
832.693909,496
832.812134,487
832.930481,469
833.048828,493
833.167114,500
833.2854,492
833.403687,486
833.521973,487
833.640259,469
833.758545,503
833.876831,492
833.995056,489
834.113281,485
834.231628,467
834.349915,500
834.468201,481
834.586426,479
834.704651,486
834.822998,497
834.941162,502
835.059448,476
835.177673,513
835.295959,495
835.414246,477
835.53241,507
835.650635,485
835.768921,471
835.887146,473
836.005371,473
836.123596,491
836.241821,491
836.360046,476
836.478271,486
836.596497,514
836.714722,482
836.832886,472
836.95105,480
837.069336,481
837.1875,482
837.305725,492
837.423889,483
837.542053,478
837.660339,492
837.778503,473
837.896667,475
838.014832,480
838.132996,463
838.25116,503
838.369385,474
838.487488,493
838.605713,468
838.723877,481
838.84198,505
838.960205,469
839.078308,513
839.196472,495
839.314636,478
839.4328,490
839.550964,489
839.669067,491
839.787231,505
839.905396,506
840.023499,505
840.141602,490
840.259766,514
840.377869,493
840.495972,518
840.614136,508
840.732239,507
840.850342,507
840.968445,510
841.086548,536
841.204651,511
841.322754,519
841.440918,519
841.55896,509
841.677002,523
841.795166,507
841.913208,522
842.031311,531
842.149353,514
842.267456,528
842.385498,520
842.503601,512
842.621643,496
842.739746,533
842.857788,507
842.97583,496
843.093933,526
843.211975,515
843.330017,515
843.44812,489
843.566101,530
843.684204,511
843.802246,496
843.920227,515
844.038269,514
844.156311,489
844.274292,520
844.392395,512
844.510376,511
844.628357,509
844.74646,512
844.864441,506
844.982422,511
845.100403,497
845.218384,504
845.336426,490
845.454468,508
845.572449,498
845.69043,511
845.808411,482
845.926453,496
846.044373,513
846.162354,499
846.280396,486
846.398315,501
846.516296,495
846.634216,506
846.752197,499
846.870178,499
846.988098,509
847.106079,500
847.22406,499
847.34198,520
847.4599,501
847.577881,507
847.695801,520
847.813782,504
847.931641,483
848.049561,490
848.167603,493
848.285461,504
848.403381,512
848.521362,515
848.639221,489
848.75708,507
848.875,510
848.99292,520
849.110901,493
849.22876,504
849.34668,492
849.464539,482
849.582458,504
849.700317,511
849.818176,488
849.936096,497
850.053955,524
850.171875,512
850.289673,511
850.407593,518
850.525452,493
850.643311,514
850.761169,501
850.878967,506
850.996887,487
851.114746,470
851.232544,496
851.350403,511
851.468262,503
851.58606,505
851.703979,508
851.821777,517
851.939636,496
852.057434,489
852.175232,503
852.293091,506
852.410889,508
852.528687,529
852.646545,514
852.764343,517
852.88208,525
852.999939,513
853.117676,507
853.235535,504
853.353271,498
853.471069,506
853.588928,487
853.706604,510
853.824402,513
853.9422,500
854.059998,515
854.177734,519
854.295532,503
854.413269,511
854.531006,491
854.648804,512
854.766541,495
854.884277,517
855.002014,504
855.119751,528
855.237549,519
855.355225,518
855.473022,514
855.590698,509
855.708435,511
855.826172,509
855.943848,535
856.061646,480
856.179321,509
856.296997,503
856.414795,495
856.53241,517
856.650085,519
856.767822,504
856.885559,545
857.003174,532
857.120911,507
857.238586,506
857.356201,533
857.473938,532
857.591614,529
857.709351,519
857.826965,523
857.944641,528
858.062317,521
858.179993,515
858.297668,531
858.415283,525
858.532959,513
858.650574,528
858.768188,513
858.885803,531
859.003479,522
859.121094,525
859.23877,509
859.356384,522
859.473999,508
859.591675,504
859.709229,514
859.826843,493
859.944458,511
860.062012,500
860.179626,480
860.297302,508
860.414856,505
860.532471,494
860.650024,501
860.767639,518
860.885193,510
861.002808,511
861.120361,509
861.237976,507
861.35553,484
861.473022,508
861.590698,506
861.708191,510
861.825745,501
861.943298,511
862.060852,511
862.178406,481
862.295959,486
862.413513,502
862.531006,488
862.64856,496
862.766113,483
862.883667,487
863.00116,490
863.118713,489
863.236206,497
863.353699,482
863.471252,478
863.588745,480
863.706177,485
863.82373,495
863.941162,495
864.058716,482
864.176208,493
864.29364,486
864.411194,490
864.528687,479
864.646118,484
864.763611,489
864.881042,485
864.998535,486
865.116028,470
865.233459,491
865.350891,506
865.468384,494
865.585754,498
865.703308,476
865.820679,485
865.938171,492
866.055542,461
866.173035,475
866.290466,475
866.407837,479
866.52533,490
866.6427,493
866.760071,500
866.877563,498
866.994934,495
867.112305,478
867.229736,472
867.347107,489
867.464539,486
867.58197,525
867.699341,503
867.81665,488
867.934082,489
868.051453,508
868.168823,493
868.286194,489
868.403564,474
868.520935,477
868.638306,485
868.755676,490
868.872986,495
868.990295,491
869.107727,499
869.225037,499
869.342346,509
869.459717,515
869.577026,495
869.694336,518
869.811707,518
869.929016,501
870.046326,507
870.163635,520
870.280945,475
870.398254,518
870.515564,500
870.632812,509
870.750183,513
870.867432,516
870.984741,509
871.102051,502
871.219299,526
871.336609,512
871.453918,521
871.571106,531
871.688416,512
871.805664,509
871.922852,529
872.040222,547
872.157471,520
872.274719,515
872.391968,507
872.509155,523
872.626465,511
872.743652,520
872.860962,516
872.978149,524
873.095337,516
873.212646,516
873.329834,532
873.44696,509
873.564209,523
873.681396,495
873.798645,511
873.915894,507
874.03302,487
874.150208,511
874.267456,515
874.384583,539
874.501831,519
874.618958,518
874.736145,519
874.853333,499
874.970459,534
875.087646,524
875.204834,527
875.32196,534
875.439148,515
875.556274,522
875.673401,506
875.790527,499
875.907715,495
876.024841,521
876.141968,531
876.259094,503
876.376282,498
876.493347,502
876.610474,521
876.7276,523
876.844727,495
876.961853,495
877.078918,496
877.195984,501
877.313171,513
877.430237,498
877.547302,514
877.664368,487
877.781433,513
877.898499,487
878.015625,502
878.13269,498
878.249695,485
878.366821,503
878.483887,487
878.600952,495
878.717957,506
878.834961,502
878.952087,480
879.069092,477
879.186157,495
879.303162,497
879.420227,484
879.537231,487
879.654236,474
879.77124,502
879.888306,497
880.005249,495
880.122314,461
880.239319,478
880.356323,483
880.473328,481
880.590271,498
880.707275,485
880.824341,488
880.941284,486
881.058228,457
881.175232,468
881.292236,476
881.40918,484
881.526123,486
881.643066,497
881.760071,492
881.877014,476
881.993958,493
882.11084,489
882.227783,470
882.344727,471
882.46167,466
882.578613,502
882.695618,484
882.812439,470
882.929382,490
883.046326,488
883.163208,506
883.280151,486
883.397034,490
883.513916,489
883.630798,493
883.747742,473
883.864563,493
883.981506,478
884.098389,494
884.21521,494
884.332153,501
884.448975,515
884.565796,488
884.682678,513
884.7995,505
884.916443,521
885.033264,550
885.150085,541
885.266968,558
885.383789,552
885.500671,574
885.617493,551
885.734314,549
885.851196,573
885.967896,566
886.084717,559
886.201599,560
886.318359,577
886.435181,539
886.552002,567
886.668762,523
886.785645,543
886.902344,547
887.019165,556
887.135925,526
887.252747,533
887.369446,519
887.486267,529
887.603027,517
887.719788,535
887.836548,517
887.953247,524
888.070068,515
888.186829,519
888.303528,494
888.420288,491
888.536987,470
888.653687,468
888.770447,467
888.887146,476
889.003967,485
889.120667,466
889.237305,482
889.354065,490
889.470703,466
889.587463,465
889.704163,466
889.820862,472
889.937561,477
890.054199,450
890.170837,463
890.287598,464
890.404236,462
890.520874,467
890.637634,460
890.754211,487
890.87085,450
890.987549,480
891.104187,464
891.220886,473
891.337463,483
891.454102,472
891.57074,474
891.687378,461
891.804077,481
891.920654,468
892.037231,472
892.15387,490
892.270447,486
892.387085,487
892.503723,471
892.6203,463
892.736877,462
892.853516,471
892.970032,468
893.08667,464
893.203186,474
893.319763,471
893.43634,479
893.552917,462
893.669556,466
893.786011,460
893.902588,472
894.019165,460
894.135681,465
894.252197,466
894.368835,484
894.485291,481
894.601868,464
894.718384,471
894.8349,472
894.951355,461
895.067932,463
895.184448,473
895.300964,484
895.417419,476
895.533936,473
895.650452,478
895.766907,474
895.883423,476
895.999878,455
896.116333,478
896.232849,459
896.349304,472
896.465759,484
896.582214,474
896.698669,464
896.815125,472
896.931641,473
897.048035,490
897.164551,471
897.280884,486
897.397339,451
897.513794,475
897.630249,463
897.746582,482
897.863098,489
897.979431,453
898.095886,462
898.212341,471
898.328674,497
898.445129,467
898.561462,462
898.677795,475
898.794312,485
898.910645,469
899.026978,468
899.143433,477
899.259766,460
899.37616,497
899.492493,489
899.608765,463
899.725159,464
899.841553,472
899.957947,466
900.07428,466
900.190552,483
900.306946,483
900.423157,478
900.53949,491
900.655884,479
900.772156,474
900.888489,475
901.004822,471
901.121033,471
901.237366,497
901.353699,476
901.46991,496
901.586304,487
901.702515,477
901.818787,507
901.93512,502
902.051331,504
902.167603,503
902.283875,496
902.400085,513
902.516418,520
902.632629,525
902.74884,517
902.865112,518
902.981384,522
903.097595,498
903.213867,519
903.330017,517
903.446289,525
903.5625,506
903.67865,497
903.794922,504
903.911072,503
904.027344,532
904.143494,492
904.259705,497
904.375916,480
904.492065,477
904.608215,480
904.724426,490
904.840576,469
904.956726,474
905.072876,477
905.189087,480
905.305176,468
905.421387,483
905.537537,463
905.653687,473
905.769775,479
905.885925,492
906.002014,474
906.118164,489
906.234314,467
906.350403,467
906.466492,454
906.582642,477
906.69873,459
906.814758,473
906.930908,449
907.046936,489
907.163086,469
907.279175,468
907.395264,460
907.511353,467
907.62738,465
907.743408,469
907.859497,488
907.975525,474
908.091553,445
908.207703,444
908.32373,486
908.439758,467
908.555786,470
908.671814,483
908.787842,466
908.90387,475
909.019775,475
909.135864,475
909.251892,473
909.367859,497
909.483826,479
909.599854,485
909.715881,484
909.831848,486
909.947815,475
910.063782,476
910.179749,479
910.295776,477
910.411743,474
910.527649,469
910.643616,487
910.759583,470
910.875488,466
910.991455,457
911.107361,478
911.223267,475
911.339294,468
911.4552,463
911.571106,467
911.687073,487
911.802979,469
911.918823,462
912.034729,475
912.150635,463
912.266602,468
912.382446,461
912.498352,462
912.614197,474
912.730103,464
912.846008,465
