792.44574,606
792.56488,645
792.68396,712
792.80304,662
792.92218,644
793.041199,593
793.160339,619
793.279419,612
793.398499,625
793.517578,581
793.636658,582
793.755737,631
793.874817,585
793.993896,621
794.112976,594
794.232056,582
794.351074,593
794.470215,582
794.589233,582
794.708313,598
794.827393,595
794.946411,584
795.065552,584
795.18457,620
795.303589,599
795.422668,597
795.541687,593
795.660767,576
795.779846,599
795.898865,565
796.017883,604
796.136963,556
796.255981,594
796.375061,580
796.49408,587
796.613037,580
796.732117,597
796.851135,586
796.970154,596
797.089233,550
797.208191,564
797.327271,598
797.446228,591
797.565186,574
797.684265,583
797.803223,586
797.922241,599
798.04126,567
798.160278,575
798.279297,566
798.398315,580
798.517273,574
798.636292,560
798.75531,602
798.874268,593
798.993286,579
799.112244,584
799.231323,580
799.350281,575
799.469238,582
799.588257,588
799.707153,559
799.826111,567
799.945129,580
800.064087,562
800.183044,578
800.302063,550
800.421021,568
800.539978,581
800.658936,577
800.777893,568
800.896912,585
801.015747,583
801.134705,594
801.253723,587
801.37262,591
801.491638,607
801.610535,564
801.729492,580
801.84845,572
801.967407,606
802.086243,585
802.205261,579
802.324158,588
802.443115,581
802.562073,597
802.680969,605
802.799927,578
802.918762,598
803.037659,585
803.156677,602
803.275574,592
803.39447,594
803.513428,599
803.632263,590
803.751221,574
803.870117,601
803.989014,587
804.107971,594
804.226746,573
804.345642,627
804.4646,583
804.583496,609
804.702393,598
804.821228,600
804.940125,614
805.059021,615
805.177917,616
805.296814,595
805.415649,576
805.534546,590
805.653442,604
805.772278,614
805.891113,590
806.01001,639
806.128906,630
806.247742,616
806.366577,609
806.485413,608
806.604309,623
806.723145,615
806.84198,614
806.960876,613
807.079712,626
807.198486,605
807.317383,608
807.436218,579
807.554993,606
807.673889,608
807.792725,629
807.91156,617
808.030396,601
808.14917,605
808.268005,615
808.386841,608
808.505676,604
808.624451,635
808.743286,635
808.862122,654
808.980896,623
809.099731,615
809.218506,617
809.337341,615
809.456116,615
809.57489,631
809.693726,621
809.8125,646
809.931274,634
810.050049,634
810.168884,627
810.287659,600
810.406372,636
810.525269,624
810.643982,623
810.762756,649
810.881531,636
811.000305,624
811.11908,628
811.237854,610
811.356567,629
811.475403,628
811.594116,617
811.71283,627
811.831604,647
811.950378,654
812.069153,628
812.187927,668
812.30658,616
812.425415,624
812.544128,636
812.662781,625
812.781616,610
812.900269,621
813.019043,607
813.137756,627
813.256531,620
813.375244,628
813.493896,634
813.612671,636
813.731384,630
813.850037,652
813.96875,612
814.087524,621
814.206238,610
814.324951,626
814.443604,602
814.562256,634
814.68103,642
814.799683,625
814.918335,626
815.037109,622
815.155762,611
815.274475,635
815.393188,600
815.511841,608
815.630554,617
815.749146,591
815.867859,592
815.986572,608
816.105164,616
816.223877,592
816.342529,615
816.461182,619
816.579895,614
816.698486,622
816.817139,617
816.935791,629
817.054504,620
817.173096,622
817.291748,591
817.4104,614
817.529053,606
817.647644,597
817.766235,586
817.884949,588
818.00354,580
818.122192,558
818.240845,544
818.359436,539
818.478088,571
818.59668,564
818.715271,547
818.833923,520
818.952515,516
819.071106,522
819.189758,501
819.30835,505
819.426941,514
819.545532,510
819.664124,528
819.782715,516
819.901306,498
820.019897,496
820.138489,500
820.25708,511
820.375671,498
820.494202,507
820.612732,498
820.731384,492
820.849915,496
820.968506,506
821.087097,486
821.205627,489
821.324158,483
821.442749,498
821.561279,488
821.679871,478
821.798401,473
821.916931,494
822.035461,481
822.154053,489
822.272583,481
822.391174,508
822.509583,499
822.628174,495
822.746704,463
822.865234,475
822.983765,471
823.102295,482
823.220825,475
823.339294,485
823.457825,460
823.576355,463
823.694824,483
823.813354,473
823.931885,482
824.050354,486
824.168884,498
824.287354,487
824.405823,478
824.524353,507
824.642822,466
824.761353,499
824.879822,505
824.998291,498
825.116699,467
825.235291,477
825.353699,478
825.472168,499
825.590637,484
825.709106,497
825.827576,467
825.946045,459
826.064453,476
826.182983,460
826.301392,480
826.4198,485
826.53833,458
826.656738,462
826.775208,472
826.893677,475
827.012024,485
827.130493,463
827.248962,478
827.36731,450
827.485779,480
827.604248,472
827.722595,451
827.841064,483
827.959412,468
828.077942,468
828.196289,464
828.314636,457
828.433105,451
828.551514,459
828.669861,465
828.78833,459
828.906677,471
829.025085,489
829.143433,446
829.261841,452
829.38031,464
829.498657,468
829.617004,468
829.735413,466
829.85376,447
829.972107,458
830.090515,462
830.208862,461
830.327209,448
830.445557,459
830.563904,456
830.682312,453
830.800659,460
830.919006,438
831.037354,467
831.155701,450
831.274048,434
831.392395,454
831.51062,458
831.629028,466
831.747314,461
831.865662,450
831.984009,434
832.102356,465
832.220642,456
832.338928,467
832.457275,455
832.575623,454
832.693909,455
832.812134,477
832.930481,453
833.048828,448
833.167114,434
833.2854,440
833.403687,447
833.521973,465
833.640259,462
833.758545,453
833.876831,449
833.995056,454
834.113281,465
834.231628,459
834.349915,440
834.468201,458
834.586426,463
834.704651,491
834.822998,442
834.941162,457
835.059448,459
835.177673,469
835.295959,458
835.414246,457
835.53241,458
835.650635,470
835.768921,451
835.887146,455
836.005371,452
836.123596,454
836.241821,457
836.360046,470
836.478271,478
836.596497,492
836.714722,474
836.832886,451
836.95105,489
837.069336,480
837.1875,475
837.305725,480
837.423889,483
837.542053,493
837.660339,462
837.778503,453
837.896667,474
838.014832,473
838.132996,473
838.25116,483
838.369385,474
838.487488,482
838.605713,470
838.723877,488
838.84198,458
838.960205,450
839.078308,472
839.196472,469
839.314636,475
839.4328,477
839.550964,453
839.669067,490
839.787231,471
839.905396,458
840.023499,448
840.141602,469
840.259766,481
840.377869,455
840.495972,466
840.614136,459
840.732239,460
840.850342,459
840.968445,459
841.086548,464
841.204651,467
841.322754,471
841.440918,454
841.55896,464
841.677002,437
841.795166,451
841.913208,472
842.031311,467
842.149353,455
842.267456,448
842.385498,456
842.503601,462
842.621643,446
842.739746,444
842.857788,448
842.97583,460
843.093933,451
843.211975,441
843.330017,457
843.44812,439
843.566101,459
843.684204,444
843.802246,463
843.920227,461
844.038269,453
844.156311,443
844.274292,447
844.392395,449
844.510376,460
844.628357,435
844.74646,443
844.864441,456
844.982422,447
845.100403,459
845.218384,421
845.336426,431
845.454468,462
845.572449,464
845.69043,444
845.808411,424
845.926453,438
846.044373,461
846.162354,444
846.280396,453
846.398315,435
846.516296,435
846.634216,456
846.752197,451
846.870178,442
846.988098,440
847.106079,426
847.22406,451
847.34198,432
847.4599,461
847.577881,444
847.695801,446
847.813782,454
847.931641,465
848.049561,428
848.167603,457
848.285461,438
848.403381,447
848.521362,453
848.639221,457
848.75708,433
848.875,446
848.99292,447
849.110901,443
849.22876,443
849.34668,435
849.464539,463
849.582458,445
849.700317,458
849.818176,460
849.936096,448
850.053955,431
850.171875,442
850.289673,432
850.407593,440
850.525452,446
850.643311,443
850.761169,453
850.878967,445
850.996887,458
851.114746,457
851.232544,447
851.350403,434
851.468262,455
851.58606,446
851.703979,428
851.821777,439
851.939636,457
852.057434,443
852.175232,449
852.293091,447
852.410889,479
852.528687,438
852.646545,452
852.764343,445
852.88208,449
852.999939,459
853.117676,459
853.235535,447
853.353271,462
853.471069,454
853.588928,461
853.706604,463
853.824402,449
853.9422,454
854.059998,462
854.177734,452
854.295532,461
854.413269,445
854.531006,471
854.648804,455
854.766541,452
854.884277,442
855.002014,453
855.119751,454
855.237549,453
855.355225,441
855.473022,458
855.590698,450
855.708435,437
855.826172,452
855.943848,450
856.061646,455
856.179321,467
856.296997,466
856.414795,455
856.53241,451
856.650085,464
856.767822,451
856.885559,431
857.003174,449
857.120911,469
857.238586,451
857.356201,484
857.473938,461
857.591614,461
857.709351,447
857.826965,466
857.944641,462
858.062317,460
858.179993,428
858.297668,451
858.415283,439
858.532959,475
858.650574,448
858.768188,445
858.885803,458
859.003479,459
859.121094,459
859.23877,458
859.356384,436
859.473999,453
859.591675,452
859.709229,456
859.826843,460
859.944458,438
860.062012,454
860.179626,448
860.297302,455
860.414856,471
860.532471,445
860.650024,447
860.767639,443
860.885193,440
861.002808,434
861.120361,454
861.237976,454
861.35553,456
861.473022,441
861.590698,455
861.708191,432
861.825745,452
861.943298,446
862.060852,454
862.178406,456
862.295959,461
862.413513,469
862.531006,469
862.64856,446
862.766113,439
862.883667,432
863.00116,447
863.118713,443
863.236206,464
863.353699,439
863.471252,446
863.588745,439
863.706177,462
863.82373,450
863.941162,461
864.058716,461
864.176208,443
864.29364,440
864.411194,467
864.528687,443
864.646118,446
864.763611,444
864.881042,441
864.998535,457
865.116028,436
865.233459,449
865.350891,451
865.468384,441
865.585754,456
865.703308,446
865.820679,453
865.938171,467
866.055542,448
866.173035,457
866.290466,452
866.407837,454
866.52533,445
866.6427,452
866.760071,455
866.877563,453
866.994934,468
867.112305,453
867.229736,448
867.347107,446
867.464539,451
867.58197,441
867.699341,442
867.81665,449
867.934082,451
868.051453,459
868.168823,443
868.286194,433
868.403564,455
868.520935,449
868.638306,448
868.755676,445
868.872986,452
868.990295,446
869.107727,458
869.225037,456
869.342346,452
869.459717,451
869.577026,440
869.694336,449
869.811707,457
869.929016,434
870.046326,457
870.163635,442
870.280945,443
870.398254,447
870.515564,443
870.632812,457
870.750183,454
870.867432,445
870.984741,440
871.102051,441
871.219299,446
871.336609,454
871.453918,445
871.571106,447
871.688416,456
871.805664,441
871.922852,472
872.040222,472
872.157471,464
872.274719,444
872.391968,432
872.509155,437
872.626465,461
872.743652,447
872.860962,467
872.978149,458
873.095337,458
873.212646,442
873.329834,444
873.44696,443
873.564209,469
873.681396,439
873.798645,473
873.915894,443
874.03302,463
874.150208,459
874.267456,460
874.384583,459
874.501831,458
874.618958,439
874.736145,461
874.853333,449
874.970459,453
875.087646,445
875.204834,461
875.32196,455
875.439148,437
875.556274,439
875.673401,434
875.790527,429
875.907715,459
876.024841,433
876.141968,463
876.259094,448
876.376282,451
876.493347,452
876.610474,436
876.7276,438
876.844727,451
876.961853,441
877.078918,467
877.195984,456
877.313171,451
877.430237,432
877.547302,461
877.664368,436
877.781433,453
877.898499,447
878.015625,476
878.13269,445
878.249695,443
878.366821,457
878.483887,455
878.600952,444
878.717957,466
878.834961,461
878.952087,445
879.069092,457
879.186157,469
879.303162,447
879.420227,476
879.537231,448
879.654236,437
879.77124,444
879.888306,458
880.005249,437
880.122314,461
880.239319,435
880.356323,459
880.473328,441
880.590271,456
880.707275,440
880.824341,445
880.941284,464
881.058228,442
881.175232,441
881.292236,473
881.40918,460
881.526123,460
881.643066,438
881.760071,440
881.877014,441
881.993958,450
882.11084,459
882.227783,464
882.344727,441
882.46167,437
882.578613,467
882.695618,462
882.812439,441
882.929382,463
883.046326,440
883.163208,453
883.280151,460
883.397034,462
883.513916,465
883.630798,451
883.747742,445
883.864563,475
883.981506,452
884.098389,436
884.21521,442
884.332153,455
884.448975,431
884.565796,437
884.682678,453
884.7995,433
884.916443,463
885.033264,460
885.150085,453
885.266968,467
885.383789,457
885.500671,466
885.617493,471
885.734314,455
885.851196,452
885.967896,454
886.084717,445
886.201599,454
886.318359,445
886.435181,452
886.552002,467
886.668762,458
886.785645,449
886.902344,442
887.019165,455
887.135925,465
887.252747,464
887.369446,453
887.486267,442
887.603027,444
887.719788,424
887.836548,458
887.953247,453
888.070068,464
888.186829,473
888.303528,477
888.420288,477
888.536987,449
888.653687,442
888.770447,456
888.887146,443
889.003967,454
889.120667,464
889.237305,458
889.354065,445
889.470703,475
889.587463,446
889.704163,454
889.820862,453
889.937561,452
890.054199,437
890.170837,464
890.287598,433
890.404236,444
890.520874,466
890.637634,454
890.754211,468
890.87085,464
890.987549,451
891.104187,482
891.220886,474
891.337463,466
891.454102,461
891.57074,446
891.687378,454
891.804077,456
891.920654,470
892.037231,469
892.15387,479
892.270447,450
892.387085,443
892.503723,474
892.6203,469
892.736877,459
892.853516,451
892.970032,480
893.08667,470
893.203186,469
893.319763,475
893.43634,492
893.552917,451
893.669556,452
893.786011,460
893.902588,472
894.019165,461
894.135681,468
894.252197,441
894.368835,474
894.485291,465
894.601868,457
894.718384,467
894.8349,453
894.951355,462
895.067932,471
895.184448,452
895.300964,474
895.417419,454
895.533936,457
895.650452,454
895.766907,442
895.883423,449
895.999878,481
896.116333,449
896.232849,464
896.349304,453
896.465759,483
896.582214,469
896.698669,450
896.815125,462
896.931641,471
897.048035,453
897.164551,488
897.280884,463
897.397339,467
897.513794,449
897.630249,456
897.746582,469
897.863098,472
897.979431,475
898.095886,451
898.212341,458
898.328674,454
898.445129,466
898.561462,454
898.677795,459
898.794312,460
898.910645,460
899.026978,464
899.143433,459
899.259766,461
899.37616,478
899.492493,461
899.608765,460
899.725159,474
899.841553,471
899.957947,461
900.07428,451
900.190552,460
900.306946,459
900.423157,450
900.53949,470
900.655884,448
900.772156,452
900.888489,459
901.004822,464
901.121033,457
901.237366,457
901.353699,465
901.46991,459
901.586304,464
901.702515,443
901.818787,466
901.93512,474
902.051331,464
902.167603,473
902.283875,473
902.400085,452
902.516418,468
902.632629,462
902.74884,480
902.865112,481
902.981384,487
903.097595,472
903.213867,452
903.330017,483
903.446289,458
903.5625,485
903.67865,488
903.794922,474
903.911072,456
904.027344,458
904.143494,481
904.259705,448
904.375916,476
904.492065,466
904.608215,469
904.724426,466
904.840576,446
904.956726,465
905.072876,446
905.189087,451
905.305176,460
905.421387,471
905.537537,470
905.653687,458
905.769775,458
905.885925,455
906.002014,476
906.118164,452
906.234314,475
906.350403,462
906.466492,470
906.582642,446
906.69873,485
906.814758,461
906.930908,476
907.046936,478
907.163086,455
907.279175,440
907.395264,478
907.511353,460
907.62738,451
907.743408,454
907.859497,463
907.975525,458
908.091553,478
908.207703,461
908.32373,466
908.439758,471
908.555786,469
908.671814,452
908.787842,461
908.90387,469
909.019775,477
909.135864,473
909.251892,450
909.367859,482
909.483826,490
909.599854,467
909.715881,469
909.831848,470
909.947815,462
910.063782,467
910.179749,461
910.295776,448
910.411743,472
910.527649,471
910.643616,452
910.759583,458
910.875488,478
910.991455,461
911.107361,492
911.223267,461
911.339294,479
911.4552,434
911.571106,449
911.687073,478
911.802979,481
911.918823,484
912.034729,458
912.150635,455
912.266602,467
912.382446,462
912.498352,473
912.614197,458
912.730103,476
912.846008,484
792.44574,606
792.56488,663
792.68396,680
792.80304,684
792.92218,640
793.041199,608
793.160339,623
793.279419,611
793.398499,632
793.517578,583
793.636658,595
793.755737,632
793.874817,612
793.993896,604
794.112976,589
794.232056,613
794.351074,598
794.470215,613
794.589233,611
794.708313,588
794.827393,599
794.946411,604
795.065552,613
795.18457,584
795.303589,599
795.422668,594
795.541687,605
795.660767,598
795.779846,612
795.898865,574
796.017883,589
796.136963,580
796.255981,614
796.375061,587
796.49408,588
796.613037,589
796.732117,594
796.851135,592
796.970154,565
797.089233,561
797.208191,596
797.327271,602
797.446228,581
797.565186,590
797.684265,572
797.803223,571
797.922241,583
798.04126,586
798.160278,587
798.279297,589
798.398315,577
798.517273,592
798.636292,585
798.75531,589
798.874268,607
798.993286,579
799.112244,575
799.231323,602
799.350281,593
799.469238,594
799.588257,579
799.707153,557
799.826111,567
799.945129,591
800.064087,583
800.183044,603
800.302063,590
800.421021,599
800.539978,579
800.658936,581
800.777893,577
800.896912,583
801.015747,571
801.134705,610
801.253723,584
801.37262,604
801.491638,575
801.610535,585
801.729492,579
801.84845,581
801.967407,593
802.086243,592
802.205261,589
802.324158,592
802.443115,573
802.562073,568
802.680969,590
802.799927,591
802.918762,587
803.037659,583
803.156677,584
803.275574,604
803.39447,597
803.513428,588
803.632263,612
803.751221,582
803.870117,596
803.989014,606
804.107971,616
804.226746,612
804.345642,597
804.4646,592
804.583496,593
804.702393,615
804.821228,619
804.940125,611
805.059021,610
805.177917,582
805.296814,614
805.415649,625
805.534546,602
805.653442,607
805.772278,604
805.891113,603
806.01001,598
806.128906,600
806.247742,636
806.366577,607
806.485413,626
806.604309,625
806.723145,601
806.84198,625
806.960876,618
807.079712,613
807.198486,624
807.317383,615
807.436218,611
807.554993,611
807.673889,645
807.792725,619
807.91156,617
808.030396,611
808.14917,618
808.268005,634
808.386841,597
808.505676,628
808.624451,611
808.743286,617
808.862122,632
808.980896,611
809.099731,630
809.218506,632
809.337341,597
809.456116,628
809.57489,611
809.693726,615
809.8125,616
809.931274,634
810.050049,624
810.168884,626
810.287659,646
810.406372,654
810.525269,609
810.643982,617
810.762756,624
810.881531,639
811.000305,650
811.11908,671
811.237854,640
811.356567,615
811.475403,628
811.594116,629
811.71283,616
811.831604,631
811.950378,648
812.069153,628
812.187927,631
812.30658,643
812.425415,623
812.544128,635
812.662781,636
812.781616,638
812.900269,643
813.019043,623
813.137756,644
813.256531,618
813.375244,644
813.493896,630
813.612671,619
813.731384,638
813.850037,619
813.96875,639
814.087524,627
814.206238,592
814.324951,643
814.443604,621
814.562256,622
814.68103,655
814.799683,609
814.918335,623
815.037109,615
815.155762,630
815.274475,606
815.393188,601
815.511841,635
815.630554,623
815.749146,617
815.867859,601
815.986572,621
816.105164,609
816.223877,615
816.342529,614
816.461182,636
816.579895,611
816.698486,623
816.817139,616
816.935791,614
817.054504,617
817.173096,597
817.291748,614
817.4104,606
817.529053,629
817.647644,586
817.766235,589
817.884949,577
818.00354,570
818.122192,566
818.240845,554
818.359436,544
818.478088,547
818.59668,545
818.715271,531
818.833923,526
818.952515,508
819.071106,531
819.189758,514
819.30835,503
819.426941,526
819.545532,520
819.664124,494
819.782715,490
819.901306,493
820.019897,499
820.138489,511
820.25708,498
820.375671,491
820.494202,490
820.612732,496
820.731384,483
820.849915,488
820.968506,503
821.087097,491
821.205627,502
821.324158,502
821.442749,494
821.561279,463
821.679871,483
821.798401,500
821.916931,493
822.035461,473
822.154053,498
822.272583,471
822.391174,476
822.509583,513
822.628174,486
822.746704,473
822.865234,468
822.983765,488
823.102295,467
823.220825,490
823.339294,480
823.457825,491
823.576355,479
823.694824,495
823.813354,482
823.931885,484
824.050354,472
824.168884,484
824.287354,500
824.405823,510
824.524353,495
824.642822,488
824.761353,506
824.879822,489
824.998291,481
825.116699,501
825.235291,489
825.353699,486
825.472168,477
825.590637,483
825.709106,465
825.827576,464
825.946045,473
826.064453,482
826.182983,470
826.301392,473
826.4198,468
826.53833,479
826.656738,475
826.775208,453
826.893677,478
827.012024,455
827.130493,464
827.248962,481
827.36731,496
827.485779,448
827.604248,453
827.722595,464
827.841064,469
827.959412,467
828.077942,462
828.196289,474
828.314636,460
828.433105,484
828.551514,463
828.669861,477
828.78833,445
828.906677,463
829.025085,460
829.143433,466
829.261841,450
829.38031,482
829.498657,460
829.617004,457
829.735413,445
829.85376,481
829.972107,464
830.090515,458
830.208862,460
830.327209,474
830.445557,448
830.563904,445
830.682312,470
830.800659,453
830.919006,449
831.037354,464
831.155701,463
831.274048,472
831.392395,440
831.51062,462
831.629028,443
831.747314,472
831.865662,445
831.984009,470
832.102356,470
832.220642,450
832.338928,470
832.457275,454
832.575623,458
832.693909,470
832.812134,440
832.930481,459
833.048828,447
833.167114,453
833.2854,455
833.403687,473
833.521973,457
833.640259,454
833.758545,453
833.876831,442
833.995056,445
834.113281,465
834.231628,463
834.349915,466
834.468201,445
834.586426,466
834.704651,456
834.822998,452
834.941162,459
835.059448,473
835.177673,466
835.295959,464
835.414246,441
835.53241,477
835.650635,464
835.768921,467
835.887146,486
836.005371,480
836.123596,470
836.241821,478
836.360046,476
836.478271,468
836.596497,468
836.714722,462
836.832886,475
836.95105,475
837.069336,488
837.1875,487
837.305725,476
837.423889,473
837.542053,490
837.660339,475
837.778503,477
837.896667,489
838.014832,487
838.132996,475
838.25116,481
838.369385,471
838.487488,479
838.605713,489
838.723877,468
838.84198,465
838.960205,460
839.078308,488
839.196472,472
839.314636,479
839.4328,478
839.550964,469
839.669067,471
839.787231,466
839.905396,472
840.023499,476
840.141602,481
840.259766,489
840.377869,477
840.495972,466
840.614136,479
840.732239,464
840.850342,450
840.968445,469
841.086548,464
841.204651,454
841.322754,462
841.440918,475
841.55896,479
841.677002,471
841.795166,433
841.913208,460
842.031311,479
842.149353,440
842.267456,459
842.385498,459
842.503601,471
842.621643,456
842.739746,439
842.857788,472
842.97583,441
843.093933,448
843.211975,452
843.330017,454
843.44812,471
843.566101,489
843.684204,455
843.802246,443
843.920227,459
844.038269,447
844.156311,455
844.274292,455
844.392395,463
844.510376,475
844.628357,437
844.74646,451
844.864441,452
844.982422,436
845.100403,450
845.218384,454
845.336426,458
845.454468,448
845.572449,449
845.69043,442
845.808411,440
845.926453,439
846.044373,446
846.162354,452
846.280396,463
846.398315,448
846.516296,433
846.634216,446
846.752197,470
846.870178,438
846.988098,447
847.106079,454
847.22406,455
847.34198,453
847.4599,464
847.577881,459
847.695801,428
847.813782,445
847.931641,433
848.049561,449
848.167603,458
848.285461,476
848.403381,446
848.521362,456
848.639221,454
848.75708,427
848.875,448
848.99292,441
849.110901,439
849.22876,454
849.34668,431
849.464539,447
849.582458,457
849.700317,438
849.818176,445
849.936096,449
850.053955,460
850.171875,456
850.289673,448
850.407593,444
850.525452,435
850.643311,452
850.761169,429
850.878967,442
850.996887,450
851.114746,464
851.232544,430
851.350403,454
851.468262,482
851.58606,449
851.703979,449
851.821777,456
851.939636,407
852.057434,458
852.175232,447
852.293091,444
852.410889,443
852.528687,450
852.646545,444
852.764343,457
852.88208,444
852.999939,434
853.117676,445
853.235535,455
853.353271,453
853.471069,442
853.588928,468
853.706604,458
853.824402,472
853.9422,446
854.059998,464
854.177734,445
854.295532,447
854.413269,477
854.531006,456
854.648804,467
854.766541,470
854.884277,462
855.002014,452
855.119751,448
855.237549,442
855.355225,467
855.473022,460
855.590698,450
855.708435,457
855.826172,449
855.943848,470
856.061646,456
856.179321,453
856.296997,443
856.414795,464
856.53241,453
856.650085,458
856.767822,478
856.885559,482
857.003174,461
857.120911,473
857.238586,445
857.356201,465
857.473938,462
857.591614,457
857.709351,453
857.826965,452
857.944641,456
858.062317,467
858.179993,455
858.297668,452
858.415283,454
858.532959,453
858.650574,455
858.768188,471
858.885803,464
859.003479,460
859.121094,461
859.23877,454
859.356384,447
859.473999,436
859.591675,441
859.709229,452
859.826843,437
859.944458,459
860.062012,453
860.179626,457
860.297302,447
860.414856,440
860.532471,464
860.650024,461
860.767639,469
860.885193,462
861.002808,461
861.120361,436
861.237976,454
861.35553,458
861.473022,459
861.590698,461
861.708191,452
861.825745,458
861.943298,457
862.060852,464
862.178406,449
862.295959,461
862.413513,459
862.531006,448
862.64856,463
862.766113,460
862.883667,447
863.00116,457
863.118713,463
863.236206,465
863.353699,445
863.471252,457
863.588745,448
863.706177,444
863.82373,426
863.941162,442
864.058716,448
864.176208,460
864.29364,477
864.411194,450
864.528687,451
864.646118,438
864.763611,458
864.881042,441
864.998535,460
865.116028,477
865.233459,445
865.350891,441
865.468384,450
865.585754,460
865.703308,463
865.820679,449
865.938171,445
866.055542,458
866.173035,454
866.290466,452
866.407837,445
866.52533,454
866.6427,459
866.760071,450
866.877563,459
866.994934,463
867.112305,441
867.229736,446
867.347107,473
867.464539,476
867.58197,465
867.699341,452
867.81665,448
867.934082,448
868.051453,464
868.168823,435
868.286194,441
868.403564,460
868.520935,477
868.638306,457
868.755676,451
868.872986,456
868.990295,455
869.107727,461
869.225037,452
869.342346,458
869.459717,454
869.577026,455
869.694336,463
869.811707,435
869.929016,458
870.046326,462
870.163635,455
870.280945,468
870.398254,452
870.515564,458
870.632812,455
870.750183,446
870.867432,476
870.984741,453
871.102051,458
871.219299,453
871.336609,458
871.453918,453
871.571106,459
871.688416,445
871.805664,458
871.922852,451
872.040222,444
872.157471,474
872.274719,464
872.391968,456
872.509155,463
872.626465,429
872.743652,445
872.860962,483
872.978149,452
873.095337,453
873.212646,467
873.329834,435
873.44696,461
873.564209,467
873.681396,449
873.798645,462
873.915894,452
874.03302,437
874.150208,461
874.267456,458
874.384583,461
874.501831,431
874.618958,473
874.736145,446
874.853333,452
874.970459,448
875.087646,457
875.204834,446
875.32196,454
875.439148,435
875.556274,455
875.673401,464
875.790527,458
875.907715,449
876.024841,434
876.141968,462
876.259094,458
876.376282,458
876.493347,444
876.610474,432
876.7276,458
876.844727,452
876.961853,462
877.078918,440
877.195984,474
877.313171,450
877.430237,448
877.547302,439
877.664368,464
877.781433,454
877.898499,465
878.015625,460
878.13269,450
878.249695,455
878.366821,460
878.483887,443
878.600952,447
878.717957,454
878.834961,459
878.952087,440
879.069092,459
879.186157,442
879.303162,453
879.420227,448
879.537231,448
879.654236,448
879.77124,455
879.888306,439
880.005249,467
880.122314,450
880.239319,463
880.356323,461
880.473328,443
880.590271,466
880.707275,474
880.824341,449
880.941284,471
881.058228,453
881.175232,463
881.292236,457
881.40918,463
881.526123,448
881.643066,447
881.760071,453
881.877014,446
881.993958,450
882.11084,429
882.227783,467
882.344727,466
882.46167,489
882.578613,452
882.695618,458
882.812439,446
882.929382,448
883.046326,454
883.163208,468
883.280151,456
883.397034,437
883.513916,454
883.630798,478
883.747742,460
883.864563,444
883.981506,441
884.098389,442
884.21521,465
884.332153,464
884.448975,454
884.565796,466
884.682678,450
884.7995,439
884.916443,467
885.033264,476
885.150085,457
885.266968,482
885.383789,461
885.500671,454
885.617493,454
885.734314,455
885.851196,461
885.967896,451
886.084717,463
886.201599,445
886.318359,454
886.435181,449
886.552002,449
886.668762,474
886.785645,455
886.902344,456
887.019165,459
887.135925,443
887.252747,460
887.369446,444
887.486267,467
887.603027,464
887.719788,455
887.836548,446
887.953247,474
888.070068,458
888.186829,470
888.303528,467
888.420288,462
888.536987,453
888.653687,444
888.770447,472
888.887146,464
889.003967,465
889.120667,477
889.237305,466
889.354065,460
889.470703,465
889.587463,456
889.704163,461
889.820862,471
889.937561,447
890.054199,463
890.170837,454
890.287598,474
890.404236,460
890.520874,456
890.637634,457
890.754211,477
890.87085,458
890.987549,454
891.104187,458
891.220886,465
891.337463,468
891.454102,439
891.57074,462
891.687378,468
891.804077,463
891.920654,464
892.037231,452
892.15387,459
892.270447,441
892.387085,468
892.503723,471
892.6203,460
892.736877,466
892.853516,447
892.970032,451
893.08667,451
893.203186,487
893.319763,475
893.43634,459
893.552917,462
893.669556,452
893.786011,463
893.902588,457
894.019165,459
894.135681,458
894.252197,474
894.368835,456
894.485291,465
894.601868,466
894.718384,463
894.8349,478
894.951355,463
895.067932,467
895.184448,459
895.300964,473
895.417419,457
895.533936,455
895.650452,452
895.766907,471
895.883423,481
895.999878,462
896.116333,487
896.232849,476
896.349304,472
896.465759,441
896.582214,477
896.698669,461
896.815125,459
896.931641,463
897.048035,474
897.164551,462
897.280884,460
897.397339,459
897.513794,478
897.630249,468
897.746582,473
897.863098,457
897.979431,475
898.095886,472
898.212341,464
898.328674,457
898.445129,452
898.561462,456
898.677795,473
898.794312,471
898.910645,474
899.026978,485
899.143433,453
899.259766,453
899.37616,441
899.492493,473
899.608765,475
899.725159,466
899.841553,487
899.957947,462
900.07428,471
900.190552,475
900.306946,461
900.423157,467
900.53949,475
900.655884,460
900.772156,466
900.888489,454
901.004822,479
901.121033,452
901.237366,461
901.353699,459
901.46991,470
901.586304,464
901.702515,444
901.818787,447
901.93512,463
902.051331,467
902.167603,481
902.283875,459
902.400085,461
902.516418,451
902.632629,472
902.74884,474
902.865112,485
902.981384,465
903.097595,485
903.213867,463
903.330017,469
903.446289,487
903.5625,478
903.67865,471
903.794922,468
903.911072,472
904.027344,468
904.143494,469
904.259705,474
904.375916,450
904.492065,463
904.608215,469
904.724426,469
904.840576,469
904.956726,444
905.072876,478
905.189087,476
905.305176,466
905.421387,471
905.537537,472
905.653687,476
905.769775,453
905.885925,470
906.002014,460
906.118164,472
906.234314,482
906.350403,474
906.466492,472
906.582642,470
906.69873,465
906.814758,456
906.930908,459
907.046936,506
907.163086,483
907.279175,462
907.395264,487
907.511353,485
907.62738,485
907.743408,478
907.859497,457
907.975525,481
908.091553,451
908.207703,462
908.32373,483
908.439758,465
908.555786,478
908.671814,472
908.787842,481
908.90387,472
909.019775,475
909.135864,466
909.251892,456
909.367859,464
909.483826,466
909.599854,473
909.715881,474
909.831848,497
909.947815,468
910.063782,459
910.179749,447
910.295776,481
910.411743,450
910.527649,480
910.643616,470
910.759583,455
910.875488,477
910.991455,455
911.107361,458
911.223267,466
911.339294,459
911.4552,444
911.571106,462
911.687073,458
911.802979,470
911.918823,460
912.034729,465
912.150635,471
912.266602,458
912.382446,464
912.498352,482
912.614197,465
912.730103,450
912.846008,462
792.44574,618
792.56488,670
792.68396,709
792.80304,668
792.92218,630
793.041199,599
793.160339,619
793.279419,611
793.398499,642
793.517578,607
793.636658,589
793.755737,623
793.874817,636
793.993896,630
794.112976,623
794.232056,607
794.351074,596
794.470215,590
794.589233,612
794.708313,600
794.827393,580
794.946411,596
795.065552,616
795.18457,606
795.303589,593
795.422668,588
795.541687,588
795.660767,592
795.779846,594
795.898865,585
796.017883,573
796.136963,587
796.255981,593
796.375061,588
796.49408,586
796.613037,585
796.732117,585
796.851135,602
796.970154,587
797.089233,571
797.208191,582
797.327271,583
797.446228,591
797.565186,559
797.684265,589
797.803223,557
797.922241,605
798.04126,561
798.160278,584
798.279297,586
798.398315,588
798.517273,580
798.636292,588
798.75531,550
798.874268,565
798.993286,591
799.112244,592
799.231323,591
799.350281,558
799.469238,590
799.588257,589
799.707153,545
799.826111,601
799.945129,565
800.064087,596
800.183044,568
800.302063,577
800.421021,595
800.539978,568
800.658936,595
800.777893,586
800.896912,601
801.015747,576
801.134705,587
801.253723,567
801.37262,576
801.491638,584
801.610535,576
801.729492,591
801.84845,591
801.967407,577
802.086243,601
802.205261,597
802.324158,579
802.443115,595
802.562073,583
802.680969,592
802.799927,579
802.918762,592
803.037659,592
803.156677,605
803.275574,608
803.39447,612
803.513428,613
803.632263,596
803.751221,606
803.870117,615
803.989014,600
804.107971,598
804.226746,616
804.345642,594
804.4646,634
804.583496,616
804.702393,604
804.821228,618
804.940125,596
805.059021,624
805.177917,604
805.296814,636
805.415649,592
805.534546,612
805.653442,614
805.772278,590
805.891113,619
806.01001,633
806.128906,607
806.247742,619
806.366577,599
806.485413,630
806.604309,606
806.723145,607
806.84198,594
806.960876,642
807.079712,595
807.198486,605
807.317383,625
807.436218,627
807.554993,612
807.673889,607
807.792725,604
807.91156,597
808.030396,616
808.14917,631
808.268005,605
808.386841,630
808.505676,633
808.624451,624
808.743286,603
808.862122,641
808.980896,602
809.099731,619
809.218506,619
809.337341,632
809.456116,615
809.57489,621
809.693726,620
809.8125,640
809.931274,617
810.050049,639
810.168884,592
810.287659,643
810.406372,581
810.525269,649
810.643982,605
810.762756,618
810.881531,647
811.000305,650
811.11908,630
811.237854,643
811.356567,638
811.475403,611
811.594116,621
811.71283,612
811.831604,648
811.950378,637
812.069153,611
812.187927,638
812.30658,641
812.425415,639
812.544128,619
812.662781,620
812.781616,647
812.900269,643
813.019043,634
813.137756,639
813.256531,635
813.375244,646
813.493896,636
813.612671,625
813.731384,626
813.850037,647
813.96875,607
814.087524,618
814.206238,623
814.324951,614
814.443604,626
814.562256,613
814.68103,633
814.799683,628
814.918335,602
815.037109,627
815.155762,635
815.274475,623
815.393188,617
815.511841,633
815.630554,613
815.749146,621
815.867859,605
815.986572,614
816.105164,614
816.223877,599
816.342529,609
816.461182,608
816.579895,610
816.698486,640
816.817139,624
816.935791,611
817.054504,620
817.173096,630
817.291748,601
817.4104,624
817.529053,589
817.647644,596
817.766235,591
817.884949,587
818.00354,590
818.122192,570
818.240845,561
818.359436,573
818.478088,529
818.59668,537
818.715271,535
818.833923,527
818.952515,524
819.071106,545
819.189758,517
819.30835,524
819.426941,521
819.545532,532
819.664124,527
819.782715,500
819.901306,500
820.019897,513
820.138489,527
820.25708,492
820.375671,486
820.494202,495
820.612732,488
820.731384,514
820.849915,486
820.968506,492
821.087097,475
821.205627,492
821.324158,489
821.442749,481
821.561279,474
821.679871,496
821.798401,482
821.916931,477
822.035461,494
822.154053,485
822.272583,485
822.391174,484
822.509583,491
822.628174,496
822.746704,463
822.865234,498
822.983765,460
823.102295,486
823.220825,463
823.339294,479
823.457825,481
823.576355,490
823.694824,494
823.813354,497
823.931885,481
824.050354,496
824.168884,499
824.287354,493
824.405823,500
824.524353,488
824.642822,481
824.761353,491
824.879822,500
824.998291,488
825.116699,496
825.235291,497
825.353699,499
825.472168,496
825.590637,474
825.709106,465
825.827576,484
825.946045,468
826.064453,465
826.182983,481
826.301392,471
826.4198,456
826.53833,437
826.656738,487
826.775208,459
826.893677,467
827.012024,476
827.130493,475
827.248962,466
827.36731,453
827.485779,478
827.604248,463
827.722595,479
827.841064,469
827.959412,489
828.077942,451
828.196289,461
828.314636,444
828.433105,470
828.551514,472
828.669861,458
828.78833,468
828.906677,457
829.025085,463
829.143433,458
829.261841,472
829.38031,460
829.498657,470
829.617004,490
829.735413,459
829.85376,458
829.972107,457
830.090515,455
830.208862,479
830.327209,445
830.445557,470
830.563904,456
830.682312,471
830.800659,448
830.919006,460
831.037354,469
831.155701,475
831.274048,446
831.392395,457
831.51062,447
831.629028,468
831.747314,471
831.865662,466
831.984009,466
832.102356,457
832.220642,470
832.338928,465
832.457275,457
832.575623,483
832.693909,439
832.812134,470
832.930481,456
833.048828,453
833.167114,459
833.2854,466
833.403687,486
833.521973,484
833.640259,469
833.758545,461
833.876831,477
833.995056,456
834.113281,468
834.231628,439
834.349915,455
834.468201,467
834.586426,471
834.704651,474
834.822998,462
834.941162,460
835.059448,468
835.177673,466
835.295959,473
835.414246,463
835.53241,458
835.650635,464
835.768921,437
835.887146,468
836.005371,458
836.123596,473
836.241821,472
836.360046,460
836.478271,486
836.596497,480
836.714722,470
836.832886,487
836.95105,482
837.069336,497
837.1875,482
837.305725,484
837.423889,485
837.542053,483
837.660339,479
837.778503,474
837.896667,480
838.014832,473
838.132996,486
838.25116,460
838.369385,471
838.487488,461
838.605713,469
838.723877,478
838.84198,454
838.960205,473
839.078308,493
839.196472,487
839.314636,493
839.4328,460
839.550964,476
839.669067,465
839.787231,465
839.905396,465
840.023499,465
840.141602,475
840.259766,486
840.377869,483
840.495972,468
840.614136,490
840.732239,460
840.850342,473
840.968445,493
841.086548,464
841.204651,459
841.322754,475
841.440918,476
841.55896,477
841.677002,468
841.795166,459
841.913208,484
842.031311,473
842.149353,465
842.267456,451
842.385498,459
842.503601,455
842.621643,455
842.739746,459
842.857788,427
842.97583,466
843.093933,442
843.211975,461
843.330017,451
843.44812,451
843.566101,454
843.684204,466
843.802246,437
843.920227,445
844.038269,452
844.156311,439
844.274292,463
844.392395,449
844.510376,462
844.628357,450
844.74646,453
844.864441,461
844.982422,433
845.100403,465
845.218384,450
845.336426,446
845.454468,443
845.572449,452
845.69043,452
845.808411,451
845.926453,455
846.044373,448
846.162354,447
846.280396,445
846.398315,431
846.516296,442
846.634216,452
846.752197,466
846.870178,464
846.988098,447
847.106079,459
847.22406,447
847.34198,458
847.4599,435
847.577881,435
847.695801,450
847.813782,447
847.931641,446
848.049561,433
848.167603,471
848.285461,456
848.403381,440
848.521362,450
848.639221,461
848.75708,477
848.875,460
848.99292,442
849.110901,446
849.22876,460
849.34668,446
849.464539,447
849.582458,476
849.700317,446
849.818176,454
849.936096,463
850.053955,440
850.171875,458
850.289673,456
850.407593,454
850.525452,439
850.643311,463
850.761169,454
850.878967,465
850.996887,482
851.114746,439
851.232544,454
851.350403,449
851.468262,455
851.58606,445
851.703979,449
851.821777,440
851.939636,468
852.057434,428
852.175232,447
852.293091,441
852.410889,455
852.528687,458
852.646545,449
852.764343,436
852.88208,447
852.999939,459
853.117676,440
853.235535,447
853.353271,447
853.471069,451
853.588928,459
853.706604,453
853.824402,459
853.9422,441
854.059998,444
854.177734,464
854.295532,447
854.413269,483
854.531006,462
854.648804,432
854.766541,466
854.884277,450
855.002014,454
855.119751,438
855.237549,460
855.355225,470
855.473022,470
855.590698,466
855.708435,469
855.826172,445
855.943848,462
856.061646,453
856.179321,451
856.296997,437
856.414795,465
856.53241,465
856.650085,448
856.767822,440
856.885559,473
857.003174,459
857.120911,458
857.238586,460
857.356201,464
857.473938,435
857.591614,459
857.709351,453
857.826965,448
857.944641,458
858.062317,438
858.179993,458
858.297668,453
858.415283,458
858.532959,469
858.650574,459
858.768188,460
858.885803,455
859.003479,443
859.121094,468
859.23877,475
859.356384,459
859.473999,471
859.591675,456
859.709229,453
859.826843,457
859.944458,461
860.062012,454
860.179626,476
860.297302,447
860.414856,468
860.532471,464
860.650024,445
860.767639,448
860.885193,462
861.002808,457
861.120361,443
861.237976,465
861.35553,463
861.473022,457
861.590698,454
861.708191,443
861.825745,456
861.943298,452
862.060852,467
862.178406,443
862.295959,482
862.413513,461
862.531006,463
862.64856,440
862.766113,450
862.883667,437
863.00116,451
863.118713,465
863.236206,457
863.353699,451
863.471252,456
863.588745,456
863.706177,452
863.82373,451
863.941162,455
864.058716,438
864.176208,455
864.29364,438
864.411194,455
864.528687,452
864.646118,459
864.763611,458
864.881042,452
864.998535,466
865.116028,454
865.233459,453
865.350891,461
865.468384,454
865.585754,476
865.703308,444
865.820679,432
865.938171,456
866.055542,460
866.173035,478
866.290466,470
866.407837,460
866.52533,457
866.6427,430
866.760071,479
866.877563,453
866.994934,459
867.112305,457
867.229736,461
867.347107,443
867.464539,457
867.58197,463
867.699341,447
867.81665,473
867.934082,443
868.051453,452
868.168823,453
868.286194,455
868.403564,460
868.520935,453
868.638306,455
868.755676,453
868.872986,461
868.990295,461
869.107727,449
869.225037,468
869.342346,464
869.459717,450
869.577026,463
869.694336,473
869.811707,470
869.929016,470
870.046326,455
870.163635,451
870.280945,460
870.398254,466
870.515564,444
870.632812,452
870.750183,446
870.867432,457
870.984741,457
871.102051,432
871.219299,458
871.336609,462
871.453918,450
871.571106,458
871.688416,458
871.805664,467
871.922852,466
872.040222,461
872.157471,465
872.274719,449
872.391968,470
872.509155,462
872.626465,455
872.743652,464
872.860962,460
872.978149,452
873.095337,457
873.212646,472
873.329834,461
873.44696,457
873.564209,460
873.681396,448
873.798645,462
873.915894,455
874.03302,468
874.150208,451
874.267456,449
874.384583,450
874.501831,446
874.618958,459
874.736145,456
874.853333,465
874.970459,453
875.087646,447
875.204834,448
875.32196,446
875.439148,442
875.556274,436
875.673401,454
875.790527,429
875.907715,456
876.024841,462
876.141968,470
876.259094,466
876.376282,461
876.493347,449
876.610474,453
876.7276,458
876.844727,446
876.961853,455
877.078918,463
877.195984,448
877.313171,470
877.430237,448
877.547302,458
877.664368,432
877.781433,444
877.898499,442
878.015625,447
878.13269,455
878.249695,454
878.366821,458
878.483887,449
878.600952,444
878.717957,447
878.834961,452
878.952087,455
879.069092,464
879.186157,446
879.303162,464
879.420227,449
879.537231,438
879.654236,443
879.77124,445
879.888306,449
880.005249,457
880.122314,456
880.239319,467
880.356323,471
880.473328,464
880.590271,465
880.707275,453
880.824341,450
880.941284,451
881.058228,454
881.175232,461
881.292236,475
881.40918,443
881.526123,470
881.643066,449
881.760071,481
881.877014,457
881.993958,463
882.11084,454
882.227783,441
882.344727,427
882.46167,438
882.578613,454
882.695618,464
882.812439,463
882.929382,460
883.046326,454
883.163208,458
883.280151,456
883.397034,444
883.513916,435
883.630798,464
883.747742,445
883.864563,474
883.981506,464
884.098389,470
884.21521,443
884.332153,456
884.448975,425
884.565796,445
884.682678,456
884.7995,453
884.916443,453
885.033264,442
885.150085,449
885.266968,449
885.383789,447
885.500671,454
885.617493,460
885.734314,469
885.851196,455
885.967896,459
886.084717,475
886.201599,466
886.318359,448
886.435181,461
886.552002,468
886.668762,467
886.785645,458
886.902344,476
887.019165,452
887.135925,458
887.252747,471
887.369446,471
887.486267,459
887.603027,457
887.719788,468
887.836548,465
887.953247,440
888.070068,458
888.186829,472
888.303528,450
888.420288,471
888.536987,476
888.653687,463
888.770447,470
888.887146,457
889.003967,453
889.120667,442
889.237305,458
889.354065,455
889.470703,436
889.587463,468
889.704163,472
889.820862,449
889.937561,449
890.054199,457
890.170837,457
890.287598,479
890.404236,447
890.520874,456
890.637634,451
890.754211,457
890.87085,466
890.987549,457
891.104187,473
891.220886,457
891.337463,472
891.454102,460
891.57074,467
891.687378,462
891.804077,462
891.920654,463
892.037231,469
892.15387,479
892.270447,491
892.387085,478
892.503723,467
892.6203,477
892.736877,460
892.853516,460
892.970032,462
893.08667,456
893.203186,459
893.319763,451
893.43634,476
893.552917,464
893.669556,470
893.786011,481
893.902588,468
894.019165,462
894.135681,465
894.252197,461
894.368835,463
894.485291,447
894.601868,467
894.718384,455
894.8349,460
894.951355,459
895.067932,460
895.184448,472
895.300964,467
895.417419,474
895.533936,467
895.650452,451
895.766907,464
895.883423,469
895.999878,487
896.116333,471
896.232849,456
896.349304,469
896.465759,466
896.582214,453
896.698669,463
896.815125,459
896.931641,472
897.048035,443
897.164551,484
897.280884,460
897.397339,456
897.513794,469
897.630249,468
897.746582,462
897.863098,461
897.979431,478
898.095886,456
898.212341,468
898.328674,469
898.445129,488
898.561462,467
898.677795,473
898.794312,470
898.910645,464
899.026978,468
899.143433,451
899.259766,457
899.37616,473
899.492493,474
899.608765,472
899.725159,467
899.841553,446
899.957947,455
900.07428,488
900.190552,472
900.306946,472
900.423157,455
900.53949,475
900.655884,482
900.772156,486
900.888489,471
901.004822,457
901.121033,484
901.237366,464
901.353699,451
901.46991,459
901.586304,461
901.702515,485
901.818787,464
901.93512,452
902.051331,464
902.167603,452
902.283875,493
902.400085,457
902.516418,479
902.632629,474
902.74884,467
902.865112,457
902.981384,458
903.097595,453
903.213867,488
903.330017,450
903.446289,489
903.5625,456
903.67865,461
903.794922,463
903.911072,473
904.027344,453
904.143494,465
904.259705,462
904.375916,465
904.492065,486
904.608215,471
904.724426,486
904.840576,481
904.956726,478
905.072876,468
905.189087,473
905.305176,463
905.421387,471
905.537537,467
905.653687,466
905.769775,476
905.885925,469
906.002014,460
906.118164,480
906.234314,471
906.350403,455
906.466492,461
906.582642,499
906.69873,468
906.814758,455
906.930908,462
907.046936,480
907.163086,461
907.279175,470
907.395264,473
907.511353,486
907.62738,482
907.743408,459
907.859497,485
907.975525,471
908.091553,480
908.207703,489
908.32373,477
908.439758,476
908.555786,462
908.671814,466
908.787842,478
908.90387,486
909.019775,466
909.135864,466
909.251892,480
909.367859,469
909.483826,474
909.599854,468
909.715881,483
909.831848,466
909.947815,477
910.063782,473
910.179749,457
910.295776,478
910.411743,465
910.527649,469
910.643616,474
910.759583,473
910.875488,457
910.991455,463
911.107361,487
911.223267,470
911.339294,479
911.4552,465
911.571106,462
911.687073,481
911.802979,499
911.918823,469
912.034729,483
912.150635,465
912.266602,482
912.382446,480
912.498352,469
912.614197,476
912.730103,477
912.846008,459
