792.44574,616
792.56488,630
792.68396,686
792.80304,661
792.92218,592
793.041199,594
793.160339,571
793.279419,600
793.398499,604
793.517578,591
793.636658,575
793.755737,592
793.874817,618
793.993896,604
794.112976,566
794.232056,577
794.351074,587
794.470215,582
794.589233,589
794.708313,588
794.827393,608
794.946411,607
795.065552,621
795.18457,580
795.303589,580
795.422668,565
795.541687,603
795.660767,584
795.779846,581
795.898865,564
796.017883,571
796.136963,562
796.255981,594
796.375061,592
796.49408,585
796.613037,571
796.732117,606
796.851135,581
796.970154,566
797.089233,563
797.208191,590
797.327271,571
797.446228,576
797.565186,598
797.684265,569
797.803223,556
797.922241,574
798.04126,548
798.160278,564
798.279297,587
798.398315,566
798.517273,562
798.636292,591
798.75531,573
798.874268,566
798.993286,557
799.112244,565
799.231323,560
799.350281,553
799.469238,570
799.588257,546
799.707153,582
799.826111,552
799.945129,549
800.064087,581
800.183044,564
800.302063,583
800.421021,554
800.539978,562
800.658936,579
800.777893,583
800.896912,559
801.015747,591
801.134705,564
801.253723,590
801.37262,553
801.491638,570
801.610535,568
801.729492,581
801.84845,565
801.967407,585
802.086243,597
802.205261,576
802.324158,587
802.443115,560
802.562073,578
802.680969,613
802.799927,572
802.918762,585
803.037659,581
803.156677,602
803.275574,566
803.39447,589
803.513428,555
803.632263,593
803.751221,583
803.870117,602
803.989014,584
804.107971,581
804.226746,589
804.345642,595
804.4646,614
804.583496,605
804.702393,609
804.821228,614
804.940125,587
805.059021,589
805.177917,622
805.296814,603
805.415649,607
805.534546,605
805.653442,580
805.772278,600
805.891113,582
806.01001,598
806.128906,577
806.247742,606
806.366577,609
806.485413,609
806.604309,615
806.723145,614
806.84198,594
806.960876,586
807.079712,598
807.198486,603
807.317383,627
807.436218,622
807.554993,601
807.673889,623
807.792725,603
807.91156,607
808.030396,609
808.14917,614
808.268005,604
808.386841,628
808.505676,622
808.624451,602
808.743286,601
808.862122,627
808.980896,594
809.099731,618
809.218506,606
809.337341,643
809.456116,594
809.57489,622
809.693726,596
809.8125,624
809.931274,606
810.050049,611
810.168884,620
810.287659,601
810.406372,606
810.525269,634
810.643982,636
810.762756,628
810.881531,625
811.000305,639
811.11908,626
811.237854,634
811.356567,620
811.475403,610
811.594116,612
811.71283,651
811.831604,643
811.950378,636
812.069153,637
812.187927,640
812.30658,603
812.425415,621
812.544128,630
812.662781,607
812.781616,617
812.900269,612
813.019043,639
813.137756,623
813.256531,625
813.375244,620
813.493896,608
813.612671,639
813.731384,638
813.850037,604
813.96875,613
814.087524,632
814.206238,615
814.324951,626
814.443604,606
814.562256,605
814.68103,640
814.799683,619
814.918335,601
815.037109,605
815.155762,626
815.274475,612
815.393188,612
815.511841,617
815.630554,626
815.749146,630
815.867859,593
815.986572,607
816.105164,605
816.223877,607
816.342529,601
816.461182,618
816.579895,605
816.698486,623
816.817139,599
816.935791,629
817.054504,617
817.173096,609
817.291748,598
817.4104,608
817.529053,632
817.647644,596
817.766235,601
817.884949,575
818.00354,580
818.122192,542
818.240845,547
818.359436,557
818.478088,548
818.59668,553
818.715271,535
818.833923,523
818.952515,529
819.071106,513
819.189758,492
819.30835,520
819.426941,517
819.545532,517
819.664124,499
819.782715,500
819.901306,504
820.019897,519
820.138489,494
820.25708,506
820.375671,484
820.494202,501
820.612732,480
820.731384,501
820.849915,466
820.968506,497
821.087097,509
821.205627,489
821.324158,480
821.442749,484
821.561279,478
821.679871,483
821.798401,477
821.916931,500
822.035461,465
822.154053,474
822.272583,487
822.391174,490
822.509583,485
822.628174,493
822.746704,465
822.865234,492
822.983765,460
823.102295,480
823.220825,468
823.339294,489
823.457825,476
823.576355,482
823.694824,505
823.813354,477
823.931885,492
824.050354,485
824.168884,486
824.287354,490
824.405823,489
824.524353,504
824.642822,487
824.761353,481
824.879822,486
824.998291,480
825.116699,484
825.235291,485
825.353699,490
825.472168,491
825.590637,470
825.709106,468
825.827576,497
825.946045,461
826.064453,457
826.182983,466
826.301392,462
826.4198,440
826.53833,474
826.656738,457
826.775208,467
826.893677,467
827.012024,466
827.130493,469
827.248962,467
827.36731,457
827.485779,468
827.604248,452
827.722595,466
827.841064,466
827.959412,467
828.077942,455
828.196289,447
828.314636,468
828.433105,462
828.551514,465
828.669861,455
828.78833,459
828.906677,481
829.025085,439
829.143433,436
829.261841,451
829.38031,451
829.498657,455
829.617004,461
829.735413,455
829.85376,442
829.972107,456
830.090515,460
830.208862,468
830.327209,437
830.445557,462
830.563904,444
830.682312,459
830.800659,447
830.919006,471
831.037354,445
831.155701,464
831.274048,465
831.392395,471
831.51062,461
831.629028,465
831.747314,455
831.865662,472
831.984009,447
832.102356,437
832.220642,453
832.338928,472
832.457275,465
832.575623,458
832.693909,441
832.812134,440
832.930481,455
833.048828,462
833.167114,448
833.2854,479
833.403687,457
833.521973,441
833.640259,463
833.758545,447
833.876831,436
833.995056,455
834.113281,455
834.231628,462
834.349915,452
834.468201,467
834.586426,460
834.704651,457
834.822998,456
834.941162,467
835.059448,464
835.177673,456
835.295959,446
835.414246,441
835.53241,463
835.650635,448
835.768921,452
835.887146,462
836.005371,473
836.123596,451
836.241821,452
836.360046,445
836.478271,472
836.596497,470
836.714722,480
836.832886,481
836.95105,450
837.069336,477
837.1875,471
837.305725,489
837.423889,467
837.542053,468
837.660339,471
837.778503,460
837.896667,464
838.014832,478
838.132996,469
838.25116,473
838.369385,464
838.487488,466
838.605713,466
838.723877,463
838.84198,470
838.960205,469
839.078308,478
839.196472,469
839.314636,465
839.4328,472
839.550964,463
839.669067,480
839.787231,468
839.905396,469
840.023499,464
840.141602,472
840.259766,488
840.377869,457
840.495972,450
840.614136,459
840.732239,430
840.850342,468
840.968445,441
841.086548,466
841.204651,451
841.322754,451
841.440918,468
841.55896,469
841.677002,460
841.795166,470
841.913208,447
842.031311,453
842.149353,458
842.267456,457
842.385498,442
842.503601,458
842.621643,431
842.739746,452
842.857788,448
842.97583,447
843.093933,455
843.211975,432
843.330017,455
843.44812,467
843.566101,426
843.684204,443
843.802246,441
843.920227,452
844.038269,451
844.156311,448
844.274292,444
844.392395,463
844.510376,444
844.628357,435
844.74646,437
844.864441,456
844.982422,447
845.100403,448
845.218384,443
845.336426,456
845.454468,428
845.572449,434
845.69043,437
845.808411,453
845.926453,478
846.044373,445
846.162354,455
846.280396,437
846.398315,450
846.516296,451
846.634216,446
846.752197,434
846.870178,441
846.988098,448
847.106079,430
847.22406,458
847.34198,442
847.4599,447
847.577881,445
847.695801,441
847.813782,452
847.931641,435
848.049561,438
848.167603,438
848.285461,443
848.403381,457
848.521362,440
848.639221,461
848.75708,435
848.875,464
848.99292,449
849.110901,439
849.22876,435
849.34668,451
849.464539,453
849.582458,454
849.700317,442
849.818176,455
849.936096,434
850.053955,447
850.171875,446
850.289673,442
850.407593,448
850.525452,442
850.643311,423
850.761169,439
850.878967,433
850.996887,455
851.114746,450
851.232544,440
851.350403,439
851.468262,443
851.58606,439
851.703979,448
851.821777,441
851.939636,430
852.057434,441
852.175232,447
852.293091,436
852.410889,446
852.528687,449
852.646545,435
852.764343,453
852.88208,441
852.999939,439
853.117676,451
853.235535,448
853.353271,440
853.471069,446
853.588928,455
853.706604,423
853.824402,460
853.9422,433
854.059998,448
854.177734,452
854.295532,456
854.413269,465
854.531006,448
854.648804,434
854.766541,447
854.884277,442
855.002014,459
855.119751,434
855.237549,440
855.355225,448
855.473022,449
855.590698,449
855.708435,449
855.826172,429
855.943848,457
856.061646,435
856.179321,454
856.296997,454
856.414795,440
856.53241,441
856.650085,462
856.767822,439
856.885559,440
857.003174,430
857.120911,472
857.238586,448
857.356201,480
857.473938,441
857.591614,449
857.709351,446
857.826965,456
857.944641,446
858.062317,447
858.179993,428
858.297668,447
858.415283,455
858.532959,448
858.650574,459
858.768188,451
858.885803,464
859.003479,441
859.121094,425
859.23877,453
859.356384,430
859.473999,432
859.591675,443
859.709229,466
859.826843,470
859.944458,435
860.062012,439
860.179626,464
860.297302,450
860.414856,440
860.532471,445
860.650024,467
860.767639,448
860.885193,447
861.002808,433
861.120361,447
861.237976,437
861.35553,448
861.473022,454
861.590698,454
861.708191,459
861.825745,443
861.943298,451
862.060852,445
862.178406,457
862.295959,451
862.413513,440
862.531006,449
862.64856,434
862.766113,463
862.883667,445
863.00116,469
863.118713,454
863.236206,469
863.353699,438
863.471252,434
863.588745,451
863.706177,436
863.82373,450
863.941162,464
864.058716,435
864.176208,455
864.29364,449
864.411194,451
864.528687,445
864.646118,432
864.763611,424
864.881042,449
864.998535,454
865.116028,453
865.233459,440
865.350891,458
865.468384,456
865.585754,460
865.703308,439
865.820679,450
865.938171,465
866.055542,437
866.173035,444
866.290466,460
866.407837,443
866.52533,448
866.6427,467
866.760071,442
866.877563,457
866.994934,436
867.112305,457
867.229736,455
867.347107,459
867.464539,439
867.58197,440
867.699341,453
867.81665,447
867.934082,440
868.051453,440
868.168823,438
868.286194,439
868.403564,448
868.520935,440
868.638306,440
868.755676,462
868.872986,455
868.990295,437
869.107727,439
869.225037,449
869.342346,458
869.459717,447
869.577026,439
869.694336,446
869.811707,439
869.929016,433
870.046326,449
870.163635,441
870.280945,466
870.398254,451
870.515564,455
870.632812,446
870.750183,445
870.867432,434
870.984741,474
871.102051,429
871.219299,442
871.336609,474
871.453918,470
871.571106,452
871.688416,460
871.805664,444
871.922852,445
872.040222,439
872.157471,444
872.274719,447
872.391968,451
872.509155,445
872.626465,441
872.743652,472
872.860962,452
872.978149,448
873.095337,454
873.212646,449
873.329834,452
873.44696,450
873.564209,454
873.681396,452
873.798645,454
873.915894,460
874.03302,435
874.150208,459
874.267456,470
874.384583,449
874.501831,465
874.618958,437
874.736145,462
874.853333,444
874.970459,454
875.087646,441
875.204834,461
875.32196,449
875.439148,432
875.556274,441
875.673401,456
875.790527,426
875.907715,457
876.024841,441
876.141968,453
876.259094,449
876.376282,450
876.493347,438
876.610474,436
876.7276,446
876.844727,462
876.961853,441
877.078918,447
877.195984,450
877.313171,453
877.430237,440
877.547302,447
877.664368,443
877.781433,464
877.898499,472
878.015625,463
878.13269,440
878.249695,447
878.366821,461
878.483887,461
878.600952,442
878.717957,457
878.834961,461
878.952087,441
879.069092,443
879.186157,433
879.303162,433
879.420227,475
879.537231,444
879.654236,461
879.77124,460
879.888306,443
880.005249,457
880.122314,453
880.239319,461
880.356323,460
880.473328,434
880.590271,456
880.707275,459
880.824341,442
880.941284,431
881.058228,444
881.175232,445
881.292236,435
881.40918,442
881.526123,459
881.643066,441
881.760071,435
881.877014,436
881.993958,459
882.11084,451
882.227783,460
882.344727,454
882.46167,446
882.578613,467
882.695618,463
882.812439,455
882.929382,454
883.046326,450
883.163208,462
883.280151,448
883.397034,451
883.513916,445
883.630798,461
883.747742,432
883.864563,437
883.981506,458
884.098389,443
884.21521,434
884.332153,475
884.448975,445
884.565796,435
884.682678,438
884.7995,457
884.916443,428
885.033264,456
885.150085,449
885.266968,459
885.383789,462
885.500671,454
885.617493,448
885.734314,460
885.851196,453
885.967896,449
886.084717,459
886.201599,464
886.318359,467
886.435181,442
886.552002,437
886.668762,445
886.785645,471
886.902344,450
887.019165,435
887.135925,452
887.252747,478
887.369446,456
887.486267,436
887.603027,464
887.719788,468
887.836548,455
887.953247,450
888.070068,439
888.186829,454
888.303528,466
888.420288,464
888.536987,455
888.653687,451
888.770447,456
888.887146,448
889.003967,456
889.120667,459
889.237305,461
889.354065,465
889.470703,455
889.587463,443
889.704163,466
889.820862,429
889.937561,470
890.054199,452
890.170837,472
890.287598,439
890.404236,464
890.520874,459
890.637634,470
890.754211,445
890.87085,450
890.987549,447
891.104187,450
891.220886,455
891.337463,460
891.454102,466
891.57074,454
891.687378,465
891.804077,465
891.920654,481
892.037231,465
892.15387,448
892.270447,449
892.387085,452
892.503723,479
892.6203,463
892.736877,433
892.853516,441
892.970032,485
893.08667,482
893.203186,450
893.319763,454
893.43634,469
893.552917,444
893.669556,450
893.786011,450
893.902588,465
894.019165,452
894.135681,444
894.252197,460
894.368835,459
894.485291,448
894.601868,467
894.718384,467
894.8349,472
894.951355,469
895.067932,464
895.184448,448
895.300964,461
895.417419,447
895.533936,446
895.650452,443
895.766907,478
895.883423,453
895.999878,471
896.116333,441
896.232849,461
896.349304,461
896.465759,446
896.582214,442
896.698669,454
896.815125,448
896.931641,465
897.048035,454
897.164551,448
897.280884,473
897.397339,453
897.513794,466
897.630249,454
897.746582,461
897.863098,445
897.979431,456
898.095886,461
898.212341,455
898.328674,472
898.445129,451
898.561462,463
898.677795,461
898.794312,463
898.910645,465
899.026978,451
899.143433,463
899.259766,455
899.37616,470
899.492493,465
899.608765,472
899.725159,447
899.841553,464
899.957947,471
900.07428,463
900.190552,446
900.306946,470
900.423157,465
900.53949,453
900.655884,456
900.772156,448
900.888489,445
901.004822,468
901.121033,472
901.237366,456
901.353699,477
901.46991,464
901.586304,462
901.702515,459
901.818787,478
901.93512,457
902.051331,467
902.167603,485
902.283875,453
902.400085,467
902.516418,450
902.632629,461
902.74884,477
902.865112,469
902.981384,438
903.097595,464
903.213867,455
903.330017,461
903.446289,486
903.5625,446
903.67865,477
903.794922,450
903.911072,470
904.027344,446
904.143494,482
904.259705,452
904.375916,454
904.492065,464
904.608215,454
904.724426,440
904.840576,463
904.956726,448
905.072876,454
905.189087,479
905.305176,462
905.421387,478
905.537537,479
905.653687,446
905.769775,469
905.885925,462
906.002014,474
906.118164,467
906.234314,481
906.350403,471
906.466492,463
906.582642,474
906.69873,453
906.814758,476
906.930908,445
907.046936,467
907.163086,474
907.279175,464
907.395264,464
907.511353,459
907.62738,472
907.743408,477
907.859497,469
907.975525,472
908.091553,458
908.207703,499
908.32373,473
908.439758,461
908.555786,459
908.671814,450
908.787842,485
908.90387,456
909.019775,464
909.135864,470
909.251892,476
909.367859,445
909.483826,488
909.599854,463
909.715881,449
909.831848,459
909.947815,482
910.063782,461
910.179749,487
910.295776,471
910.411743,483
910.527649,440
910.643616,462
910.759583,474
910.875488,468
910.991455,476
911.107361,467
911.223267,468
911.339294,468
911.4552,460
911.571106,464
911.687073,453
911.802979,474
911.918823,453
912.034729,472
912.150635,457
912.266602,473
912.382446,457
912.498352,474
912.614197,467
912.730103,464
912.846008,463
792.44574,596
792.56488,612
792.68396,680
792.80304,656
792.92218,601
793.041199,592
793.160339,606
793.279419,639
793.398499,607
793.517578,604
793.636658,572
793.755737,597
793.874817,618
793.993896,609
794.112976,585
794.232056,576
794.351074,568
794.470215,600
794.589233,598
794.708313,582
794.827393,596
794.946411,586
795.065552,574
795.18457,584
795.303589,577
795.422668,581
795.541687,600
795.660767,580
795.779846,571
795.898865,584
796.017883,597
796.136963,588
796.255981,579
796.375061,580
796.49408,568
796.613037,545
796.732117,595
796.851135,580
796.970154,559
797.089233,580
797.208191,582
797.327271,591
797.446228,558
797.565186,575
797.684265,571
797.803223,578
797.922241,582
798.04126,578
798.160278,551
798.279297,570
798.398315,576
798.517273,567
798.636292,557
798.75531,574
798.874268,565
798.993286,563
799.112244,577
799.231323,556
799.350281,580
799.469238,571
799.588257,561
799.707153,600
799.826111,569
799.945129,569
800.064087,573
800.183044,578
800.302063,565
800.421021,560
800.539978,592
800.658936,570
800.777893,574
800.896912,566
801.015747,577
801.134705,567
801.253723,578
801.37262,583
801.491638,574
801.610535,596
801.729492,579
801.84845,561
801.967407,585
802.086243,578
802.205261,581
802.324158,565
802.443115,612
802.562073,570
802.680969,581
802.799927,573
802.918762,559
803.037659,586
803.156677,573
803.275574,617
803.39447,582
803.513428,587
803.632263,591
803.751221,568
803.870117,619
803.989014,585
804.107971,595
804.226746,602
804.345642,600
804.4646,587
804.583496,601
804.702393,598
804.821228,586
804.940125,603
805.059021,604
805.177917,592
805.296814,586
805.415649,590
805.534546,610
805.653442,616
805.772278,610
805.891113,621
806.01001,612
806.128906,601
806.247742,608
806.366577,591
806.485413,605
806.604309,638
806.723145,598
806.84198,611
806.960876,619
807.079712,600
807.198486,612
807.317383,602
807.436218,617
807.554993,628
807.673889,624
807.792725,608
807.91156,622
808.030396,602
808.14917,595
808.268005,608
808.386841,630
808.505676,603
808.624451,624
808.743286,597
808.862122,633
808.980896,580
809.099731,626
809.218506,620
809.337341,625
809.456116,608
809.57489,625
809.693726,606
809.8125,628
809.931274,615
810.050049,616
810.168884,610
810.287659,631
810.406372,637
810.525269,612
810.643982,608
810.762756,647
810.881531,624
811.000305,631
811.11908,628
811.237854,613
811.356567,593
811.475403,625
811.594116,596
811.71283,640
811.831604,630
811.950378,643
812.069153,623
812.187927,612
812.30658,632
812.425415,606
812.544128,625
812.662781,627
812.781616,608
812.900269,643
813.019043,643
813.137756,636
813.256531,628
813.375244,622
813.493896,627
813.612671,624
813.731384,624
813.850037,602
813.96875,610
814.087524,611
814.206238,627
814.324951,636
814.443604,612
814.562256,622
814.68103,623
814.799683,628
814.918335,644
815.037109,615
815.155762,640
815.274475,619
815.393188,622
815.511841,618
815.630554,638
815.749146,596
815.867859,577
815.986572,633
816.105164,627
816.223877,603
816.342529,596
816.461182,608
816.579895,635
816.698486,630
816.817139,614
816.935791,614
817.054504,630
817.173096,604
817.291748,596
817.4104,603
817.529053,598
817.647644,580
817.766235,584
817.884949,591
818.00354,550
818.122192,567
818.240845,560
818.359436,571
818.478088,540
818.59668,535
818.715271,541
818.833923,536
818.952515,522
819.071106,523
819.189758,505
819.30835,527
819.426941,481
819.545532,520
819.664124,500
819.782715,493
819.901306,500
820.019897,495
820.138489,486
820.25708,489
820.375671,472
820.494202,503
820.612732,495
820.731384,470
820.849915,508
820.968506,475
821.087097,471
821.205627,493
821.324158,464
821.442749,492
821.561279,473
821.679871,483
821.798401,500
821.916931,490
822.035461,478
822.154053,496
822.272583,475
822.391174,491
822.509583,469
822.628174,474
822.746704,470
822.865234,486
822.983765,489
823.102295,478
823.220825,461
823.339294,474
823.457825,477
823.576355,467
823.694824,436
823.813354,489
823.931885,460
824.050354,497
824.168884,476
824.287354,496
824.405823,488
824.524353,493
824.642822,480
824.761353,500
824.879822,502
824.998291,493
825.116699,495
825.235291,483
825.353699,447
825.472168,480
825.590637,487
825.709106,491
825.827576,473
825.946045,487
826.064453,470
826.182983,456
826.301392,456
826.4198,471
826.53833,456
826.656738,463
826.775208,474
826.893677,467
827.012024,457
827.130493,463
827.248962,453
827.36731,472
827.485779,459
827.604248,460
827.722595,455
827.841064,451
827.959412,453
828.077942,458
828.196289,456
828.314636,462
828.433105,459
828.551514,459
828.669861,456
828.78833,460
828.906677,468
829.025085,486
829.143433,466
829.261841,470
829.38031,462
829.498657,458
829.617004,461
829.735413,471
829.85376,448
829.972107,456
830.090515,457
830.208862,457
830.327209,451
830.445557,458
830.563904,446
830.682312,454
830.800659,460
830.919006,464
831.037354,472
831.155701,455
831.274048,435
831.392395,463
831.51062,490
831.629028,463
831.747314,442
831.865662,461
831.984009,452
832.102356,454
832.220642,441
832.338928,465
832.457275,438
832.575623,446
832.693909,443
832.812134,477
832.930481,454
833.048828,464
833.167114,456
833.2854,449
833.403687,460
833.521973,446
833.640259,453
833.758545,455
833.876831,447
833.995056,452
834.113281,457
834.231628,454
834.349915,461
834.468201,457
834.586426,460
834.704651,455
834.822998,437
834.941162,456
835.059448,467
835.177673,456
835.295959,458
835.414246,455
835.53241,462
835.650635,466
835.768921,442
835.887146,465
836.005371,450
836.123596,448
836.241821,456
836.360046,443
836.478271,469
836.596497,456
836.714722,475
836.832886,478
836.95105,455
837.069336,476
837.1875,462
837.305725,475
837.423889,463
837.542053,470
837.660339,471
837.778503,474
837.896667,473
838.014832,478
838.132996,470
838.25116,436
838.369385,477
838.487488,490
838.605713,469
838.723877,479
838.84198,489
838.960205,481
839.078308,465
839.196472,486
839.314636,456
839.4328,495
839.550964,475
839.669067,469
839.787231,475
839.905396,445
840.023499,487
840.141602,468
840.259766,478
840.377869,482
840.495972,469
840.614136,461
840.732239,467
840.850342,457
840.968445,482
841.086548,464
841.204651,473
841.322754,463
841.440918,467
841.55896,460
841.677002,463
841.795166,448
841.913208,474
842.031311,476
842.149353,452
842.267456,452
842.385498,436
842.503601,450
842.621643,440
842.739746,451
842.857788,456
842.97583,456
843.093933,444
843.211975,463
843.330017,436
843.44812,449
843.566101,458
843.684204,440
843.802246,456
843.920227,475
844.038269,429
844.156311,472
844.274292,434
844.392395,460
844.510376,439
844.628357,439
844.74646,457
844.864441,448
844.982422,459
845.100403,461
845.218384,440
845.336426,469
845.454468,452
845.572449,440
845.69043,442
845.808411,458
845.926453,437
846.044373,427
846.162354,445
846.280396,452
846.398315,444
846.516296,440
846.634216,448
846.752197,440
846.870178,442
846.988098,457
847.106079,461
847.22406,460
847.34198,450
847.4599,473
847.577881,446
847.695801,449
847.813782,439
847.931641,442
848.049561,432
848.167603,428
848.285461,438
848.403381,453
848.521362,455
848.639221,446
848.75708,446
848.875,447
848.99292,447
849.110901,439
849.22876,457
849.34668,447
849.464539,442
849.582458,439
849.700317,444
849.818176,447
849.936096,441
850.053955,445
850.171875,456
850.289673,458
850.407593,451
850.525452,447
850.643311,433
850.761169,452
850.878967,427
850.996887,458
851.114746,430
851.232544,450
851.350403,451
851.468262,446
851.58606,448
851.703979,457
851.821777,440
851.939636,438
852.057434,457
852.175232,446
852.293091,451
852.410889,447
852.528687,428
852.646545,447
852.764343,458
852.88208,434
852.999939,431
853.117676,454
853.235535,449
853.353271,444
853.471069,431
853.588928,466
853.706604,439
853.824402,461
853.9422,436
854.059998,452
854.177734,452
854.295532,470
854.413269,447
854.531006,459
854.648804,444
854.766541,450
854.884277,444
855.002014,457
855.119751,463
855.237549,449
855.355225,448
855.473022,450
855.590698,454
855.708435,472
855.826172,445
855.943848,455
856.061646,437
856.179321,452
856.296997,452
856.414795,456
856.53241,440
856.650085,449
856.767822,443
856.885559,461
857.003174,442
857.120911,438
857.238586,439
857.356201,484
857.473938,443
857.591614,465
857.709351,450
857.826965,453
857.944641,435
858.062317,447
858.179993,455
858.297668,455
858.415283,431
858.532959,465
858.650574,444
858.768188,450
858.885803,440
859.003479,453
859.121094,442
859.23877,440
859.356384,456
859.473999,456
859.591675,439
859.709229,442
859.826843,457
859.944458,441
860.062012,437
860.179626,435
860.297302,451
860.414856,449
860.532471,446
860.650024,454
860.767639,468
860.885193,434
861.002808,447
861.120361,453
861.237976,424
861.35553,461
861.473022,430
861.590698,473
861.708191,440
861.825745,448
861.943298,453
862.060852,458
862.178406,438
862.295959,449
862.413513,441
862.531006,447
862.64856,437
862.766113,442
862.883667,449
863.00116,470
863.118713,452
863.236206,450
863.353699,424
863.471252,432
863.588745,438
863.706177,460
863.82373,451
863.941162,434
864.058716,448
864.176208,453
864.29364,439
864.411194,462
864.528687,450
864.646118,455
864.763611,441
864.881042,460
864.998535,441
865.116028,454
865.233459,423
865.350891,458
865.468384,471
865.585754,458
865.703308,433
865.820679,451
865.938171,455
866.055542,450
866.173035,440
866.290466,474
866.407837,441
866.52533,455
866.6427,434
866.760071,442
866.877563,459
866.994934,449
867.112305,441
867.229736,436
867.347107,432
867.464539,437
867.58197,460
867.699341,437
867.81665,453
867.934082,447
868.051453,441
868.168823,454
868.286194,459
868.403564,454
868.520935,446
868.638306,453
868.755676,447
868.872986,451
868.990295,459
869.107727,469
869.225037,444
869.342346,461
869.459717,453
869.577026,455
869.694336,452
869.811707,451
869.929016,442
870.046326,447
870.163635,444
870.280945,441
870.398254,449
870.515564,447
870.632812,437
870.750183,434
870.867432,433
870.984741,470
871.102051,442
871.219299,423
871.336609,447
871.453918,424
871.571106,462
871.688416,442
871.805664,442
871.922852,451
872.040222,433
872.157471,456
872.274719,450
872.391968,449
872.509155,441
872.626465,459
872.743652,446
872.860962,430
872.978149,452
873.095337,456
873.212646,449
873.329834,448
873.44696,451
873.564209,443
873.681396,442
873.798645,454
873.915894,442
874.03302,455
874.150208,421
874.267456,448
874.384583,443
874.501831,442
874.618958,435
874.736145,461
874.853333,440
874.970459,442
875.087646,449
875.204834,436
875.32196,451
875.439148,446
875.556274,434
875.673401,456
875.790527,429
875.907715,446
876.024841,447
876.141968,447
876.259094,447
876.376282,466
876.493347,450
876.610474,459
876.7276,456
876.844727,456
876.961853,444
877.078918,445
877.195984,443
877.313171,449
877.430237,448
877.547302,470
877.664368,460
877.781433,457
877.898499,451
878.015625,464
878.13269,449
878.249695,456
878.366821,447
878.483887,456
878.600952,439
878.717957,457
878.834961,457
878.952087,449
879.069092,448
879.186157,444
879.303162,434
879.420227,451
879.537231,446
879.654236,440
879.77124,445
879.888306,463
880.005249,449
880.122314,452
880.239319,454
880.356323,462
880.473328,423
880.590271,452
880.707275,448
880.824341,468
880.941284,439
881.058228,440
881.175232,442
881.292236,451
881.40918,478
881.526123,447
881.643066,443
881.760071,464
881.877014,437
881.993958,445
882.11084,447
882.227783,452
882.344727,466
882.46167,467
882.578613,446
882.695618,452
882.812439,443
882.929382,463
883.046326,484
883.163208,461
883.280151,442
883.397034,441
883.513916,460
883.630798,448
883.747742,437
883.864563,446
883.981506,449
884.098389,481
884.21521,434
884.332153,456
884.448975,443
884.565796,464
884.682678,443
884.7995,456
884.916443,438
885.033264,463
885.150085,438
885.266968,455
885.383789,467
885.500671,473
885.617493,461
885.734314,453
885.851196,446
885.967896,464
886.084717,448
886.201599,440
886.318359,443
886.435181,461
886.552002,439
886.668762,454
886.785645,456
886.902344,462
887.019165,451
887.135925,481
887.252747,442
887.369446,457
887.486267,451
887.603027,457
887.719788,434
887.836548,459
887.953247,448
888.070068,433
888.186829,458
888.303528,459
888.420288,461
888.536987,464
888.653687,437
888.770447,443
888.887146,452
889.003967,449
889.120667,463
889.237305,454
889.354065,468
889.470703,440
889.587463,450
889.704163,463
889.820862,447
889.937561,462
890.054199,454
890.170837,443
890.287598,446
890.404236,457
890.520874,455
890.637634,460
890.754211,446
890.87085,455
890.987549,465
891.104187,458
891.220886,454
891.337463,456
891.454102,463
891.57074,461
891.687378,456
891.804077,454
891.920654,439
892.037231,461
892.15387,457
892.270447,464
892.387085,451
892.503723,431
892.6203,452
892.736877,442
892.853516,445
892.970032,465
893.08667,464
893.203186,452
893.319763,456
893.43634,460
893.552917,463
893.669556,461
893.786011,441
893.902588,468
894.019165,449
894.135681,445
894.252197,452
894.368835,455
894.485291,460
894.601868,459
894.718384,473
894.8349,476
894.951355,450
895.067932,470
895.184448,458
895.300964,467
895.417419,450
895.533936,457
895.650452,467
895.766907,451
895.883423,460
895.999878,459
896.116333,460
896.232849,479
896.349304,437
896.465759,454
896.582214,451
896.698669,450
896.815125,439
896.931641,442
897.048035,447
897.164551,474
897.280884,463
897.397339,457
897.513794,482
897.630249,477
897.746582,454
897.863098,463
897.979431,460
898.095886,479
898.212341,450
898.328674,469
898.445129,467
898.561462,467
898.677795,468
898.794312,450
898.910645,445
899.026978,484
899.143433,464
899.259766,454
899.37616,456
899.492493,468
899.608765,436
899.725159,476
899.841553,465
899.957947,439
900.07428,452
900.190552,469
900.306946,466
900.423157,462
900.53949,457
900.655884,474
900.772156,459
900.888489,474
901.004822,461
901.121033,463
901.237366,460
901.353699,468
901.46991,449
901.586304,448
901.702515,454
901.818787,451
901.93512,465
902.051331,462
902.167603,457
902.283875,449
902.400085,443
902.516418,470
902.632629,441
902.74884,454
902.865112,459
902.981384,466
903.097595,472
903.213867,457
903.330017,454
903.446289,466
903.5625,477
903.67865,466
903.794922,455
903.911072,461
904.027344,461
904.143494,477
904.259705,447
904.375916,471
904.492065,473
904.608215,453
904.724426,461
904.840576,474
904.956726,458
905.072876,486
905.189087,458
905.305176,450
905.421387,472
905.537537,459
905.653687,462
905.769775,478
905.885925,489
906.002014,477
906.118164,477
906.234314,469
906.350403,460
906.466492,474
906.582642,458
906.69873,456
906.814758,479
906.930908,461
907.046936,461
907.163086,484
907.279175,456
907.395264,505
907.511353,483
907.62738,462
907.743408,442
907.859497,474
907.975525,463
908.091553,493
908.207703,490
908.32373,478
908.439758,467
908.555786,479
908.671814,467
908.787842,460
908.90387,469
909.019775,467
909.135864,457
909.251892,468
909.367859,468
909.483826,474
909.599854,465
909.715881,458
909.831848,455
909.947815,463
910.063782,469
910.179749,476
910.295776,454
910.411743,478
910.527649,461
910.643616,464
910.759583,467
910.875488,475
910.991455,461
911.107361,467
911.223267,465
911.339294,477
911.4552,457
911.571106,476
911.687073,453
911.802979,462
911.918823,454
912.034729,465
912.150635,473
912.266602,468
912.382446,462
912.498352,484
912.614197,471
912.730103,465
912.846008,471
792.44574,603
792.56488,642
792.68396,660
792.80304,641
792.92218,599
793.041199,598
793.160339,591
793.279419,600
793.398499,600
793.517578,591
793.636658,590
793.755737,602
793.874817,600
793.993896,588
794.112976,611
794.232056,582
794.351074,596
794.470215,597
794.589233,604
794.708313,583
794.827393,597
794.946411,601
795.065552,564
795.18457,586
795.303589,592
795.422668,590
795.541687,606
795.660767,605
795.779846,570
795.898865,571
796.017883,588
796.136963,581
796.255981,582
796.375061,577
796.49408,581
796.613037,571
796.732117,571
796.851135,600
796.970154,589
797.089233,567
797.208191,568
797.327271,571
797.446228,573
797.565186,560
797.684265,595
797.803223,592
797.922241,562
798.04126,574
798.160278,578
798.279297,587
798.398315,578
798.517273,568
798.636292,563
798.75531,559
798.874268,584
798.993286,582
799.112244,576
799.231323,566
799.350281,578
799.469238,554
799.588257,595
799.707153,568
799.826111,589
799.945129,567
800.064087,563
800.183044,573
800.302063,549
800.421021,578
800.539978,564
800.658936,575
800.777893,590
800.896912,568
801.015747,592
801.134705,592
801.253723,591
801.37262,582
801.491638,589
801.610535,588
801.729492,581
801.84845,569
801.967407,591
802.086243,584
802.205261,579
802.324158,614
802.443115,593
802.562073,591
802.680969,584
802.799927,571
802.918762,572
803.037659,561
803.156677,622
803.275574,614
803.39447,591
803.513428,588
803.632263,621
803.751221,588
803.870117,588
803.989014,597
804.107971,610
804.226746,587
804.345642,625
804.4646,616
804.583496,593
804.702393,634
804.821228,580
804.940125,594
805.059021,597
805.177917,589
805.296814,594
805.415649,617
805.534546,634
805.653442,631
805.772278,609
805.891113,599
806.01001,607
806.128906,619
806.247742,606
806.366577,598
806.485413,609
806.604309,606
806.723145,641
806.84198,599
806.960876,619
807.079712,613
807.198486,608
807.317383,627
807.436218,622
807.554993,609
807.673889,626
807.792725,622
807.91156,629
808.030396,610
808.14917,602
808.268005,602
808.386841,624
808.505676,605
808.624451,605
808.743286,603
808.862122,633
808.980896,625
809.099731,618
809.218506,637
809.337341,604
809.456116,621
809.57489,651
809.693726,630
809.8125,611
809.931274,642
810.050049,623
810.168884,629
810.287659,616
810.406372,627
810.525269,629
810.643982,625
810.762756,639
810.881531,609
811.000305,640
811.11908,625
811.237854,627
811.356567,625
811.475403,637
811.594116,630
811.71283,623
811.831604,637
811.950378,622
812.069153,635
812.187927,639
812.30658,625
812.425415,640
812.544128,629
812.662781,609
812.781616,628
812.900269,630
813.019043,607
813.137756,623
813.256531,623
813.375244,628
813.493896,630
813.612671,612
813.731384,615
813.850037,621
813.96875,637
814.087524,637
814.206238,626
814.324951,608
814.443604,656
814.562256,632
814.68103,630
814.799683,622
814.918335,626
815.037109,620
815.155762,637
815.274475,623
815.393188,614
815.511841,607
815.630554,615
815.749146,594
815.867859,602
815.986572,628
816.105164,609
816.223877,638
816.342529,606
816.461182,616
816.579895,631
816.698486,609
816.817139,646
816.935791,626
817.054504,627
817.173096,616
817.291748,608
817.4104,598
817.529053,590
817.647644,626
817.766235,579
817.884949,605
818.00354,564
818.122192,555
818.240845,565
818.359436,560
818.478088,540
818.59668,533
818.715271,525
818.833923,522
818.952515,530
819.071106,510
819.189758,524
819.30835,508
819.426941,504
819.545532,528
819.664124,492
819.782715,513
819.901306,500
820.019897,513
820.138489,497
820.25708,506
820.375671,498
820.494202,509
820.612732,491
820.731384,484
820.849915,487
820.968506,495
821.087097,472
821.205627,501
821.324158,480
821.442749,495
821.561279,481
821.679871,490
821.798401,485
821.916931,481
822.035461,486
822.154053,502
822.272583,463
822.391174,492
822.509583,469
822.628174,479
822.746704,496
822.865234,478
822.983765,483
823.102295,489
823.220825,463
823.339294,502
823.457825,487
823.576355,460
823.694824,474
823.813354,488
823.931885,488
824.050354,482
824.168884,480
824.287354,479
824.405823,474
824.524353,506
824.642822,498
824.761353,487
824.879822,497
824.998291,493
825.116699,500
825.235291,493
825.353699,463
825.472168,487
825.590637,489
825.709106,483
825.827576,493
825.946045,464
826.064453,464
826.182983,479
826.301392,456
826.4198,486
826.53833,474
826.656738,487
826.775208,467
826.893677,467
827.012024,452
827.130493,473
827.248962,490
827.36731,466
827.485779,472
827.604248,462
827.722595,464
827.841064,460
827.959412,462
828.077942,473
828.196289,472
828.314636,460
828.433105,458
828.551514,469
828.669861,459
828.78833,459
828.906677,456
829.025085,459
829.143433,474
829.261841,458
829.38031,459
829.498657,456
829.617004,468
829.735413,460
829.85376,446
829.972107,449
830.090515,471
830.208862,469
830.327209,468
830.445557,462
830.563904,440
830.682312,450
830.800659,462
830.919006,456
831.037354,473
831.155701,452
831.274048,453
831.392395,463
831.51062,468
831.629028,456
831.747314,452
831.865662,472
831.984009,461
832.102356,453
832.220642,455
832.338928,465
832.457275,463
832.575623,466
832.693909,458
832.812134,464
832.930481,450
833.048828,471
833.167114,451
833.2854,460
833.403687,459
833.521973,477
833.640259,447
833.758545,463
833.876831,465
833.995056,470
834.113281,463
834.231628,460
834.349915,452
834.468201,459
834.586426,459
834.704651,453
834.822998,455
834.941162,452
835.059448,450
835.177673,467
835.295959,461
835.414246,457
835.53241,448
835.650635,464
835.768921,475
835.887146,452
836.005371,456
836.123596,460
836.241821,461
836.360046,491
836.478271,447
836.596497,469
836.714722,468
836.832886,491
836.95105,472
837.069336,469
837.1875,452
837.305725,449
837.423889,469
837.542053,469
837.660339,495
837.778503,465
837.896667,468
838.014832,484
838.132996,474
838.25116,497
838.369385,471
838.487488,481
838.605713,481
838.723877,485
838.84198,471
838.960205,488
839.078308,465
839.196472,468
839.314636,485
839.4328,463
839.550964,464
839.669067,464
839.787231,468
839.905396,483
840.023499,478
840.141602,452
840.259766,466
840.377869,460
840.495972,462
840.614136,468
840.732239,466
840.850342,474
840.968445,463
841.086548,467
841.204651,462
841.322754,480
841.440918,445
841.55896,467
841.677002,430
841.795166,459
841.913208,462
842.031311,451
842.149353,441
842.267456,461
842.385498,446
842.503601,468
842.621643,461
842.739746,448
842.857788,464
842.97583,463
843.093933,448
843.211975,465
843.330017,445
843.44812,449
843.566101,470
843.684204,440
843.802246,448
843.920227,461
844.038269,431
844.156311,460
844.274292,455
844.392395,444
844.510376,433
844.628357,448
844.74646,434
844.864441,466
844.982422,445
845.100403,440
845.218384,451
845.336426,449
845.454468,450
845.572449,485
845.69043,442
845.808411,463
845.926453,453
846.044373,453
846.162354,462
846.280396,458
846.398315,445
846.516296,455
846.634216,459
846.752197,449
846.870178,454
846.988098,446
847.106079,445
847.22406,428
847.34198,451
847.4599,433
847.577881,434
847.695801,475
847.813782,440
847.931641,467
848.049561,451
848.167603,453
848.285461,438
848.403381,437
848.521362,453
848.639221,456
848.75708,439
848.875,457
848.99292,435
849.110901,461
849.22876,448
849.34668,446
849.464539,450
849.582458,455
849.700317,457
849.818176,431
849.936096,453
850.053955,448
850.171875,450
850.289673,464
850.407593,463
850.525452,445
850.643311,442
850.761169,434
850.878967,432
850.996887,455
851.114746,453
851.232544,445
851.350403,429
851.468262,446
851.58606,450
851.703979,452
851.821777,465
851.939636,447
852.057434,436
852.175232,438
852.293091,439
852.410889,458
852.528687,435
852.646545,458
852.764343,464
852.88208,452
852.999939,439
853.117676,447
853.235535,451
853.353271,449
853.471069,424
853.588928,448
853.706604,455
853.824402,456
853.9422,441
854.059998,470
854.177734,456
854.295532,444
854.413269,453
854.531006,439
854.648804,452
854.766541,461
854.884277,463
855.002014,458
855.119751,456
855.237549,464
855.355225,458
855.473022,475
855.590698,460
855.708435,454
855.826172,438
855.943848,465
856.061646,446
856.179321,462
856.296997,432
856.414795,450
856.53241,457
856.650085,450
856.767822,442
856.885559,463
857.003174,458
857.120911,480
857.238586,458
857.356201,447
857.473938,447
857.591614,484
857.709351,434
857.826965,445
857.944641,443
858.062317,458
858.179993,462
858.297668,452
858.415283,432
858.532959,451
858.650574,445
858.768188,467
858.885803,453
859.003479,441
859.121094,449
859.23877,469
859.356384,450
859.473999,457
859.591675,456
859.709229,460
859.826843,454
859.944458,447
860.062012,448
860.179626,448
860.297302,460
860.414856,435
860.532471,456
860.650024,458
860.767639,432
860.885193,463
861.002808,475
861.120361,462
861.237976,439
861.35553,439
861.473022,456
861.590698,452
861.708191,446
861.825745,458
861.943298,463
862.060852,449
862.178406,454
862.295959,458
862.413513,456
862.531006,454
862.64856,446
862.766113,456
862.883667,459
863.00116,469
863.118713,450
863.236206,454
863.353699,448
863.471252,460
863.588745,448
863.706177,449
863.82373,434
863.941162,466
864.058716,443
864.176208,466
864.29364,452
864.411194,455
864.528687,466
864.646118,473
864.763611,446
864.881042,452
864.998535,456
865.116028,455
865.233459,449
865.350891,479
865.468384,448
865.585754,471
865.703308,458
865.820679,454
865.938171,460
866.055542,432
866.173035,462
866.290466,431
866.407837,455
866.52533,468
866.6427,468
866.760071,454
866.877563,447
866.994934,469
867.112305,436
867.229736,434
867.347107,441
867.464539,468
867.58197,457
867.699341,463
867.81665,458
867.934082,464
868.051453,457
868.168823,472
868.286194,444
868.403564,467
868.520935,451
868.638306,453
868.755676,448
868.872986,452
868.990295,455
869.107727,463
869.225037,450
869.342346,453
869.459717,450
869.577026,453
869.694336,461
869.811707,466
869.929016,449
870.046326,453
870.163635,439
870.280945,467
870.398254,449
870.515564,480
870.632812,448
870.750183,437
870.867432,446
870.984741,458
871.102051,458
871.219299,438
871.336609,444
871.453918,467
871.571106,444
871.688416,474
871.805664,448
871.922852,440
872.040222,461
872.157471,453
872.274719,457
872.391968,465
872.509155,440
872.626465,458
872.743652,442
872.860962,448
872.978149,444
873.095337,455
873.212646,457
873.329834,457
873.44696,447
873.564209,461
873.681396,450
873.798645,458
873.915894,435
874.03302,456
874.150208,457
874.267456,445
874.384583,457
874.501831,459
874.618958,458
874.736145,457
874.853333,428
874.970459,448
875.087646,471
875.204834,462
875.32196,453
875.439148,460
875.556274,437
875.673401,452
875.790527,447
875.907715,441
876.024841,469
876.141968,455
876.259094,421
876.376282,471
876.493347,470
876.610474,476
876.7276,455
876.844727,461
876.961853,459
877.078918,458
877.195984,445
877.313171,451
877.430237,446
877.547302,450
877.664368,464
877.781433,463
877.898499,438
878.015625,459
878.13269,457
878.249695,462
878.366821,452
878.483887,463
878.600952,458
878.717957,461
878.834961,448
878.952087,448
879.069092,453
879.186157,454
879.303162,452
879.420227,445
879.537231,445
879.654236,448
879.77124,459
879.888306,440
880.005249,460
880.122314,444
880.239319,455
880.356323,452
880.473328,451
880.590271,448
880.707275,466
880.824341,434
880.941284,452
881.058228,436
881.175232,450
881.292236,471
881.40918,464
881.526123,452
881.643066,463
881.760071,452
881.877014,452
881.993958,442
882.11084,452
882.227783,460
882.344727,441
882.46167,478
882.578613,443
882.695618,438
882.812439,456
882.929382,468
883.046326,425
883.163208,466
883.280151,439
883.397034,464
883.513916,444
883.630798,450
883.747742,432
883.864563,473
883.981506,448
884.098389,452
884.21521,439
884.332153,471
884.448975,452
884.565796,460
884.682678,455
884.7995,460
884.916443,467
885.033264,477
885.150085,450
885.266968,449
885.383789,433
885.500671,451
885.617493,449
885.734314,479
885.851196,440
885.967896,462
886.084717,452
886.201599,451
886.318359,439
886.435181,469
886.552002,435
886.668762,475
886.785645,451
886.902344,458
887.019165,473
887.135925,459
887.252747,445
887.369446,479
887.486267,457
887.603027,478
887.719788,429
887.836548,461
887.953247,456
888.070068,449
888.186829,463
888.303528,453
888.420288,448
888.536987,468
888.653687,466
888.770447,464
888.887146,468
889.003967,465
889.120667,462
889.237305,472
889.354065,457
889.470703,461
889.587463,454
889.704163,452
889.820862,463
889.937561,463
890.054199,445
890.170837,488
890.287598,444
890.404236,466
890.520874,451
890.637634,489
890.754211,461
890.87085,457
890.987549,457
891.104187,469
891.220886,451
891.337463,467
891.454102,466
891.57074,454
891.687378,461
891.804077,454
891.920654,460
892.037231,454
892.15387,470
892.270447,454
892.387085,454
892.503723,457
892.6203,453
892.736877,458
892.853516,453
892.970032,479
893.08667,451
893.203186,460
893.319763,477
893.43634,470
893.552917,468
893.669556,477
893.786011,456
893.902588,474
894.019165,466
894.135681,462
894.252197,478
894.368835,468
894.485291,472
894.601868,459
894.718384,458
894.8349,454
894.951355,453
895.067932,457
895.184448,464
895.300964,477
895.417419,469
895.533936,467
895.650452,464
895.766907,483
895.883423,466
895.999878,472
896.116333,473
896.232849,468
896.349304,451
896.465759,475
896.582214,461
896.698669,472
896.815125,465
896.931641,470
897.048035,460
897.164551,468
897.280884,487
897.397339,496
897.513794,470
897.630249,462
897.746582,470
897.863098,480
897.979431,476
898.095886,478
898.212341,482
898.328674,486
898.445129,458
898.561462,473
898.677795,464
898.794312,484
898.910645,464
899.026978,485
899.143433,488
899.259766,465
899.37616,459
899.492493,472
899.608765,451
899.725159,464
899.841553,470
899.957947,472
900.07428,479
900.190552,484
900.306946,479
900.423157,478
900.53949,461
900.655884,479
900.772156,468
900.888489,453
901.004822,481
901.121033,471
901.237366,452
901.353699,463
901.46991,461
901.586304,461
901.702515,460
901.818787,462
901.93512,471
902.051331,477
902.167603,449
902.283875,483
902.400085,466
902.516418,475
902.632629,462
902.74884,472
902.865112,464
902.981384,484
903.097595,464
903.213867,467
903.330017,471
903.446289,487
903.5625,468
903.67865,468
903.794922,463
903.911072,456
904.027344,469
904.143494,478
904.259705,463
904.375916,461
904.492065,458
904.608215,465
904.724426,477
904.840576,464
904.956726,467
905.072876,464
905.189087,453
905.305176,463
905.421387,465
905.537537,462
905.653687,461
905.769775,469
905.885925,447
906.002014,470
906.118164,484
906.234314,469
906.350403,458
906.466492,470
906.582642,470
906.69873,499
906.814758,465
906.930908,463
907.046936,470
907.163086,472
907.279175,473
907.395264,480
907.511353,460
907.62738,473
907.743408,466
907.859497,476
907.975525,485
908.091553,466
908.207703,466
908.32373,481
908.439758,483
908.555786,467
908.671814,474
908.787842,479
908.90387,462
909.019775,468
909.135864,471
909.251892,486
909.367859,477
909.483826,474
909.599854,444
909.715881,473
909.831848,488
909.947815,471
910.063782,467
910.179749,465
910.295776,489
910.411743,453
910.527649,482
910.643616,484
910.759583,472
910.875488,493
910.991455,471
911.107361,475
911.223267,461
911.339294,489
911.4552,475
911.571106,461
911.687073,461
911.802979,474
911.918823,467
912.034729,475
912.150635,467
912.266602,485
912.382446,477
912.498352,472
912.614197,459
912.730103,481
912.846008,456
