792.44574,619
792.56488,658
792.68396,692
792.80304,664
792.92218,625
793.041199,580
793.160339,596
793.279419,620
793.398499,609
793.517578,620
793.636658,594
793.755737,634
793.874817,621
793.993896,611
794.112976,598
794.232056,597
794.351074,600
794.470215,599
794.589233,601
794.708313,613
794.827393,587
794.946411,602
795.065552,605
795.18457,608
795.303589,595
795.422668,570
795.541687,605
795.660767,584
795.779846,565
795.898865,577
796.017883,568
796.136963,579
796.255981,588
796.375061,575
796.49408,582
796.613037,573
796.732117,584
796.851135,592
796.970154,580
797.089233,578
797.208191,586
797.327271,616
797.446228,594
797.565186,573
797.684265,574
797.803223,591
797.922241,575
798.04126,577
798.160278,617
798.279297,576
798.398315,583
798.517273,591
798.636292,612
798.75531,553
798.874268,591
798.993286,568
799.112244,570
799.231323,582
799.350281,599
799.469238,577
799.588257,574
799.707153,583
799.826111,580
799.945129,584
800.064087,591
800.183044,571
800.302063,569
800.421021,575
800.539978,582
800.658936,581
800.777893,585
800.896912,587
801.015747,577
801.134705,619
801.253723,596
801.37262,591
801.491638,562
801.610535,594
801.729492,567
801.84845,576
801.967407,589
802.086243,586
802.205261,588
802.324158,602
802.443115,593
802.562073,566
802.680969,578
802.799927,584
802.918762,593
803.037659,580
803.156677,599
803.275574,610
803.39447,613
803.513428,606
803.632263,595
803.751221,615
803.870117,603
803.989014,599
804.107971,597
804.226746,595
804.345642,606
804.4646,594
804.583496,598
804.702393,599
804.821228,614
804.940125,604
805.059021,575
805.177917,586
805.296814,578
805.415649,575
805.534546,621
805.653442,640
805.772278,585
805.891113,607
806.01001,604
806.128906,623
806.247742,613
806.366577,611
806.485413,587
806.604309,624
806.723145,622
806.84198,623
806.960876,606
807.079712,610
807.198486,627
807.317383,615
807.436218,595
807.554993,601
807.673889,610
807.792725,595
807.91156,633
808.030396,614
808.14917,597
808.268005,615
808.386841,645
808.505676,614
808.624451,626
808.743286,636
808.862122,613
808.980896,612
809.099731,630
809.218506,635
809.337341,637
809.456116,617
809.57489,623
809.693726,633
809.8125,625
809.931274,629
810.050049,645
810.168884,651
810.287659,626
810.406372,632
810.525269,608
810.643982,640
810.762756,630
810.881531,652
811.000305,642
811.11908,623
811.237854,596
811.356567,628
811.475403,634
811.594116,622
811.71283,622
811.831604,621
811.950378,631
812.069153,605
812.187927,629
812.30658,649
812.425415,633
812.544128,628
812.662781,645
812.781616,635
812.900269,624
813.019043,612
813.137756,629
813.256531,619
813.375244,637
813.493896,617
813.612671,613
813.731384,626
813.850037,623
813.96875,605
814.087524,628
814.206238,622
814.324951,619
814.443604,648
814.562256,616
814.68103,612
814.799683,618
814.918335,615
815.037109,620
815.155762,646
815.274475,617
815.393188,637
815.511841,620
815.630554,628
815.749146,611
815.867859,626
815.986572,596
816.105164,603
816.223877,606
816.342529,596
816.461182,605
816.579895,626
816.698486,612
816.817139,630
816.935791,655
817.054504,608
817.173096,589
817.291748,584
817.4104,570
817.529053,578
817.647644,627
817.766235,579
817.884949,601
818.00354,577
818.122192,576
818.240845,584
818.359436,533
818.478088,563
818.59668,553
818.715271,533
818.833923,512
818.952515,518
819.071106,534
819.189758,513
819.30835,512
819.426941,517
819.545532,535
819.664124,483
819.782715,496
819.901306,508
820.019897,510
820.138489,503
820.25708,514
820.375671,512
820.494202,474
820.612732,510
820.731384,502
820.849915,517
820.968506,465
821.087097,493
821.205627,480
821.324158,492
821.442749,500
821.561279,486
821.679871,476
821.798401,514
821.916931,487
822.035461,483
822.154053,479
822.272583,494
822.391174,484
822.509583,488
822.628174,476
822.746704,475
822.865234,484
822.983765,491
823.102295,465
823.220825,490
823.339294,481
823.457825,493
823.576355,496
823.694824,497
823.813354,492
823.931885,481
824.050354,486
824.168884,488
824.287354,471
824.405823,479
824.524353,464
824.642822,496
824.761353,483
824.879822,488
824.998291,500
825.116699,480
825.235291,484
825.353699,490
825.472168,472
825.590637,484
825.709106,462
825.827576,496
825.946045,478
826.064453,476
826.182983,474
826.301392,478
826.4198,475
826.53833,469
826.656738,488
826.775208,466
826.893677,457
827.012024,459
827.130493,474
827.248962,469
827.36731,467
827.485779,464
827.604248,473
827.722595,464
827.841064,472
827.959412,475
828.077942,454
828.196289,468
828.314636,477
828.433105,488
828.551514,482
828.669861,454
828.78833,459
828.906677,467
829.025085,459
829.143433,475
829.261841,461
829.38031,476
829.498657,475
829.617004,454
829.735413,464
829.85376,461
829.972107,460
830.090515,480
830.208862,443
830.327209,467
830.445557,465
830.563904,461
830.682312,445
830.800659,458
830.919006,453
831.037354,472
831.155701,461
831.274048,462
831.392395,449
831.51062,457
831.629028,475
831.747314,472
831.865662,464
831.984009,465
832.102356,447
832.220642,448
832.338928,453
832.457275,454
832.575623,436
832.693909,456
832.812134,476
832.930481,465
833.048828,465
833.167114,444
833.2854,460
833.403687,452
833.521973,454
833.640259,452
833.758545,466
833.876831,478
833.995056,460
834.113281,455
834.231628,450
834.349915,434
834.468201,461
834.586426,464
834.704651,464
834.822998,454
834.941162,466
835.059448,471
835.177673,476
835.295959,457
835.414246,447
835.53241,458
835.650635,464
835.768921,474
835.887146,451
836.005371,464
836.123596,477
836.241821,460
836.360046,483
836.478271,470
836.596497,470
836.714722,474
836.832886,470
836.95105,454
837.069336,473
837.1875,484
837.305725,463
837.423889,487
837.542053,463
837.660339,482
837.778503,463
837.896667,469
838.014832,471
838.132996,463
838.25116,492
838.369385,482
838.487488,461
838.605713,472
838.723877,472
838.84198,483
838.960205,470
839.078308,478
839.196472,466
839.314636,484
839.4328,467
839.550964,480
839.669067,467
839.787231,464
839.905396,469
840.023499,479
840.141602,468
840.259766,472
840.377869,451
840.495972,478
840.614136,475
840.732239,444
840.850342,469
840.968445,469
841.086548,469
841.204651,481
841.322754,445
841.440918,466
841.55896,451
841.677002,455
841.795166,466
841.913208,468
842.031311,468
842.149353,480
842.267456,462
842.385498,458
842.503601,435
842.621643,471
842.739746,452
842.857788,446
842.97583,453
843.093933,456
843.211975,440
843.330017,458
843.44812,443
843.566101,458
843.684204,465
843.802246,450
843.920227,451
844.038269,462
844.156311,441
844.274292,448
844.392395,440
844.510376,476
844.628357,445
844.74646,459
844.864441,455
844.982422,445
845.100403,447
845.218384,456
845.336426,451
845.454468,475
845.572449,432
845.69043,449
845.808411,460
845.926453,439
846.044373,450
846.162354,455
846.280396,449
846.398315,459
846.516296,446
846.634216,442
846.752197,448
846.870178,465
846.988098,434
847.106079,465
847.22406,452
847.34198,448
847.4599,421
847.577881,445
847.695801,435
847.813782,451
847.931641,449
848.049561,446
848.167603,445
848.285461,449
848.403381,456
848.521362,448
848.639221,440
848.75708,459
848.875,466
848.99292,444
849.110901,444
849.22876,450
849.34668,465
849.464539,445
849.582458,445
849.700317,442
849.818176,430
849.936096,447
850.053955,451
850.171875,450
850.289673,430
850.407593,457
850.525452,451
850.643311,457
850.761169,451
850.878967,457
850.996887,449
851.114746,448
851.232544,440
851.350403,448
851.468262,463
851.58606,453
851.703979,452
851.821777,441
851.939636,443
852.057434,449
852.175232,443
852.293091,439
852.410889,433
852.528687,461
852.646545,444
852.764343,446
852.88208,439
852.999939,452
853.117676,452
853.235535,451
853.353271,456
853.471069,462
853.588928,453
853.706604,446
853.824402,433
853.9422,431
854.059998,460
854.177734,433
854.295532,442
854.413269,448
854.531006,435
854.648804,449
854.766541,457
854.884277,448
855.002014,462
855.119751,444
855.237549,417
855.355225,450
855.473022,449
855.590698,460
855.708435,441
855.826172,467
855.943848,451
856.061646,480
856.179321,441
856.296997,449
856.414795,456
856.53241,466
856.650085,441
856.767822,453
856.885559,453
857.003174,469
857.120911,453
857.238586,458
857.356201,467
857.473938,453
857.591614,450
857.709351,455
857.826965,456
857.944641,457
858.062317,464
858.179993,461
858.297668,458
858.415283,457
858.532959,453
858.650574,433
858.768188,464
858.885803,471
859.003479,459
859.121094,458
859.23877,445
859.356384,443
859.473999,456
859.591675,452
859.709229,468
859.826843,446
859.944458,439
860.062012,436
860.179626,423
860.297302,450
860.414856,447
860.532471,456
860.650024,443
860.767639,444
860.885193,447
861.002808,455
861.120361,447
861.237976,432
861.35553,447
861.473022,435
861.590698,450
861.708191,446
861.825745,462
861.943298,437
862.060852,456
862.178406,440
862.295959,468
862.413513,440
862.531006,445
862.64856,444
862.766113,449
862.883667,455
863.00116,460
863.118713,459
863.236206,446
863.353699,461
863.471252,445
863.588745,460
863.706177,440
863.82373,441
863.941162,446
864.058716,440
864.176208,446
864.29364,440
864.411194,459
864.528687,450
864.646118,451
864.763611,445
864.881042,449
864.998535,456
865.116028,454
865.233459,459
865.350891,439
865.468384,438
865.585754,458
865.703308,439
865.820679,443
865.938171,468
866.055542,434
866.173035,441
866.290466,430
866.407837,453
866.52533,442
866.6427,467
866.760071,449
866.877563,456
866.994934,435
867.112305,462
867.229736,437
867.347107,449
867.464539,452
867.58197,450
867.699341,459
867.81665,455
867.934082,462
868.051453,465
868.168823,462
868.286194,474
868.403564,469
868.520935,450
868.638306,471
868.755676,468
868.872986,434
868.990295,455
869.107727,454
869.225037,455
869.342346,446
869.459717,453
869.577026,462
869.694336,465
869.811707,464
869.929016,458
870.046326,441
870.163635,459
870.280945,447
870.398254,451
870.515564,460
870.632812,457
870.750183,444
870.867432,469
870.984741,437
871.102051,467
871.219299,469
871.336609,471
871.453918,436
871.571106,446
871.688416,457
871.805664,469
871.922852,443
872.040222,456
872.157471,448
872.274719,448
872.391968,449
872.509155,452
872.626465,443
872.743652,452
872.860962,449
872.978149,468
873.095337,445
873.212646,471
873.329834,460
873.44696,457
873.564209,469
873.681396,449
873.798645,454
873.915894,454
874.03302,453
874.150208,453
874.267456,443
874.384583,447
874.501831,440
874.618958,442
874.736145,460
874.853333,465
874.970459,456
875.087646,454
875.204834,459
875.32196,475
875.439148,459
875.556274,455
875.673401,464
875.790527,449
875.907715,448
876.024841,441
876.141968,442
876.259094,445
876.376282,436
876.493347,449
876.610474,439
876.7276,452
876.844727,438
876.961853,431
877.078918,435
877.195984,465
877.313171,457
877.430237,451
877.547302,448
877.664368,453
877.781433,462
877.898499,451
878.015625,458
878.13269,441
878.249695,444
878.366821,445
878.483887,449
878.600952,445
878.717957,441
878.834961,453
878.952087,445
879.069092,462
879.186157,450
879.303162,463
879.420227,447
879.537231,456
879.654236,447
879.77124,454
879.888306,452
880.005249,472
880.122314,445
880.239319,460
880.356323,453
880.473328,442
880.590271,456
880.707275,439
880.824341,443
880.941284,455
881.058228,446
881.175232,466
881.292236,452
881.40918,455
881.526123,450
881.643066,462
881.760071,456
881.877014,447
881.993958,450
882.11084,453
882.227783,472
882.344727,465
882.46167,433
882.578613,475
882.695618,457
882.812439,454
882.929382,456
883.046326,457
883.163208,439
883.280151,451
883.397034,438
883.513916,486
883.630798,448
883.747742,437
883.864563,450
883.981506,459
884.098389,440
884.21521,444
884.332153,466
884.448975,458
884.565796,446
884.682678,435
884.7995,471
884.916443,470
885.033264,446
885.150085,460
885.266968,480
885.383789,451
885.500671,450
885.617493,466
885.734314,477
885.851196,444
885.967896,445
886.084717,464
886.201599,456
886.318359,460
886.435181,470
886.552002,459
886.668762,450
886.785645,457
886.902344,464
887.019165,461
887.135925,457
887.252747,448
887.369446,465
887.486267,458
887.603027,450
887.719788,456
887.836548,465
887.953247,473
888.070068,447
888.186829,451
888.303528,466
888.420288,444
888.536987,463
888.653687,458
888.770447,458
888.887146,440
889.003967,440
889.120667,443
889.237305,452
889.354065,480
889.470703,466
889.587463,453
889.704163,452
889.820862,439
889.937561,461
890.054199,466
890.170837,471
890.287598,470
890.404236,438
890.520874,447
890.637634,445
890.754211,459
890.87085,470
890.987549,462
891.104187,455
891.220886,458
891.337463,436
891.454102,463
891.57074,454
891.687378,446
891.804077,457
891.920654,438
892.037231,443
892.15387,435
892.270447,451
892.387085,465
892.503723,448
892.6203,469
892.736877,447
892.853516,456
892.970032,458
893.08667,438
893.203186,460
893.319763,468
893.43634,465
893.552917,437
893.669556,442
893.786011,455
893.902588,461
894.019165,468
894.135681,459
894.252197,472
894.368835,461
894.485291,463
894.601868,462
894.718384,453
894.8349,436
894.951355,459
895.067932,446
895.184448,448
895.300964,456
895.417419,461
895.533936,460
895.650452,452
895.766907,464
895.883423,464
895.999878,458
896.116333,461
896.232849,467
896.349304,473
896.465759,471
896.582214,457
896.698669,457
896.815125,470
896.931641,450
897.048035,446
897.164551,452
897.280884,460
897.397339,455
897.513794,481
897.630249,450
897.746582,471
897.863098,475
897.979431,457
898.095886,449
898.212341,455
898.328674,453
898.445129,453
898.561462,455
898.677795,466
898.794312,440
898.910645,471
899.026978,472
899.143433,469
899.259766,472
899.37616,460
899.492493,466
899.608765,464
899.725159,461
899.841553,470
899.957947,456
900.07428,458
900.190552,449
900.306946,473
900.423157,479
900.53949,461
900.655884,451
900.772156,465
900.888489,468
901.004822,458
901.121033,475
901.237366,453
901.353699,456
901.46991,471
901.586304,461
901.702515,461
901.818787,447
901.93512,477
902.051331,464
902.167603,459
902.283875,464
902.400085,477
902.516418,478
902.632629,474
902.74884,477
902.865112,469
902.981384,481
903.097595,462
903.213867,453
903.330017,469
903.446289,479
903.5625,470
903.67865,486
903.794922,450
903.911072,462
904.027344,468
904.143494,459
904.259705,455
904.375916,453
904.492065,483
904.608215,471
904.724426,468
904.840576,457
904.956726,462
905.072876,465
905.189087,489
905.305176,447
905.421387,455
905.537537,463
905.653687,464
905.769775,457
905.885925,481
906.002014,466
906.118164,477
906.234314,468
906.350403,468
906.466492,450
906.582642,467
906.69873,455
906.814758,474
906.930908,473
907.046936,465
907.163086,472
907.279175,478
907.395264,466
907.511353,465
907.62738,443
907.743408,466
907.859497,463
907.975525,470
908.091553,476
908.207703,462
908.32373,478
908.439758,461
908.555786,459
908.671814,458
908.787842,478
908.90387,464
909.019775,488
909.135864,453
909.251892,481
909.367859,461
909.483826,475
909.599854,464
909.715881,469
909.831848,457
909.947815,459
910.063782,456
910.179749,470
910.295776,459
910.411743,453
910.527649,473
910.643616,453
910.759583,472
910.875488,463
910.991455,469
911.107361,463
911.223267,501
911.339294,458
911.4552,478
911.571106,455
911.687073,480
911.802979,444
911.918823,470
912.034729,454
912.150635,463
912.266602,451
912.382446,450
912.498352,461
912.614197,481
912.730103,463
912.846008,468
792.44574,633
792.56488,644
792.68396,697
792.80304,683
792.92218,626
793.041199,611
793.160339,591
793.279419,638
793.398499,606
793.517578,614
793.636658,610
793.755737,620
793.874817,625
793.993896,606
794.112976,636
794.232056,588
794.351074,563
794.470215,626
794.589233,613
794.708313,603
794.827393,611
794.946411,582
795.065552,619
795.18457,579
795.303589,594
795.422668,600
795.541687,592
795.660767,607
795.779846,590
795.898865,609
796.017883,592
796.136963,597
796.255981,582
796.375061,592
796.49408,578
796.613037,607
796.732117,564
796.851135,588
796.970154,576
797.089233,582
797.208191,575
797.327271,576
797.446228,588
797.565186,584
797.684265,594
797.803223,593
797.922241,579
798.04126,587
798.160278,577
798.279297,587
798.398315,575
798.517273,599
798.636292,565
798.75531,589
798.874268,567
798.993286,578
799.112244,566
799.231323,585
799.350281,600
799.469238,607
799.588257,575
799.707153,562
799.826111,572
799.945129,599
800.064087,583
800.183044,586
800.302063,571
800.421021,589
800.539978,587
800.658936,567
800.777893,591
800.896912,590
801.015747,569
801.134705,597
801.253723,576
801.37262,593
801.491638,581
801.610535,595
801.729492,566
801.84845,586
801.967407,578
802.086243,569
802.205261,593
802.324158,574
802.443115,584
802.562073,584
802.680969,576
802.799927,585
802.918762,588
803.037659,581
803.156677,605
803.275574,585
803.39447,596
803.513428,597
803.632263,607
803.751221,592
803.870117,573
803.989014,580
804.107971,611
804.226746,596
804.345642,609
804.4646,608
804.583496,614
804.702393,637
804.821228,609
804.940125,589
805.059021,623
805.177917,615
805.296814,607
805.415649,615
805.534546,614
805.653442,615
805.772278,609
805.891113,593
806.01001,603
806.128906,603
806.247742,612
806.366577,612
806.485413,612
806.604309,608
806.723145,612
806.84198,632
806.960876,619
807.079712,591
807.198486,628
807.317383,638
807.436218,608
807.554993,614
807.673889,619
807.792725,613
807.91156,605
808.030396,628
808.14917,629
808.268005,608
808.386841,620
808.505676,637
808.624451,631
808.743286,623
808.862122,626
808.980896,634
809.099731,594
809.218506,620
809.337341,662
809.456116,601
809.57489,622
809.693726,637
809.8125,623
809.931274,599
810.050049,634
810.168884,632
810.287659,623
810.406372,637
810.525269,623
810.643982,656
810.762756,636
810.881531,633
811.000305,629
811.11908,620
811.237854,638
811.356567,625
811.475403,612
811.594116,644
811.71283,651
811.831604,619
811.950378,626
812.069153,648
812.187927,649
812.30658,651
812.425415,634
812.544128,611
812.662781,636
812.781616,630
812.900269,628
813.019043,666
813.137756,620
813.256531,644
813.375244,632
813.493896,636
813.612671,643
813.731384,611
813.850037,625
813.96875,623
814.087524,624
814.206238,626
814.324951,593
814.443604,646
814.562256,587
814.68103,635
814.799683,602
814.918335,648
815.037109,612
815.155762,627
815.274475,638
815.393188,630
815.511841,600
815.630554,628
815.749146,618
815.867859,632
815.986572,624
816.105164,620
816.223877,602
816.342529,609
816.461182,615
816.579895,651
816.698486,606
816.817139,608
816.935791,611
817.054504,633
817.173096,641
817.291748,635
817.4104,620
817.529053,614
817.647644,611
817.766235,601
817.884949,568
818.00354,582
818.122192,565
818.240845,555
818.359436,557
818.478088,569
818.59668,547
818.715271,572
818.833923,543
818.952515,534
819.071106,506
819.189758,539
819.30835,507
819.426941,511
819.545532,517
819.664124,487
819.782715,522
819.901306,502
820.019897,505
820.138489,513
820.25708,479
820.375671,519
820.494202,497
820.612732,515
820.731384,501
820.849915,501
820.968506,496
821.087097,498
821.205627,497
821.324158,505
821.442749,493
821.561279,492
821.679871,482
821.798401,508
821.916931,506
822.035461,499
822.154053,485
822.272583,489
822.391174,495
822.509583,473
822.628174,471
822.746704,486
822.865234,492
822.983765,473
823.102295,491
823.220825,478
823.339294,494
823.457825,485
823.576355,485
823.694824,487
823.813354,465
823.931885,493
824.050354,485
824.168884,485
824.287354,482
824.405823,505
824.524353,476
824.642822,474
824.761353,497
824.879822,496
824.998291,482
825.116699,502
825.235291,493
825.353699,495
825.472168,483
825.590637,483
825.709106,465
825.827576,470
825.946045,467
826.064453,487
826.182983,460
826.301392,467
826.4198,490
826.53833,472
826.656738,463
826.775208,486
826.893677,485
827.012024,467
827.130493,464
827.248962,482
827.36731,448
827.485779,482
827.604248,472
827.722595,464
827.841064,474
827.959412,467
828.077942,480
828.196289,474
828.314636,445
828.433105,476
828.551514,471
828.669861,469
828.78833,473
828.906677,479
829.025085,455
829.143433,462
829.261841,479
829.38031,469
829.498657,454
829.617004,472
829.735413,463
829.85376,466
829.972107,454
830.090515,482
830.208862,474
830.327209,457
830.445557,454
830.563904,471
830.682312,457
830.800659,481
830.919006,453
831.037354,459
831.155701,466
831.274048,470
831.392395,460
831.51062,476
831.629028,444
831.747314,450
831.865662,487
831.984009,451
832.102356,452
832.220642,467
832.338928,471
832.457275,469
832.575623,469
832.693909,464
832.812134,458
832.930481,449
833.048828,466
833.167114,445
833.2854,466
833.403687,473
833.521973,461
833.640259,466
833.758545,468
833.876831,460
833.995056,465
834.113281,460
834.231628,457
834.349915,453
834.468201,473
834.586426,463
834.704651,481
834.822998,483
834.941162,459
835.059448,465
835.177673,446
835.295959,468
835.414246,477
835.53241,456
835.650635,454
835.768921,481
835.887146,443
836.005371,464
836.123596,485
836.241821,447
836.360046,487
836.478271,471
836.596497,466
836.714722,488
836.832886,468
836.95105,468
837.069336,476
837.1875,461
837.305725,472
837.423889,472
837.542053,485
837.660339,463
837.778503,471
837.896667,492
838.014832,475
838.132996,467
838.25116,475
838.369385,473
838.487488,503
838.605713,477
838.723877,463
838.84198,485
838.960205,475
839.078308,468
839.196472,481
839.314636,472
839.4328,484
839.550964,472
839.669067,479
839.787231,468
839.905396,485
840.023499,468
840.141602,482
840.259766,455
840.377869,453
840.495972,474
840.614136,467
840.732239,491
840.850342,458
840.968445,453
841.086548,452
841.204651,457
841.322754,465
841.440918,489
841.55896,457
841.677002,462
841.795166,473
841.913208,451
842.031311,488
842.149353,462
842.267456,454
842.385498,471
842.503601,448
842.621643,458
842.739746,452
842.857788,460
842.97583,442
843.093933,457
843.211975,460
843.330017,464
843.44812,443
843.566101,472
843.684204,465
843.802246,455
843.920227,429
844.038269,460
844.156311,450
844.274292,474
844.392395,463
844.510376,455
844.628357,443
844.74646,455
844.864441,462
844.982422,443
845.100403,447
845.218384,464
845.336426,450
845.454468,442
845.572449,459
845.69043,440
845.808411,461
845.926453,462
846.044373,442
846.162354,451
846.280396,453
846.398315,442
846.516296,447
846.634216,449
846.752197,444
846.870178,460
846.988098,454
847.106079,462
847.22406,453
847.34198,432
847.4599,455
847.577881,459
847.695801,446
847.813782,447
847.931641,452
848.049561,446
848.167603,456
848.285461,443
848.403381,455
848.521362,446
848.639221,470
848.75708,447
848.875,418
848.99292,470
849.110901,442
849.22876,455
849.34668,439
849.464539,439
849.582458,469
849.700317,443
849.818176,446
849.936096,451
850.053955,441
850.171875,454
850.289673,467
850.407593,445
850.525452,444
850.643311,454
850.761169,446
850.878967,453
850.996887,427
851.114746,457
851.232544,437
851.350403,437
851.468262,449
851.58606,453
851.703979,443
851.821777,451
851.939636,437
852.057434,462
852.175232,431
852.293091,464
852.410889,443
852.528687,458
852.646545,453
852.764343,469
852.88208,459
852.999939,457
853.117676,462
853.235535,454
853.353271,453
853.471069,444
853.588928,447
853.706604,453
853.824402,451
853.9422,459
854.059998,451
854.177734,449
854.295532,451
854.413269,457
854.531006,448
854.648804,443
854.766541,444
854.884277,474
855.002014,459
855.119751,462
855.237549,443
855.355225,441
855.473022,454
855.590698,459
855.708435,462
855.826172,452
855.943848,446
856.061646,463
856.179321,457
856.296997,437
856.414795,469
856.53241,473
856.650085,464
856.767822,447
856.885559,447
857.003174,472
857.120911,436
857.238586,461
857.356201,462
857.473938,452
857.591614,460
857.709351,458
857.826965,445
857.944641,456
858.062317,454
858.179993,452
858.297668,457
858.415283,455
858.532959,468
858.650574,460
858.768188,457
858.885803,457
859.003479,459
859.121094,456
859.23877,447
859.356384,455
859.473999,448
859.591675,449
859.709229,452
859.826843,440
859.944458,457
860.062012,445
860.179626,457
860.297302,468
860.414856,431
860.532471,453
860.650024,448
860.767639,447
860.885193,460
861.002808,452
861.120361,449
861.237976,428
861.35553,461
861.473022,436
861.590698,459
861.708191,451
861.825745,448
861.943298,473
862.060852,454
862.178406,464
862.295959,448
862.413513,466
862.531006,456
862.64856,453
862.766113,452
862.883667,448
863.00116,453
863.118713,444
863.236206,469
863.353699,462
863.471252,452
863.588745,460
863.706177,447
863.82373,451
863.941162,443
864.058716,462
864.176208,458
864.29364,452
864.411194,427
864.528687,443
864.646118,467
864.763611,462
864.881042,477
864.998535,452
865.116028,453
865.233459,464
865.350891,449
865.468384,455
865.585754,441
865.703308,432
865.820679,446
865.938171,451
866.055542,443
866.173035,472
866.290466,452
866.407837,457
866.52533,450
866.6427,470
866.760071,463
866.877563,479
866.994934,460
867.112305,449
867.229736,445
867.347107,447
867.464539,462
867.58197,448
867.699341,456
867.81665,462
867.934082,447
868.051453,450
868.168823,455
868.286194,461
868.403564,472
868.520935,469
868.638306,452
868.755676,467
868.872986,462
868.990295,447
869.107727,455
869.225037,451
869.342346,457
869.459717,467
869.577026,450
869.694336,463
869.811707,451
869.929016,473
870.046326,454
870.163635,465
870.280945,457
870.398254,460
870.515564,445
870.632812,454
870.750183,440
870.867432,459
870.984741,433
871.102051,443
871.219299,422
871.336609,452
871.453918,464
871.571106,466
871.688416,465
871.805664,434
871.922852,476
872.040222,467
872.157471,464
872.274719,460
872.391968,438
872.509155,458
872.626465,444
872.743652,448
872.860962,455
872.978149,445
873.095337,456
873.212646,445
873.329834,444
873.44696,471
873.564209,441
873.681396,441
873.798645,461
873.915894,453
874.03302,445
874.150208,459
874.267456,459
874.384583,451
874.501831,459
874.618958,456
874.736145,437
874.853333,473
874.970459,470
875.087646,447
875.204834,460
875.32196,452
875.439148,447
875.556274,437
875.673401,469
875.790527,446
875.907715,442
876.024841,443
876.141968,452
876.259094,460
876.376282,453
876.493347,452
876.610474,471
876.7276,456
876.844727,454
876.961853,466
877.078918,449
877.195984,467
877.313171,452
877.430237,469
877.547302,451
877.664368,472
877.781433,446
877.898499,445
878.015625,462
878.13269,443
878.249695,447
878.366821,468
878.483887,466
878.600952,452
878.717957,451
878.834961,465
878.952087,460
879.069092,471
879.186157,447
879.303162,437
879.420227,461
879.537231,454
879.654236,459
879.77124,451
879.888306,461
880.005249,456
880.122314,453
880.239319,452
880.356323,454
880.473328,450
880.590271,473
880.707275,470
880.824341,450
880.941284,443
881.058228,441
881.175232,448
881.292236,451
881.40918,450
881.526123,466
881.643066,474
881.760071,435
881.877014,478
881.993958,452
882.11084,450
882.227783,461
882.344727,449
882.46167,457
882.578613,461
882.695618,439
882.812439,474
882.929382,456
883.046326,458
883.163208,448
883.280151,448
883.397034,460
883.513916,466
883.630798,466
883.747742,464
883.864563,450
883.981506,462
884.098389,457
884.21521,448
884.332153,429
884.448975,457
884.565796,471
884.682678,470
884.7995,435
884.916443,462
885.033264,467
885.150085,476
885.266968,465
885.383789,458
885.500671,456
885.617493,445
885.734314,462
885.851196,472
885.967896,449
886.084717,462
886.201599,480
886.318359,468
886.435181,450
886.552002,460
886.668762,455
886.785645,458
886.902344,460
887.019165,482
887.135925,476
887.252747,455
887.369446,449
887.486267,443
887.603027,455
887.719788,454
887.836548,472
887.953247,461
888.070068,453
888.186829,459
888.303528,462
888.420288,478
888.536987,464
888.653687,448
888.770447,458
888.887146,450
889.003967,465
889.120667,450
889.237305,475
889.354065,464
889.470703,456
889.587463,463
889.704163,468
889.820862,448
889.937561,451
890.054199,451
890.170837,456
890.287598,456
890.404236,462
890.520874,472
890.637634,451
890.754211,470
890.87085,449
890.987549,460
891.104187,469
891.220886,438
891.337463,452
891.454102,437
891.57074,467
891.687378,457
891.804077,489
891.920654,484
892.037231,455
892.15387,467
892.270447,458
892.387085,462
892.503723,461
892.6203,479
892.736877,434
892.853516,449
892.970032,458
893.08667,470
893.203186,466
893.319763,468
893.43634,465
893.552917,492
893.669556,464
893.786011,459
893.902588,457
894.019165,471
894.135681,475
894.252197,480
894.368835,464
894.485291,469
894.601868,455
894.718384,453
894.8349,448
894.951355,463
895.067932,468
895.184448,456
895.300964,470
895.417419,474
895.533936,453
895.650452,464
895.766907,455
895.883423,457
895.999878,460
896.116333,466
896.232849,482
896.349304,460
896.465759,459
896.582214,456
896.698669,469
896.815125,451
896.931641,457
897.048035,459
897.164551,491
897.280884,475
897.397339,451
897.513794,462
897.630249,466
897.746582,471
897.863098,464
897.979431,469
898.095886,454
898.212341,464
898.328674,481
898.445129,463
898.561462,457
898.677795,475
898.794312,478
898.910645,472
899.026978,468
899.143433,483
899.259766,459
899.37616,471
899.492493,472
899.608765,470
899.725159,480
899.841553,471
899.957947,475
900.07428,464
900.190552,482
900.306946,466
900.423157,468
900.53949,468
900.655884,477
900.772156,464
900.888489,468
901.004822,465
901.121033,460
901.237366,480
901.353699,485
901.46991,453
901.586304,474
901.702515,480
901.818787,473
901.93512,460
902.051331,483
902.167603,454
902.283875,490
902.400085,477
902.516418,468
902.632629,490
902.74884,441
902.865112,470
902.981384,481
903.097595,457
903.213867,468
903.330017,469
903.446289,471
903.5625,456
903.67865,478
903.794922,457
903.911072,469
904.027344,462
904.143494,476
904.259705,463
904.375916,450
904.492065,470
904.608215,451
904.724426,481
904.840576,460
904.956726,480
905.072876,451
905.189087,467
905.305176,457
905.421387,469
905.537537,461
905.653687,452
905.769775,458
905.885925,474
906.002014,477
906.118164,487
906.234314,464
906.350403,459
906.466492,468
906.582642,455
906.69873,459
906.814758,486
906.930908,449
907.046936,484
907.163086,451
907.279175,466
907.395264,469
907.511353,478
907.62738,467
907.743408,465
907.859497,463
907.975525,487
908.091553,456
908.207703,475
908.32373,473
908.439758,475
908.555786,477
908.671814,474
908.787842,473
908.90387,458
909.019775,457
909.135864,488
909.251892,459
909.367859,477
909.483826,468
909.599854,455
909.715881,470
909.831848,479
909.947815,464
910.063782,487
910.179749,485
910.295776,462
910.411743,473
910.527649,472
910.643616,466
910.759583,442
910.875488,458
910.991455,464
911.107361,460
911.223267,494
911.339294,463
911.4552,476
911.571106,472
911.687073,469
911.802979,474
911.918823,463
912.034729,483
912.150635,480
912.266602,480
912.382446,472
912.498352,457
912.614197,491
912.730103,467
912.846008,460
792.44574,623
792.56488,672
792.68396,693
792.80304,675
792.92218,612
793.041199,617
793.160339,600
793.279419,631
793.398499,605
793.517578,600
793.636658,615
793.755737,620
793.874817,630
793.993896,623
794.112976,624
794.232056,615
794.351074,622
794.470215,612
794.589233,620
794.708313,590
794.827393,580
794.946411,594
795.065552,611
795.18457,595
795.303589,601
795.422668,600
795.541687,604
795.660767,581
795.779846,604
795.898865,594
796.017883,593
796.136963,579
796.255981,581
796.375061,590
796.49408,597
796.613037,583
796.732117,591
796.851135,580
796.970154,597
797.089233,578
797.208191,590
797.327271,617
797.446228,600
797.565186,609
797.684265,586
797.803223,568
797.922241,578
798.04126,578
798.160278,571
798.279297,553
798.398315,575
798.517273,600
798.636292,576
798.75531,582
798.874268,581
798.993286,581
799.112244,588
799.231323,580
799.350281,593
799.469238,580
799.588257,583
799.707153,598
799.826111,594
799.945129,556
800.064087,599
800.183044,596
800.302063,585
800.421021,575
800.539978,590
800.658936,570
800.777893,589
800.896912,599
801.015747,579
801.134705,590
801.253723,577
801.37262,578
801.491638,605
801.610535,587
801.729492,595
801.84845,613
801.967407,571
802.086243,605
802.205261,611
802.324158,577
802.443115,588
802.562073,565
802.680969,595
802.799927,595
802.918762,570
803.037659,585
803.156677,578
803.275574,607
803.39447,606
803.513428,612
803.632263,602
803.751221,583
803.870117,589
803.989014,590
804.107971,610
804.226746,590
804.345642,615
804.4646,594
804.583496,586
804.702393,596
804.821228,611
804.940125,604
805.059021,606
805.177917,615
805.296814,621
805.415649,609
805.534546,607
805.653442,650
805.772278,597
805.891113,597
806.01001,602
806.128906,612
806.247742,609
806.366577,623
806.485413,601
806.604309,602
806.723145,597
806.84198,616
806.960876,627
807.079712,616
807.198486,633
807.317383,601
807.436218,620
807.554993,614
807.673889,603
807.792725,627
807.91156,612
808.030396,601
808.14917,620
808.268005,639
808.386841,636
808.505676,620
808.624451,609
808.743286,643
808.862122,614
808.980896,637
809.099731,626
809.218506,669
809.337341,629
809.456116,620
809.57489,635
809.693726,649
809.8125,636
809.931274,645
810.050049,626
810.168884,651
810.287659,629
810.406372,627
810.525269,638
810.643982,608
810.762756,615
810.881531,646
811.000305,640
811.11908,634
811.237854,629
811.356567,635
811.475403,610
811.594116,615
811.71283,644
811.831604,637
811.950378,658
812.069153,605
812.187927,637
812.30658,624
812.425415,634
812.544128,623
812.662781,629
812.781616,641
812.900269,642
813.019043,617
813.137756,642
813.256531,628
813.375244,617
813.493896,645
813.612671,645
813.731384,647
813.850037,644
813.96875,627
814.087524,597
814.206238,657
814.324951,633
814.443604,619
814.562256,641
814.68103,644
814.799683,615
814.918335,645
815.037109,616
815.155762,637
815.274475,606
815.393188,621
815.511841,618
815.630554,634
815.749146,628
815.867859,640
815.986572,609
816.105164,607
816.223877,607
816.342529,626
816.461182,603
816.579895,612
816.698486,617
816.817139,616
816.935791,630
817.054504,628
817.173096,606
817.291748,627
817.4104,620
817.529053,612
817.647644,605
817.766235,588
817.884949,586
818.00354,562
818.122192,571
818.240845,559
818.359436,558
818.478088,536
818.59668,550
818.715271,566
818.833923,526
818.952515,534
819.071106,537
819.189758,517
819.30835,525
819.426941,528
819.545532,503
819.664124,512
819.782715,522
819.901306,522
820.019897,490
820.138489,514
820.25708,518
820.375671,505
820.494202,489
820.612732,509
820.731384,495
820.849915,510
820.968506,473
821.087097,510
821.205627,498
821.324158,462
821.442749,466
821.561279,490
821.679871,510
821.798401,495
821.916931,471
822.035461,507
822.154053,500
822.272583,474
822.391174,474
822.509583,488
822.628174,512
822.746704,505
822.865234,485
822.983765,475
823.102295,503
823.220825,481
823.339294,475
823.457825,478
823.576355,485
823.694824,494
823.813354,481
823.931885,491
824.050354,482
824.168884,495
824.287354,502
824.405823,507
824.524353,484
824.642822,481
824.761353,497
824.879822,471
824.998291,488
825.116699,500
825.235291,476
825.353699,475
825.472168,492
825.590637,489
825.709106,476
825.827576,488
825.946045,467
826.064453,489
826.182983,464
826.301392,478
826.4198,487
826.53833,471
826.656738,466
826.775208,466
826.893677,471
827.012024,471
827.130493,492
827.248962,460
827.36731,471
827.485779,475
827.604248,472
827.722595,460
827.841064,476
827.959412,470
828.077942,476
828.196289,468
828.314636,478
828.433105,463
828.551514,473
828.669861,462
828.78833,482
828.906677,449
829.025085,469
829.143433,459
829.261841,444
829.38031,458
829.498657,465
829.617004,453
829.735413,465
829.85376,454
829.972107,452
830.090515,459
830.208862,465
830.327209,453
830.445557,470
830.563904,473
830.682312,462
830.800659,474
830.919006,452
831.037354,455
831.155701,469
831.274048,454
831.392395,464
831.51062,459
831.629028,462
831.747314,455
831.865662,459
831.984009,461
832.102356,444
832.220642,472
832.338928,470
832.457275,468
832.575623,472
832.693909,485
832.812134,445
832.930481,481
833.048828,462
833.167114,437
833.2854,467
833.403687,474
833.521973,449
833.640259,482
833.758545,461
833.876831,469
833.995056,448
834.113281,479
834.231628,474
834.349915,468
834.468201,475
834.586426,456
834.704651,450
834.822998,464
834.941162,465
835.059448,445
835.177673,469
835.295959,449
835.414246,452
835.53241,452
835.650635,458
835.768921,458
835.887146,475
836.005371,468
836.123596,463
836.241821,467
836.360046,474
836.478271,465
836.596497,462
836.714722,459
836.832886,488
836.95105,508
837.069336,496
837.1875,471
837.305725,472
837.423889,492
837.542053,470
837.660339,466
837.778503,482
837.896667,478
838.014832,491
838.132996,480
838.25116,485
838.369385,474
838.487488,479
838.605713,455
838.723877,489
838.84198,476
838.960205,477
839.078308,484
839.196472,482
839.314636,466
839.4328,474
839.550964,471
839.669067,471
839.787231,463
839.905396,474
840.023499,476
840.141602,495
840.259766,481
840.377869,468
840.495972,488
840.614136,460
840.732239,473
840.850342,462
840.968445,471
841.086548,464
841.204651,486
841.322754,452
841.440918,466
841.55896,445
841.677002,474
841.795166,460
841.913208,467
842.031311,461
842.149353,454
842.267456,479
842.385498,460
842.503601,460
842.621643,469
842.739746,437
842.857788,470
842.97583,463
843.093933,446
843.211975,444
843.330017,455
843.44812,457
843.566101,457
843.684204,454
843.802246,446
843.920227,446
844.038269,465
844.156311,464
844.274292,463
844.392395,442
844.510376,441
844.628357,455
844.74646,459
844.864441,462
844.982422,466
845.100403,468
845.218384,454
845.336426,456
845.454468,466
845.572449,444
845.69043,458
845.808411,458
845.926453,449
846.044373,444
846.162354,455
846.280396,445
846.398315,461
846.516296,452
846.634216,444
846.752197,460
846.870178,461
846.988098,452
847.106079,454
847.22406,452
847.34198,447
847.4599,456
847.577881,456
847.695801,461
847.813782,432
847.931641,436
848.049561,464
848.167603,433
848.285461,456
848.403381,449
848.521362,454
848.639221,463
848.75708,450
848.875,459
848.99292,472
849.110901,441
849.22876,431
849.34668,462
849.464539,441
849.582458,457
849.700317,462
849.818176,454
849.936096,463
850.053955,464
850.171875,441
850.289673,469
850.407593,440
850.525452,452
850.643311,438
850.761169,464
850.878967,450
850.996887,451
851.114746,451
851.232544,457
851.350403,442
851.468262,448
851.58606,466
851.703979,442
851.821777,449
851.939636,463
852.057434,441
852.175232,428
852.293091,457
852.410889,444
852.528687,469
852.646545,454
852.764343,459
852.88208,444
852.999939,461
853.117676,450
853.235535,448
853.353271,453
853.471069,447
853.588928,476
853.706604,454
853.824402,444
853.9422,467
854.059998,457
854.177734,481
854.295532,449
854.413269,463
854.531006,459
854.648804,450
854.766541,467
854.884277,471
855.002014,433
855.119751,456
855.237549,439
855.355225,468
855.473022,445
855.590698,472
855.708435,464
855.826172,456
855.943848,449
856.061646,459
856.179321,473
856.296997,462
856.414795,443
856.53241,477
856.650085,442
856.767822,457
856.885559,470
857.003174,466
857.120911,470
857.238586,458
857.356201,465
857.473938,477
857.591614,449
857.709351,447
857.826965,449
857.944641,467
858.062317,448
858.179993,487
858.297668,448
858.415283,465
858.532959,444
858.650574,461
858.768188,453
858.885803,462
859.003479,470
859.121094,436
859.23877,442
859.356384,463
859.473999,439
859.591675,454
859.709229,466
859.826843,452
859.944458,470
860.062012,459
860.179626,457
860.297302,465
860.414856,449
860.532471,458
860.650024,454
860.767639,445
860.885193,452
861.002808,450
861.120361,444
861.237976,436
861.35553,466
861.473022,462
861.590698,475
861.708191,454
861.825745,459
861.943298,459
862.060852,444
862.178406,475
862.295959,463
862.413513,458
862.531006,447
862.64856,448
862.766113,446
862.883667,467
863.00116,453
863.118713,451
863.236206,444
863.353699,450
863.471252,449
863.588745,460
863.706177,455
863.82373,447
863.941162,437
864.058716,436
864.176208,466
864.29364,450
864.411194,439
864.528687,471
864.646118,475
864.763611,477
864.881042,453
864.998535,468
865.116028,479
865.233459,465
865.350891,461
865.468384,452
865.585754,451
865.703308,446
865.820679,443
865.938171,462
866.055542,466
866.173035,467
866.290466,452
866.407837,459
866.52533,459
866.6427,444
866.760071,462
866.877563,463
866.994934,449
867.112305,481
867.229736,440
867.347107,459
867.464539,467
867.58197,451
867.699341,454
867.81665,441
867.934082,447
868.051453,453
868.168823,471
868.286194,452
868.403564,458
868.520935,441
868.638306,438
868.755676,456
868.872986,463
868.990295,458
869.107727,456
869.225037,455
869.342346,454
869.459717,458
869.577026,465
869.694336,448
869.811707,471
869.929016,482
870.046326,448
870.163635,442
870.280945,451
870.398254,472
870.515564,461
870.632812,463
870.750183,462
870.867432,426
870.984741,451
871.102051,440
871.219299,442
871.336609,466
871.453918,458
871.571106,467
871.688416,465
871.805664,458
871.922852,450
872.040222,459
872.157471,457
872.274719,448
872.391968,456
872.509155,469
872.626465,441
872.743652,480
872.860962,441
872.978149,447
873.095337,454
873.212646,447
873.329834,435
873.44696,450
873.564209,475
873.681396,452
873.798645,438
873.915894,458
874.03302,457
874.150208,450
874.267456,452
874.384583,453
874.501831,454
874.618958,453
874.736145,462
874.853333,432
874.970459,441
875.087646,455
875.204834,445
875.32196,456
875.439148,468
875.556274,438
875.673401,474
875.790527,445
875.907715,470
876.024841,465
876.141968,464
876.259094,463
876.376282,443
876.493347,461
876.610474,447
876.7276,426
876.844727,458
876.961853,446
877.078918,455
877.195984,448
877.313171,448
877.430237,457
877.547302,455
877.664368,457
877.781433,450
877.898499,476
878.015625,456
878.13269,443
878.249695,471
878.366821,464
878.483887,447
878.600952,446
878.717957,462
878.834961,446
878.952087,462
879.069092,456
879.186157,452
879.303162,448
879.420227,442
879.537231,448
879.654236,454
879.77124,459
879.888306,447
880.005249,447
880.122314,451
880.239319,452
880.356323,428
880.473328,423
880.590271,455
880.707275,462
880.824341,459
880.941284,443
881.058228,463
881.175232,441
881.292236,462
881.40918,456
881.526123,466
881.643066,471
881.760071,483
881.877014,452
881.993958,451
882.11084,454
882.227783,446
882.344727,447
882.46167,460
882.578613,454
882.695618,453
882.812439,449
882.929382,449
883.046326,476
883.163208,464
883.280151,453
883.397034,439
883.513916,453
883.630798,462
883.747742,463
883.864563,461
883.981506,450
884.098389,454
884.21521,461
884.332153,462
884.448975,464
884.565796,437
884.682678,464
884.7995,472
884.916443,447
885.033264,449
885.150085,474
885.266968,461
885.383789,470
885.500671,448
885.617493,458
885.734314,449
885.851196,473
885.967896,460
886.084717,469
886.201599,468
886.318359,445
886.435181,460
886.552002,493
886.668762,458
886.785645,485
886.902344,473
887.019165,470
887.135925,459
887.252747,443
887.369446,452
887.486267,460
887.603027,463
887.719788,461
887.836548,454
887.953247,454
888.070068,457
888.186829,460
888.303528,477
888.420288,453
888.536987,464
888.653687,460
888.770447,474
888.887146,455
889.003967,481
889.120667,467
889.237305,467
889.354065,472
889.470703,470
889.587463,457
889.704163,471
889.820862,470
889.937561,471
890.054199,452
890.170837,468
890.287598,479
890.404236,475
890.520874,455
890.637634,449
890.754211,464
890.87085,452
890.987549,461
891.104187,452
891.220886,461
891.337463,460
891.454102,463
891.57074,462
891.687378,471
891.804077,459
891.920654,460
892.037231,461
892.15387,472
892.270447,454
892.387085,466
892.503723,469
892.6203,457
892.736877,481
892.853516,475
892.970032,458
893.08667,448
893.203186,463
893.319763,476
893.43634,463
893.552917,460
893.669556,460
893.786011,456
893.902588,462
894.019165,470
894.135681,457
894.252197,459
894.368835,454
894.485291,475
894.601868,460
894.718384,470
894.8349,450
894.951355,474
895.067932,480
895.184448,460
895.300964,460
895.417419,467
895.533936,461
895.650452,455
895.766907,446
895.883423,479
895.999878,470
896.116333,470
896.232849,447
896.349304,477
896.465759,443
896.582214,464
896.698669,455
896.815125,459
896.931641,463
897.048035,477
897.164551,447
897.280884,461
897.397339,459
897.513794,463
897.630249,460
897.746582,469
897.863098,449
897.979431,452
898.095886,452
898.212341,478
898.328674,463
898.445129,448
898.561462,452
898.677795,465
898.794312,452
898.910645,467
899.026978,451
899.143433,464
899.259766,468
899.37616,454
899.492493,444
899.608765,456
899.725159,482
899.841553,472
899.957947,463
900.07428,490
900.190552,454
900.306946,460
900.423157,466
900.53949,482
900.655884,470
900.772156,474
900.888489,464
901.004822,470
901.121033,463
901.237366,466
901.353699,469
901.46991,471
901.586304,477
901.702515,456
901.818787,470
901.93512,470
902.051331,485
902.167603,486
902.283875,484
902.400085,468
902.516418,479
902.632629,472
902.74884,487
902.865112,480
902.981384,469
903.097595,466
903.213867,453
903.330017,470
903.446289,470
903.5625,459
903.67865,463
903.794922,469
903.911072,466
904.027344,467
904.143494,454
904.259705,471
904.375916,475
904.492065,462
904.608215,455
904.724426,455
904.840576,482
904.956726,476
905.072876,479
905.189087,489
905.305176,475
905.421387,467
905.537537,469
905.653687,457
905.769775,470
905.885925,470
906.002014,474
906.118164,453
906.234314,484
906.350403,480
906.466492,455
906.582642,469
906.69873,468
906.814758,479
906.930908,475
907.046936,463
907.163086,451
907.279175,480
907.395264,469
907.511353,483
907.62738,461
907.743408,459
907.859497,456
907.975525,478
908.091553,461
908.207703,468
908.32373,470
908.439758,463
908.555786,485
908.671814,467
908.787842,484
908.90387,471
909.019775,464
909.135864,476
909.251892,469
909.367859,472
909.483826,468
909.599854,473
909.715881,476
909.831848,496
909.947815,470
910.063782,467
910.179749,463
910.295776,477
910.411743,470
910.527649,468
910.643616,459
910.759583,480
910.875488,468
910.991455,480
911.107361,448
911.223267,482
911.339294,470
911.4552,481
911.571106,476
911.687073,457
911.802979,465
911.918823,473
912.034729,467
912.150635,473
912.266602,467
912.382446,462
912.498352,477
912.614197,463
912.730103,463
912.846008,460
