792.44574,614
792.56488,622
792.68396,709
792.80304,656
792.92218,600
793.041199,598
793.160339,588
793.279419,623
793.398499,617
793.517578,592
793.636658,624
793.755737,616
793.874817,613
793.993896,632
794.112976,611
794.232056,586
794.351074,575
794.470215,612
794.589233,600
794.708313,613
794.827393,588
794.946411,595
795.065552,600
795.18457,584
795.303589,608
795.422668,584
795.541687,564
795.660767,592
795.779846,578
795.898865,581
796.017883,572
796.136963,574
796.255981,579
796.375061,605
796.49408,596
796.613037,575
796.732117,582
796.851135,553
796.970154,579
797.089233,585
797.208191,565
797.327271,577
797.446228,587
797.565186,576
797.684265,575
797.803223,590
797.922241,552
798.04126,568
798.160278,577
798.279297,570
798.398315,576
798.517273,567
798.636292,586
798.75531,561
798.874268,567
798.993286,566
799.112244,559
799.231323,570
799.350281,584
799.469238,583
799.588257,569
799.707153,581
799.826111,574
799.945129,569
800.064087,598
800.183044,554
800.302063,577
800.421021,582
800.539978,584
800.658936,556
800.777893,571
800.896912,571
801.015747,582
801.134705,574
801.253723,558
801.37262,602
801.491638,584
801.610535,584
801.729492,608
801.84845,553
801.967407,602
802.086243,572
802.205261,583
802.324158,583
802.443115,582
802.562073,592
802.680969,585
802.799927,592
802.918762,569
803.037659,605
803.156677,598
803.275574,585
803.39447,603
803.513428,606
803.632263,595
803.751221,561
803.870117,602
803.989014,596
804.107971,591
804.226746,619
804.345642,604
804.4646,614
804.583496,604
804.702393,555
804.821228,612
804.940125,590
805.059021,615
805.177917,612
805.296814,586
805.415649,600
805.534546,610
805.653442,617
805.772278,617
805.891113,617
806.01001,612
806.128906,615
806.247742,616
806.366577,614
806.485413,627
806.604309,603
806.723145,600
806.84198,615
806.960876,614
807.079712,603
807.198486,610
807.317383,611
807.436218,600
807.554993,604
807.673889,633
807.792725,606
807.91156,604
808.030396,636
808.14917,591
808.268005,631
808.386841,610
808.505676,625
808.624451,612
808.743286,630
808.862122,617
808.980896,629
809.099731,608
809.218506,620
809.337341,603
809.456116,626
809.57489,643
809.693726,630
809.8125,604
809.931274,605
810.050049,630
810.168884,628
810.287659,616
810.406372,630
810.525269,623
810.643982,641
810.762756,628
810.881531,622
811.000305,589
811.11908,650
811.237854,608
811.356567,626
811.475403,629
811.594116,613
811.71283,632
811.831604,617
811.950378,609
812.069153,636
812.187927,618
812.30658,656
812.425415,637
812.544128,621
812.662781,659
812.781616,623
812.900269,636
813.019043,617
813.137756,615
813.256531,646
813.375244,617
813.493896,626
813.612671,617
813.731384,620
813.850037,617
813.96875,643
814.087524,631
814.206238,619
814.324951,624
814.443604,658
814.562256,630
814.68103,652
814.799683,607
814.918335,618
815.037109,628
815.155762,619
815.274475,615
815.393188,609
815.511841,606
815.630554,640
815.749146,600
815.867859,606
815.986572,612
816.105164,617
816.223877,602
816.342529,611
816.461182,626
816.579895,602
816.698486,614
816.817139,630
816.935791,600
817.054504,620
817.173096,617
817.291748,619
817.4104,603
817.529053,603
817.647644,629
817.766235,592
817.884949,571
818.00354,589
818.122192,559
818.240845,581
818.359436,545
818.478088,545
818.59668,550
818.715271,517
818.833923,526
818.952515,542
819.071106,518
819.189758,518
819.30835,523
819.426941,515
819.545532,501
819.664124,498
819.782715,488
819.901306,492
820.019897,507
820.138489,503
820.25708,502
820.375671,512
820.494202,502
820.612732,509
820.731384,506
820.849915,499
820.968506,476
821.087097,488
821.205627,504
821.324158,474
821.442749,500
821.561279,490
821.679871,482
821.798401,504
821.916931,473
822.035461,501
822.154053,467
822.272583,499
822.391174,482
822.509583,475
822.628174,477
822.746704,490
822.865234,477
822.983765,481
823.102295,484
823.220825,468
823.339294,483
823.457825,470
823.576355,489
823.694824,478
823.813354,480
823.931885,476
824.050354,503
824.168884,492
824.287354,490
824.405823,466
824.524353,470
824.642822,474
824.761353,454
824.879822,478
824.998291,491
825.116699,496
825.235291,492
825.353699,481
825.472168,478
825.590637,483
825.709106,481
825.827576,482
825.946045,465
826.064453,464
826.182983,459
826.301392,482
826.4198,477
826.53833,456
826.656738,472
826.775208,462
826.893677,454
827.012024,461
827.130493,480
827.248962,477
827.36731,470
827.485779,469
827.604248,454
827.722595,467
827.841064,450
827.959412,445
828.077942,444
828.196289,459
828.314636,474
828.433105,453
828.551514,478
828.669861,440
828.78833,464
828.906677,457
829.025085,448
829.143433,463
829.261841,463
829.38031,475
829.498657,451
829.617004,477
829.735413,452
829.85376,443
829.972107,455
830.090515,468
830.208862,462
830.327209,473
830.445557,456
830.563904,445
830.682312,457
830.800659,447
830.919006,465
831.037354,448
831.155701,447
831.274048,459
831.392395,466
831.51062,460
831.629028,463
831.747314,438
831.865662,434
831.984009,463
832.102356,443
832.220642,450
832.338928,454
832.457275,469
832.575623,441
832.693909,460
832.812134,462
832.930481,476
833.048828,467
833.167114,453
833.2854,457
833.403687,468
833.521973,434
833.640259,470
833.758545,459
833.876831,449
833.995056,448
834.113281,446
834.231628,481
834.349915,453
834.468201,438
834.586426,455
834.704651,459
834.822998,450
834.941162,464
835.059448,457
835.177673,463
835.295959,454
835.414246,448
835.53241,461
835.650635,451
835.768921,455
835.887146,443
836.005371,454
836.123596,446
836.241821,459
836.360046,453
836.478271,467
836.596497,466
836.714722,466
836.832886,469
836.95105,463
837.069336,484
837.1875,455
837.305725,478
837.423889,499
837.542053,482
837.660339,472
837.778503,477
837.896667,449
838.014832,482
838.132996,463
838.25116,471
838.369385,460
838.487488,476
838.605713,480
838.723877,465
838.84198,479
838.960205,460
839.078308,475
839.196472,485
839.314636,481
839.4328,463
839.550964,482
839.669067,457
839.787231,466
839.905396,448
840.023499,475
840.141602,469
840.259766,450
840.377869,467
840.495972,462
840.614136,463
840.732239,460
840.850342,446
840.968445,464
841.086548,466
841.204651,462
841.322754,480
841.440918,471
841.55896,465
841.677002,466
841.795166,462
841.913208,450
842.031311,455
842.149353,454
842.267456,460
842.385498,449
842.503601,456
842.621643,450
842.739746,470
842.857788,439
842.97583,458
843.093933,450
843.211975,441
843.330017,458
843.44812,441
843.566101,433
843.684204,456
843.802246,457
843.920227,452
844.038269,464
844.156311,455
844.274292,462
844.392395,460
844.510376,475
844.628357,440
844.74646,438
844.864441,472
844.982422,444
845.100403,445
845.218384,455
845.336426,441
845.454468,460
845.572449,438
845.69043,447
845.808411,455
845.926453,434
846.044373,443
846.162354,463
846.280396,447
846.398315,443
846.516296,446
846.634216,462
846.752197,433
846.870178,447
846.988098,431
847.106079,446
847.22406,434
847.34198,430
847.4599,454
847.577881,448
847.695801,456
847.813782,456
847.931641,444
848.049561,442
848.167603,441
848.285461,437
848.403381,439
848.521362,450
848.639221,459
848.75708,448
848.875,440
848.99292,441
849.110901,438
849.22876,452
849.34668,442
849.464539,442
849.582458,438
849.700317,449
849.818176,439
849.936096,460
850.053955,443
850.171875,432
850.289673,461
850.407593,452
850.525452,440
850.643311,445
850.761169,441
850.878967,439
850.996887,452
851.114746,465
851.232544,421
851.350403,451
851.468262,454
851.58606,451
851.703979,441
851.821777,435
851.939636,464
852.057434,424
852.175232,449
852.293091,443
852.410889,458
852.528687,442
852.646545,434
852.764343,452
852.88208,454
852.999939,449
853.117676,462
853.235535,434
853.353271,450
853.471069,448
853.588928,447
853.706604,453
853.824402,442
853.9422,427
854.059998,453
854.177734,438
854.295532,439
854.413269,441
854.531006,434
854.648804,452
854.766541,436
854.884277,451
855.002014,446
855.119751,458
855.237549,456
855.355225,452
855.473022,451
855.590698,471
855.708435,445
855.826172,429
855.943848,457
856.061646,452
856.179321,447
856.296997,464
856.414795,454
856.53241,454
856.650085,456
856.767822,446
856.885559,455
857.003174,445
857.120911,446
857.238586,452
857.356201,447
857.473938,472
857.591614,454
857.709351,444
857.826965,453
857.944641,485
858.062317,468
858.179993,459
858.297668,459
858.415283,447
858.532959,470
858.650574,449
858.768188,467
858.885803,446
859.003479,436
859.121094,438
859.23877,455
859.356384,450
859.473999,439
859.591675,436
859.709229,457
859.826843,452
859.944458,440
860.062012,462
860.179626,456
860.297302,460
860.414856,451
860.532471,452
860.650024,458
860.767639,463
860.885193,452
861.002808,434
861.120361,457
861.237976,444
861.35553,460
861.473022,442
861.590698,440
861.708191,435
861.825745,453
861.943298,445
862.060852,441
862.178406,458
862.295959,437
862.413513,446
862.531006,451
862.64856,456
862.766113,449
862.883667,453
863.00116,446
863.118713,426
863.236206,452
863.353699,467
863.471252,452
863.588745,460
863.706177,441
863.82373,451
863.941162,425
864.058716,455
864.176208,448
864.29364,465
864.411194,447
864.528687,456
864.646118,435
864.763611,450
864.881042,433
864.998535,446
865.116028,444
865.233459,443
865.350891,448
865.468384,457
865.585754,439
865.703308,457
865.820679,451
865.938171,455
866.055542,438
866.173035,454
866.290466,449
866.407837,448
866.52533,446
866.6427,445
866.760071,463
866.877563,450
866.994934,457
867.112305,438
867.229736,459
867.347107,458
867.464539,468
867.58197,436
867.699341,428
867.81665,451
867.934082,483
868.051453,451
868.168823,463
868.286194,456
868.403564,463
868.520935,434
868.638306,445
868.755676,453
868.872986,436
868.990295,432
869.107727,453
869.225037,434
869.342346,444
869.459717,457
869.577026,447
869.694336,463
869.811707,443
869.929016,447
870.046326,440
870.163635,432
870.280945,444
870.398254,458
870.515564,440
870.632812,448
870.750183,460
870.867432,451
870.984741,465
871.102051,454
871.219299,434
871.336609,433
871.453918,441
871.571106,460
871.688416,441
871.805664,458
871.922852,442
872.040222,448
872.157471,451
872.274719,453
872.391968,441
872.509155,456
872.626465,437
872.743652,454
872.860962,436
872.978149,457
873.095337,447
873.212646,441
873.329834,458
873.44696,443
873.564209,445
873.681396,449
873.798645,422
873.915894,445
874.03302,442
874.150208,451
874.267456,463
874.384583,463
874.501831,439
874.618958,448
874.736145,448
874.853333,447
874.970459,454
875.087646,450
875.204834,463
875.32196,462
875.439148,439
875.556274,455
875.673401,452
875.790527,459
875.907715,452
876.024841,462
876.141968,447
876.259094,467
876.376282,449
876.493347,464
876.610474,448
876.7276,447
876.844727,448
876.961853,456
877.078918,451
877.195984,467
877.313171,452
877.430237,435
877.547302,462
877.664368,424
877.781433,425
877.898499,447
878.015625,463
878.13269,447
878.249695,437
878.366821,460
878.483887,456
878.600952,427
878.717957,437
878.834961,439
878.952087,458
879.069092,458
879.186157,442
879.303162,456
879.420227,446
879.537231,455
879.654236,446
879.77124,456
879.888306,444
880.005249,455
880.122314,430
880.239319,434
880.356323,453
880.473328,436
880.590271,447
880.707275,459
880.824341,443
880.941284,466
881.058228,450
881.175232,450
881.292236,471
881.40918,468
881.526123,450
881.643066,441
881.760071,470
881.877014,446
881.993958,447
882.11084,453
882.227783,443
882.344727,448
882.46167,441
882.578613,457
882.695618,445
882.812439,428
882.929382,455
883.046326,460
883.163208,450
883.280151,449
883.397034,445
883.513916,470
883.630798,442
883.747742,444
883.864563,455
883.981506,464
884.098389,452
884.21521,462
884.332153,466
884.448975,456
884.565796,442
884.682678,439
884.7995,440
884.916443,449
885.033264,441
885.150085,460
885.266968,457
885.383789,447
885.500671,449
885.617493,438
885.734314,469
885.851196,458
885.967896,455
886.084717,463
886.201599,447
886.318359,453
886.435181,460
886.552002,451
886.668762,469
886.785645,434
886.902344,455
887.019165,445
887.135925,446
887.252747,462
887.369446,478
887.486267,446
887.603027,453
887.719788,453
887.836548,446
887.953247,454
888.070068,466
888.186829,453
888.303528,443
888.420288,458
888.536987,449
888.653687,462
888.770447,448
888.887146,469
889.003967,459
889.120667,465
889.237305,448
889.354065,461
889.470703,448
889.587463,439
889.704163,475
889.820862,447
889.937561,458
890.054199,473
890.170837,467
890.287598,459
890.404236,447
890.520874,446
890.637634,443
890.754211,464
890.87085,463
890.987549,457
891.104187,458
891.220886,468
891.337463,456
891.454102,432
891.57074,465
891.687378,438
891.804077,443
891.920654,488
892.037231,463
892.15387,454
892.270447,464
892.387085,482
892.503723,453
892.6203,455
892.736877,446
892.853516,452
892.970032,456
893.08667,460
893.203186,459
893.319763,443
893.43634,457
893.552917,470
893.669556,440
893.786011,472
893.902588,450
894.019165,462
894.135681,456
894.252197,470
894.368835,475
894.485291,478
894.601868,451
894.718384,481
894.8349,465
894.951355,470
895.067932,460
895.184448,465
895.300964,454
895.417419,463
895.533936,463
895.650452,451
895.766907,460
895.883423,464
895.999878,458
896.116333,450
896.232849,448
896.349304,461
896.465759,442
896.582214,461
896.698669,460
896.815125,486
896.931641,447
897.048035,470
897.164551,451
897.280884,458
897.397339,456
897.513794,452
897.630249,451
897.746582,472
897.863098,466
897.979431,452
898.095886,467
898.212341,468
898.328674,454
898.445129,471
898.561462,482
898.677795,457
898.794312,456
898.910645,458
899.026978,460
899.143433,456
899.259766,452
899.37616,473
899.492493,458
899.608765,479
899.725159,479
899.841553,480
899.957947,466
900.07428,475
900.190552,471
900.306946,458
900.423157,441
900.53949,462
900.655884,460
900.772156,457
900.888489,452
901.004822,469
901.121033,451
901.237366,438
901.353699,451
901.46991,455
901.586304,459
901.702515,466
901.818787,448
901.93512,451
902.051331,457
902.167603,458
902.283875,467
902.400085,454
902.516418,456
902.632629,490
902.74884,466
902.865112,468
902.981384,475
903.097595,465
903.213867,447
903.330017,457
903.446289,482
903.5625,459
903.67865,472
903.794922,462
903.911072,461
904.027344,466
904.143494,441
904.259705,471
904.375916,480
904.492065,448
904.608215,459
904.724426,480
904.840576,462
904.956726,449
905.072876,485
905.189087,469
905.305176,465
905.421387,460
905.537537,460
905.653687,459
905.769775,473
905.885925,466
906.002014,470
906.118164,458
906.234314,463
906.350403,463
906.466492,486
906.582642,450
906.69873,454
906.814758,461
906.930908,473
907.046936,467
907.163086,472
907.279175,472
907.395264,464
907.511353,469
907.62738,462
907.743408,455
907.859497,480
907.975525,455
908.091553,472
908.207703,461
908.32373,461
908.439758,442
908.555786,467
908.671814,468
908.787842,476
908.90387,475
909.019775,460
909.135864,465
909.251892,463
909.367859,451
909.483826,480
909.599854,462
909.715881,470
909.831848,475
909.947815,465
910.063782,471
910.179749,454
910.295776,458
910.411743,468
910.527649,467
910.643616,459
910.759583,479
910.875488,483
910.991455,457
911.107361,456
911.223267,475
911.339294,476
911.4552,458
911.571106,463
911.687073,452
911.802979,466
911.918823,480
912.034729,458
912.150635,475
912.266602,461
912.382446,463
912.498352,458
912.614197,460
912.730103,468
912.846008,432
792.44574,625
792.56488,652
792.68396,663
792.80304,651
792.92218,622
793.041199,594
793.160339,604
793.279419,615
793.398499,603
793.517578,586
793.636658,591
793.755737,616
793.874817,624
793.993896,603
794.112976,627
794.232056,614
794.351074,604
794.470215,574
794.589233,587
794.708313,603
794.827393,592
794.946411,588
795.065552,596
795.18457,602
795.303589,592
795.422668,583
795.541687,594
795.660767,592
795.779846,584
795.898865,575
796.017883,594
796.136963,584
796.255981,587
796.375061,596
796.49408,594
796.613037,601
796.732117,579
796.851135,567
796.970154,577
797.089233,564
797.208191,576
797.327271,574
797.446228,592
797.565186,598
797.684265,576
797.803223,574
797.922241,603
798.04126,589
798.160278,569
798.279297,558
798.398315,599
798.517273,585
798.636292,568
798.75531,577
798.874268,564
798.993286,565
799.112244,577
799.231323,555
799.350281,583
799.469238,560
799.588257,587
799.707153,567
799.826111,576
799.945129,583
800.064087,566
800.183044,589
800.302063,605
800.421021,574
800.539978,591
800.658936,552
800.777893,575
800.896912,579
801.015747,569
801.134705,608
801.253723,597
801.37262,601
801.491638,614
801.610535,565
801.729492,588
801.84845,572
801.967407,581
802.086243,601
802.205261,578
802.324158,584
802.443115,580
802.562073,578
802.680969,573
802.799927,596
802.918762,582
803.037659,582
803.156677,577
803.275574,603
803.39447,584
803.513428,599
803.632263,585
803.751221,564
803.870117,601
803.989014,569
804.107971,619
804.226746,595
804.345642,626
804.4646,608
804.583496,590
804.702393,602
804.821228,620
804.940125,639
805.059021,616
805.177917,597
805.296814,618
805.415649,597
805.534546,611
805.653442,600
805.772278,634
805.891113,599
806.01001,631
806.128906,602
806.247742,606
806.366577,612
806.485413,617
806.604309,616
806.723145,642
806.84198,607
806.960876,643
807.079712,623
807.198486,609
807.317383,607
807.436218,630
807.554993,616
807.673889,639
807.792725,616
807.91156,620
808.030396,611
808.14917,624
808.268005,629
808.386841,614
808.505676,603
808.624451,598
808.743286,624
808.862122,616
808.980896,639
809.099731,613
809.218506,632
809.337341,624
809.456116,611
809.57489,627
809.693726,623
809.8125,617
809.931274,642
810.050049,625
810.168884,635
810.287659,640
810.406372,639
810.525269,638
810.643982,649
810.762756,637
810.881531,629
811.000305,615
811.11908,615
811.237854,622
811.356567,592
811.475403,650
811.594116,613
811.71283,637
811.831604,628
811.950378,655
812.069153,625
812.187927,637
812.30658,628
812.425415,634
812.544128,607
812.662781,643
812.781616,630
812.900269,636
813.019043,651
813.137756,627
813.256531,632
813.375244,632
813.493896,638
813.612671,658
813.731384,619
813.850037,637
813.96875,630
814.087524,641
814.206238,620
814.324951,616
814.443604,632
814.562256,659
814.68103,610
814.799683,607
814.918335,621
815.037109,620
815.155762,632
815.274475,653
815.393188,601
815.511841,636
815.630554,616
815.749146,605
815.867859,623
815.986572,626
816.105164,586
816.223877,585
816.342529,609
816.461182,627
816.579895,594
816.698486,642
816.817139,614
816.935791,631
817.054504,624
817.173096,614
817.291748,621
817.4104,610
817.529053,593
817.647644,595
817.766235,577
817.884949,580
818.00354,576
818.122192,562
818.240845,561
818.359436,560
818.478088,531
818.59668,548
818.715271,531
818.833923,534
818.952515,520
819.071106,538
819.189758,525
819.30835,533
819.426941,497
819.545532,525
819.664124,518
819.782715,510
819.901306,511
820.019897,491
820.138489,514
820.25708,500
820.375671,509
820.494202,506
820.612732,490
820.731384,481
820.849915,518
820.968506,514
821.087097,497
821.205627,486
821.324158,496
821.442749,504
821.561279,468
821.679871,497
821.798401,472
821.916931,505
822.035461,479
822.154053,496
822.272583,475
822.391174,471
822.509583,507
822.628174,475
822.746704,500
822.865234,478
822.983765,473
823.102295,488
823.220825,473
823.339294,496
823.457825,480
823.576355,472
823.694824,477
823.813354,505
823.931885,477
824.050354,493
824.168884,491
824.287354,480
824.405823,485
824.524353,521
824.642822,492
824.761353,491
824.879822,480
824.998291,474
825.116699,473
825.235291,483
825.353699,472
825.472168,482
825.590637,468
825.709106,481
825.827576,477
825.946045,472
826.064453,473
826.182983,472
826.301392,475
826.4198,483
826.53833,447
826.656738,488
826.775208,469
826.893677,482
827.012024,448
827.130493,473
827.248962,471
827.36731,481
827.485779,451
827.604248,482
827.722595,452
827.841064,483
827.959412,474
828.077942,485
828.196289,463
828.314636,465
828.433105,455
828.551514,448
828.669861,467
828.78833,453
828.906677,457
829.025085,457
829.143433,454
829.261841,459
829.38031,462
829.498657,463
829.617004,465
829.735413,475
829.85376,464
829.972107,470
830.090515,461
830.208862,483
830.327209,455
830.445557,473
830.563904,451
830.682312,449
830.800659,448
830.919006,449
831.037354,449
831.155701,462
831.274048,453
831.392395,458
831.51062,469
831.629028,465
831.747314,459
831.865662,440
831.984009,464
832.102356,454
832.220642,455
832.338928,463
832.457275,442
832.575623,466
832.693909,478
832.812134,456
832.930481,466
833.048828,467
833.167114,462
833.2854,451
833.403687,459
833.521973,465
833.640259,474
833.758545,464
833.876831,440
833.995056,473
834.113281,442
834.231628,460
834.349915,469
834.468201,490
834.586426,457
834.704651,465
834.822998,462
834.941162,452
835.059448,453
835.177673,445
835.295959,446
835.414246,473
835.53241,458
835.650635,477
835.768921,480
835.887146,490
836.005371,429
836.123596,461
836.241821,444
836.360046,462
836.478271,470
836.596497,475
836.714722,454
836.832886,466
836.95105,449
837.069336,472
837.1875,493
837.305725,467
837.423889,486
837.542053,484
837.660339,476
837.778503,468
837.896667,497
838.014832,475
838.132996,480
838.25116,478
838.369385,473
838.487488,483
838.605713,475
838.723877,469
838.84198,469
838.960205,458
839.078308,481
839.196472,469
839.314636,472
839.4328,477
839.550964,470
839.669067,487
839.787231,472
839.905396,474
840.023499,474
840.141602,450
840.259766,489
840.377869,458
840.495972,482
840.614136,464
840.732239,452
840.850342,480
840.968445,483
841.086548,478
841.204651,487
841.322754,462
841.440918,451
841.55896,464
841.677002,458
841.795166,455
841.913208,459
842.031311,469
842.149353,452
842.267456,452
842.385498,447
842.503601,467
842.621643,467
842.739746,447
842.857788,459
842.97583,471
843.093933,469
843.211975,427
843.330017,441
843.44812,447
843.566101,426
843.684204,462
843.802246,439
843.920227,452
844.038269,456
844.156311,462
844.274292,452
844.392395,450
844.510376,458
844.628357,459
844.74646,456
844.864441,454
844.982422,435
845.100403,479
845.218384,447
845.336426,452
845.454468,459
845.572449,445
845.69043,426
845.808411,441
845.926453,464
846.044373,441
846.162354,478
846.280396,455
846.398315,452
846.516296,457
846.634216,461
846.752197,450
846.870178,453
846.988098,453
847.106079,444
847.22406,437
847.34198,463
847.4599,443
847.577881,449
847.695801,463
847.813782,437
847.931641,441
848.049561,450
848.167603,474
848.285461,444
848.403381,439
848.521362,445
848.639221,458
848.75708,449
848.875,459
848.99292,423
849.110901,435
849.22876,440
849.34668,453
849.464539,447
849.582458,455
849.700317,458
849.818176,440
849.936096,448
850.053955,460
850.171875,430
850.289673,434
850.407593,442
850.525452,444
850.643311,452
850.761169,454
850.878967,461
850.996887,454
851.114746,445
851.232544,449
851.350403,456
851.468262,449
851.58606,446
851.703979,438
851.821777,451
851.939636,456
852.057434,439
852.175232,463
852.293091,448
852.410889,456
852.528687,451
852.646545,459
852.764343,442
852.88208,456
852.999939,439
853.117676,448
853.235535,447
853.353271,447
853.471069,444
853.588928,447
853.706604,454
853.824402,460
853.9422,453
854.059998,455
854.177734,445
854.295532,462
854.413269,453
854.531006,451
854.648804,451
854.766541,469
854.884277,456
855.002014,436
855.119751,464
855.237549,477
855.355225,451
855.473022,467
855.590698,470
855.708435,465
855.826172,442
855.943848,459
856.061646,450
856.179321,460
856.296997,455
856.414795,460
856.53241,447
856.650085,459
856.767822,481
856.885559,450
857.003174,461
857.120911,451
857.238586,447
857.356201,462
857.473938,426
857.591614,453
857.709351,452
857.826965,454
857.944641,470
858.062317,448
858.179993,467
858.297668,443
858.415283,443
858.532959,488
858.650574,442
858.768188,474
858.885803,468
859.003479,454
859.121094,466
859.23877,445
859.356384,437
859.473999,460
859.591675,443
859.709229,451
859.826843,449
859.944458,448
860.062012,441
860.179626,444
860.297302,452
860.414856,445
860.532471,468
860.650024,450
860.767639,440
860.885193,453
861.002808,444
861.120361,453
861.237976,463
861.35553,465
861.473022,434
861.590698,447
861.708191,459
861.825745,444
861.943298,449
862.060852,455
862.178406,446
862.295959,454
862.413513,450
862.531006,457
862.64856,459
862.766113,447
862.883667,446
863.00116,455
863.118713,443
863.236206,444
863.353699,457
863.471252,465
863.588745,454
863.706177,437
863.82373,446
863.941162,468
864.058716,448
864.176208,450
864.29364,453
864.411194,463
864.528687,457
864.646118,457
864.763611,474
864.881042,450
864.998535,437
865.116028,458
865.233459,444
865.350891,458
865.468384,447
865.585754,463
865.703308,438
865.820679,448
865.938171,472
866.055542,462
866.173035,444
866.290466,444
866.407837,461
866.52533,460
866.6427,445
866.760071,460
866.877563,447
866.994934,474
867.112305,463
867.229736,442
867.347107,470
867.464539,455
867.58197,457
867.699341,447
867.81665,456
867.934082,451
868.051453,468
868.168823,454
868.286194,456
868.403564,433
868.520935,429
868.638306,466
868.755676,467
868.872986,453
868.990295,437
869.107727,472
869.225037,453
869.342346,471
869.459717,430
869.577026,455
869.694336,450
869.811707,472
869.929016,450
870.046326,464
870.163635,444
870.280945,462
870.398254,459
870.515564,455
870.632812,451
870.750183,454
870.867432,455
870.984741,445
871.102051,450
871.219299,436
871.336609,462
871.453918,465
871.571106,437
871.688416,443
871.805664,467
871.922852,422
872.040222,431
872.157471,449
872.274719,460
872.391968,451
872.509155,452
872.626465,454
872.743652,443
872.860962,451
872.978149,464
873.095337,441
873.212646,448
873.329834,450
873.44696,457
873.564209,452
873.681396,459
873.798645,443
873.915894,459
874.03302,447
874.150208,431
874.267456,450
874.384583,448
874.501831,465
874.618958,451
874.736145,448
874.853333,451
874.970459,438
875.087646,442
875.204834,460
875.32196,445
875.439148,454
875.556274,442
875.673401,460
875.790527,430
875.907715,457
876.024841,423
876.141968,452
876.259094,464
876.376282,446
876.493347,462
876.610474,467
876.7276,455
876.844727,445
876.961853,438
877.078918,457
877.195984,452
877.313171,469
877.430237,465
877.547302,476
877.664368,448
877.781433,456
877.898499,449
878.015625,446
878.13269,438
878.249695,474
878.366821,455
878.483887,443
878.600952,460
878.717957,448
878.834961,462
878.952087,457
879.069092,449
879.186157,446
879.303162,452
879.420227,467
879.537231,443
879.654236,465
879.77124,448
879.888306,458
880.005249,463
880.122314,462
880.239319,468
880.356323,458
880.473328,449
880.590271,455
880.707275,443
880.824341,456
880.941284,450
881.058228,467
881.175232,446
881.292236,453
881.40918,443
881.526123,435
881.643066,452
881.760071,461
881.877014,432
881.993958,467
882.11084,466
882.227783,454
882.344727,443
882.46167,474
882.578613,453
882.695618,462
882.812439,443
882.929382,425
883.046326,467
883.163208,459
883.280151,463
883.397034,445
883.513916,460
883.630798,443
883.747742,436
883.864563,453
883.981506,447
884.098389,454
884.21521,425
884.332153,463
884.448975,468
884.565796,461
884.682678,450
884.7995,469
884.916443,465
885.033264,448
885.150085,452
885.266968,475
885.383789,453
885.500671,443
885.617493,447
885.734314,465
885.851196,452
885.967896,449
886.084717,472
886.201599,460
886.318359,445
886.435181,473
886.552002,428
886.668762,448
886.785645,452
886.902344,485
887.019165,461
887.135925,461
887.252747,452
887.369446,460
887.486267,466
887.603027,443
887.719788,444
887.836548,466
887.953247,461
888.070068,472
888.186829,459
888.303528,479
888.420288,451
888.536987,443
888.653687,463
888.770447,463
888.887146,450
889.003967,465
889.120667,449
889.237305,446
889.354065,465
889.470703,472
889.587463,458
889.704163,460
889.820862,455
889.937561,471
890.054199,458
890.170837,465
890.287598,445
890.404236,486
890.520874,480
890.637634,461
890.754211,446
890.87085,460
890.987549,434
891.104187,480
891.220886,462
891.337463,464
891.454102,451
891.57074,481
891.687378,458
891.804077,469
891.920654,460
892.037231,468
892.15387,446
892.270447,471
892.387085,441
892.503723,464
892.6203,474
892.736877,447
892.853516,453
892.970032,446
893.08667,437
893.203186,432
893.319763,456
893.43634,448
893.552917,451
893.669556,466
893.786011,457
893.902588,474
894.019165,458
894.135681,453
894.252197,465
894.368835,467
894.485291,478
894.601868,467
894.718384,456
894.8349,465
894.951355,463
895.067932,482
895.184448,448
895.300964,470
895.417419,450
895.533936,459
895.650452,478
895.766907,470
895.883423,460
895.999878,471
896.116333,473
896.232849,453
896.349304,458
896.465759,470
896.582214,463
896.698669,453
896.815125,450
896.931641,469
897.048035,460
897.164551,497
897.280884,466
897.397339,459
897.513794,459
897.630249,476
897.746582,454
897.863098,476
897.979431,455
898.095886,486
898.212341,459
898.328674,479
898.445129,458
898.561462,471
898.677795,479
898.794312,461
898.910645,453
899.026978,474
899.143433,476
899.259766,460
899.37616,465
899.492493,471
899.608765,458
899.725159,464
899.841553,476
899.957947,450
900.07428,458
900.190552,465
900.306946,484
900.423157,429
900.53949,465
900.655884,476
900.772156,478
900.888489,455
901.004822,460
901.121033,474
901.237366,462
901.353699,469
901.46991,473
901.586304,476
901.702515,453
901.818787,455
901.93512,467
902.051331,474
902.167603,468
902.283875,467
902.400085,462
902.516418,488
902.632629,467
902.74884,476
902.865112,470
902.981384,466
903.097595,457
903.213867,478
903.330017,453
903.446289,468
903.5625,455
903.67865,462
903.794922,461
903.911072,470
904.027344,470
904.143494,482
904.259705,464
904.375916,483
904.492065,458
904.608215,489
904.724426,486
904.840576,481
904.956726,473
905.072876,459
905.189087,467
905.305176,456
905.421387,456
905.537537,458
905.653687,476
905.769775,472
905.885925,459
906.002014,464
906.118164,477
906.234314,457
906.350403,466
906.466492,468
906.582642,478
906.69873,457
906.814758,456
906.930908,485
907.046936,454
907.163086,497
907.279175,462
907.395264,455
907.511353,464
907.62738,477
907.743408,481
907.859497,482
907.975525,490
908.091553,476
908.207703,454
908.32373,485
908.439758,447
908.555786,476
908.671814,458
908.787842,470
908.90387,478
909.019775,454
909.135864,459
909.251892,492
909.367859,478
909.483826,452
909.599854,491
909.715881,481
909.831848,469
909.947815,467
910.063782,454
910.179749,472
910.295776,478
910.411743,460
910.527649,486
910.643616,458
910.759583,465
910.875488,462
910.991455,486
911.107361,470
911.223267,462
911.339294,455
911.4552,476
911.571106,495
911.687073,471
911.802979,470
911.918823,480
912.034729,468
912.150635,457
912.266602,468
912.382446,450
912.498352,464
912.614197,482
912.730103,465
912.846008,461
792.44574,630
792.56488,659
792.68396,676
792.80304,695
792.92218,601
793.041199,615
793.160339,603
793.279419,630
793.398499,615
793.517578,625
793.636658,597
793.755737,633
793.874817,634
793.993896,608
794.112976,609
794.232056,611
794.351074,614
794.470215,609
794.589233,594
794.708313,580
794.827393,618
794.946411,607
795.065552,600
795.18457,602
795.303589,587
795.422668,577
795.541687,591
795.660767,591
795.779846,603
795.898865,576
796.017883,585
796.136963,573
796.255981,578
796.375061,598
796.49408,586
796.613037,591
796.732117,584
796.851135,586
796.970154,580
797.089233,589
797.208191,583
797.327271,565
797.446228,584
797.565186,576
797.684265,582
797.803223,585
797.922241,586
798.04126,589
798.160278,578
798.279297,578
798.398315,584
798.517273,566
798.636292,566
798.75531,587
798.874268,587
798.993286,581
799.112244,590
799.231323,605
799.350281,584
799.469238,585
799.588257,586
799.707153,575
799.826111,583
799.945129,593
800.064087,574
800.183044,578
800.302063,587
800.421021,591
800.539978,583
800.658936,589
800.777893,576
800.896912,563
801.015747,567
801.134705,585
801.253723,584
801.37262,556
801.491638,594
801.610535,603
801.729492,588
801.84845,573
801.967407,565
802.086243,570
802.205261,612
802.324158,569
802.443115,583
802.562073,618
802.680969,600
802.799927,586
802.918762,621
803.037659,591
803.156677,611
803.275574,590
803.39447,591
803.513428,597
803.632263,592
803.751221,595
803.870117,597
803.989014,584
804.107971,598
804.226746,594
804.345642,584
804.4646,633
804.583496,606
804.702393,583
804.821228,617
804.940125,637
805.059021,610
805.177917,603
805.296814,610
805.415649,618
805.534546,613
805.653442,590
805.772278,622
805.891113,608
806.01001,605
806.128906,630
806.247742,619
806.366577,623
806.485413,604
806.604309,618
806.723145,639
806.84198,616
806.960876,627
807.079712,649
807.198486,597
807.317383,614
807.436218,613
807.554993,603
807.673889,613
807.792725,622
807.91156,623
808.030396,606
808.14917,598
808.268005,614
808.386841,654
808.505676,631
808.624451,628
808.743286,621
808.862122,629
808.980896,648
809.099731,625
809.218506,641
809.337341,608
809.456116,621
809.57489,650
809.693726,612
809.8125,627
809.931274,667
810.050049,635
810.168884,630
810.287659,640
810.406372,632
810.525269,619
810.643982,606
810.762756,620
810.881531,634
811.000305,639
811.11908,648
811.237854,628
811.356567,643
811.475403,637
811.594116,650
811.71283,638
811.831604,642
811.950378,633
812.069153,641
812.187927,629
812.30658,643
812.425415,620
812.544128,622
812.662781,639
812.781616,642
812.900269,668
813.019043,641
813.137756,616
813.256531,640
813.375244,640
813.493896,611
813.612671,634
813.731384,610
813.850037,626
813.96875,626
814.087524,632
814.206238,652
814.324951,646
814.443604,625
814.562256,612
814.68103,634
814.799683,609
814.918335,646
815.037109,651
815.155762,622
815.274475,643
815.393188,615
815.511841,610
815.630554,600
815.749146,609
815.867859,615
815.986572,618
816.105164,605
816.223877,628
816.342529,610
816.461182,622
816.579895,618
816.698486,618
816.817139,624
816.935791,642
817.054504,621
817.173096,619
817.291748,621
817.4104,616
817.529053,612
817.647644,597
817.766235,584
817.884949,588
818.00354,594
818.122192,569
818.240845,540
818.359436,580
818.478088,555
818.59668,549
818.715271,529
818.833923,550
818.952515,546
819.071106,521
819.189758,507
819.30835,505
819.426941,527
819.545532,505
819.664124,509
819.782715,524
819.901306,512
820.019897,501
820.138489,485
820.25708,508
820.375671,524
820.494202,502
820.612732,511
820.731384,496
820.849915,499
820.968506,500
821.087097,501
821.205627,496
821.324158,499
821.442749,493
821.561279,483
821.679871,491
821.798401,502
821.916931,481
822.035461,495
822.154053,484
822.272583,481
822.391174,483
822.509583,482
822.628174,480
822.746704,494
822.865234,472
822.983765,486
823.102295,476
823.220825,479
823.339294,482
823.457825,485
823.576355,484
823.694824,483
823.813354,475
823.931885,489
824.050354,498
824.168884,485
824.287354,491
824.405823,492
824.524353,488
824.642822,507
824.761353,491
824.879822,487
824.998291,486
825.116699,493
825.235291,486
825.353699,480
825.472168,471
825.590637,490
825.709106,483
825.827576,465
825.946045,488
826.064453,477
826.182983,470
826.301392,484
826.4198,484
826.53833,482
826.656738,481
826.775208,457
826.893677,480
827.012024,463
827.130493,476
827.248962,477
827.36731,475
827.485779,476
827.604248,480
827.722595,479
827.841064,439
827.959412,465
828.077942,466
828.196289,459
828.314636,453
828.433105,471
828.551514,491
828.669861,480
828.78833,451
828.906677,456
829.025085,463
829.143433,461
829.261841,446
829.38031,476
829.498657,459
829.617004,468
829.735413,472
829.85376,470
829.972107,464
830.090515,473
830.208862,469
830.327209,441
830.445557,454
830.563904,453
830.682312,453
830.800659,456
830.919006,461
831.037354,454
831.155701,442
831.274048,463
831.392395,445
831.51062,455
831.629028,443
831.747314,443
831.865662,465
831.984009,454
832.102356,460
832.220642,470
832.338928,444
832.457275,466
832.575623,465
832.693909,451
832.812134,457
832.930481,461
833.048828,462
833.167114,449
833.2854,470
833.403687,459
833.521973,464
833.640259,465
833.758545,468
833.876831,451
833.995056,465
834.113281,445
834.231628,449
834.349915,468
834.468201,462
834.586426,455
834.704651,478
834.822998,463
834.941162,460
835.059448,471
835.177673,471
835.295959,467
835.414246,469
835.53241,462
835.650635,454
835.768921,470
835.887146,465
836.005371,481
836.123596,476
836.241821,461
836.360046,464
836.478271,461
836.596497,473
836.714722,478
836.832886,462
836.95105,490
837.069336,489
837.1875,467
837.305725,470
837.423889,469
837.542053,489
837.660339,482
837.778503,485
837.896667,448
838.014832,462
838.132996,476
838.25116,486
838.369385,486
838.487488,477
838.605713,466
838.723877,480
838.84198,471
838.960205,478
839.078308,457
839.196472,482
839.314636,450
839.4328,486
839.550964,470
839.669067,467
839.787231,496
839.905396,468
840.023499,441
840.141602,470
840.259766,470
840.377869,473
840.495972,491
840.614136,465
840.732239,472
840.850342,483
840.968445,453
841.086548,494
841.204651,465
841.322754,468
841.440918,454
841.55896,480
841.677002,454
841.795166,481
841.913208,474
842.031311,445
842.149353,457
842.267456,479
842.385498,461
842.503601,456
842.621643,448
842.739746,461
842.857788,452
842.97583,448
843.093933,464
843.211975,456
843.330017,455
843.44812,454
843.566101,450
843.684204,468
843.802246,452
843.920227,445
844.038269,430
844.156311,444
844.274292,443
844.392395,449
844.510376,441
844.628357,446
844.74646,455
844.864441,454
844.982422,431
845.100403,455
845.218384,458
845.336426,450
845.454468,435
845.572449,446
845.69043,457
845.808411,456
845.926453,449
846.044373,457
846.162354,458
846.280396,454
846.398315,454
846.516296,449
846.634216,444
846.752197,474
846.870178,464
846.988098,443
847.106079,429
847.22406,460
847.34198,464
847.4599,445
847.577881,443
847.695801,441
847.813782,444
847.931641,435
848.049561,466
848.167603,457
848.285461,452
848.403381,451
848.521362,437
848.639221,445
848.75708,473
848.875,469
848.99292,463
849.110901,449
849.22876,442
849.34668,442
849.464539,449
849.582458,468
849.700317,455
849.818176,452
849.936096,457
850.053955,447
850.171875,445
850.289673,440
850.407593,446
850.525452,468
850.643311,452
850.761169,448
850.878967,447
850.996887,446
851.114746,434
851.232544,461
851.350403,441
851.468262,446
851.58606,443
851.703979,456
851.821777,467
851.939636,436
852.057434,449
852.175232,442
852.293091,448
852.410889,449
852.528687,462
852.646545,443
852.764343,458
852.88208,450
852.999939,452
853.117676,450
853.235535,457
853.353271,458
853.471069,454
853.588928,459
853.706604,447
853.824402,460
853.9422,452
854.059998,459
854.177734,449
854.295532,446
854.413269,462
854.531006,459
854.648804,425
854.766541,471
854.884277,445
855.002014,448
855.119751,469
855.237549,456
855.355225,451
855.473022,455
855.590698,454
855.708435,456
855.826172,460
855.943848,460
856.061646,449
856.179321,446
856.296997,447
856.414795,470
856.53241,464
856.650085,452
856.767822,448
856.885559,460
857.003174,451
857.120911,443
857.238586,461
857.356201,471
857.473938,437
857.591614,451
857.709351,469
857.826965,456
857.944641,455
858.062317,458
858.179993,450
858.297668,444
858.415283,466
858.532959,452
858.650574,464
858.768188,458
858.885803,454
859.003479,474
859.121094,444
859.23877,450
859.356384,454
859.473999,475
859.591675,463
859.709229,455
859.826843,461
859.944458,446
860.062012,450
860.179626,460
860.297302,448
860.414856,460
860.532471,441
860.650024,463
860.767639,457
860.885193,449
861.002808,420
861.120361,457
861.237976,464
861.35553,449
861.473022,457
861.590698,445
861.708191,438
861.825745,462
861.943298,469
862.060852,456
862.178406,460
862.295959,459
862.413513,451
862.531006,465
862.64856,447
862.766113,463
862.883667,451
863.00116,451
863.118713,455
863.236206,460
863.353699,461
863.471252,442
863.588745,452
863.706177,446
863.82373,461
863.941162,443
864.058716,467
864.176208,461
864.29364,459
864.411194,464
864.528687,471
864.646118,458
864.763611,452
864.881042,466
864.998535,457
865.116028,434
865.233459,449
865.350891,466
865.468384,433
865.585754,443
865.703308,460
865.820679,461
865.938171,439
866.055542,449
866.173035,473
866.290466,447
866.407837,475
866.52533,441
866.6427,462
866.760071,475
866.877563,438
866.994934,454
867.112305,450
867.229736,445
867.347107,475
867.464539,474
867.58197,452
867.699341,452
867.81665,449
867.934082,467
868.051453,439
868.168823,457
868.286194,459
868.403564,456
868.520935,448
868.638306,469
868.755676,464
868.872986,459
868.990295,444
869.107727,465
869.225037,450
869.342346,446
869.459717,453
869.577026,470
869.694336,454
869.811707,463
869.929016,433
870.046326,444
870.163635,459
870.280945,460
870.398254,451
870.515564,465
870.632812,466
870.750183,470
870.867432,482
870.984741,445
871.102051,455
871.219299,435
871.336609,453
871.453918,459
871.571106,451
871.688416,452
871.805664,451
871.922852,483
872.040222,465
872.157471,465
872.274719,462
872.391968,455
872.509155,459
872.626465,454
872.743652,457
872.860962,456
872.978149,445
873.095337,465
873.212646,446
873.329834,453
873.44696,467
873.564209,446
873.681396,462
873.798645,447
873.915894,448
874.03302,451
874.150208,449
874.267456,454
874.384583,442
874.501831,451
874.618958,453
874.736145,461
874.853333,452
874.970459,470
875.087646,431
875.204834,450
875.32196,446
875.439148,458
875.556274,434
875.673401,477
875.790527,447
875.907715,459
876.024841,447
876.141968,470
876.259094,455
876.376282,462
876.493347,446
876.610474,445
876.7276,450
876.844727,447
876.961853,457
877.078918,452
877.195984,455
877.313171,468
877.430237,447
877.547302,474
877.664368,454
877.781433,460
877.898499,450
878.015625,455
878.13269,461
878.249695,471
878.366821,465
878.483887,445
878.600952,469
878.717957,458
878.834961,442
878.952087,456
879.069092,454
879.186157,449
879.303162,450
879.420227,456
879.537231,444
879.654236,456
879.77124,441
879.888306,478
880.005249,445
880.122314,482
880.239319,445
880.356323,437
880.473328,434
880.590271,446
880.707275,450
880.824341,460
880.941284,449
881.058228,448
881.175232,451
881.292236,463
881.40918,469
881.526123,451
881.643066,452
881.760071,442
881.877014,456
881.993958,437
882.11084,440
882.227783,458
882.344727,446
882.46167,464
882.578613,466
882.695618,453
882.812439,458
882.929382,476
883.046326,463
883.163208,471
883.280151,433
883.397034,474
883.513916,453
883.630798,459
883.747742,444
883.864563,468
883.981506,468
884.098389,430
884.21521,471
884.332153,439
884.448975,453
884.565796,457
884.682678,454
884.7995,462
884.916443,467
885.033264,458
885.150085,471
885.266968,460
885.383789,439
885.500671,446
885.617493,459
885.734314,453
885.851196,451
885.967896,454
886.084717,455
886.201599,466
886.318359,489
886.435181,457
886.552002,442
886.668762,461
886.785645,459
886.902344,472
887.019165,442
887.135925,482
887.252747,476
887.369446,465
887.486267,457
887.603027,451
887.719788,462
887.836548,459
887.953247,451
888.070068,458
888.186829,449
888.303528,484
888.420288,455
888.536987,451
888.653687,455
888.770447,465
888.887146,468
889.003967,451
889.120667,451
889.237305,435
889.354065,452
889.470703,470
889.587463,454
889.704163,454
889.820862,458
889.937561,453
890.054199,459
890.170837,442
890.287598,467
890.404236,451
890.520874,472
890.637634,439
890.754211,480
890.87085,437
890.987549,451
891.104187,461
891.220886,456
891.337463,443
891.454102,457
891.57074,468
891.687378,463
891.804077,454
891.920654,467
892.037231,436
892.15387,480
892.270447,475
892.387085,459
892.503723,458
892.6203,462
892.736877,463
892.853516,445
892.970032,479
893.08667,454
893.203186,455
893.319763,452
893.43634,472
893.552917,442
893.669556,480
893.786011,450
893.902588,473
894.019165,459
894.135681,475
894.252197,461
894.368835,476
894.485291,477
894.601868,464
894.718384,468
894.8349,458
894.951355,471
895.067932,456
895.184448,464
895.300964,473
895.417419,451
895.533936,459
895.650452,452
895.766907,458
895.883423,443
895.999878,465
896.116333,481
896.232849,476
896.349304,446
896.465759,477
896.582214,445
896.698669,468
896.815125,460
896.931641,443
897.048035,453
897.164551,474
897.280884,458
897.397339,474
897.513794,464
897.630249,460
897.746582,463
897.863098,447
897.979431,459
898.095886,474
898.212341,467
898.328674,482
898.445129,484
898.561462,466
898.677795,478
898.794312,451
898.910645,458
899.026978,458
899.143433,461
899.259766,462
899.37616,464
899.492493,464
899.608765,452
899.725159,464
899.841553,451
899.957947,490
900.07428,479
900.190552,452
900.306946,470
900.423157,465
900.53949,470
900.655884,479
900.772156,461
900.888489,463
901.004822,478
901.121033,470
901.237366,473
901.353699,489
901.46991,471
901.586304,480
901.702515,448
901.818787,472
901.93512,480
902.051331,467
902.167603,469
902.283875,461
902.400085,482
902.516418,514
902.632629,463
902.74884,484
902.865112,456
902.981384,465
903.097595,470
903.213867,465
903.330017,465
903.446289,465
903.5625,465
903.67865,458
903.794922,474
903.911072,464
904.027344,479
904.143494,466
904.259705,458
904.375916,488
904.492065,468
904.608215,481
904.724426,472
904.840576,459
904.956726,464
905.072876,463
905.189087,458
905.305176,461
905.421387,471
905.537537,481
905.653687,469
905.769775,474
905.885925,457
906.002014,476
906.118164,489
906.234314,455
906.350403,477
906.466492,487
906.582642,451
906.69873,475
906.814758,491
906.930908,481
907.046936,463
907.163086,483
907.279175,473
907.395264,475
907.511353,468
907.62738,488
907.743408,451
907.859497,488
907.975525,475
908.091553,491
908.207703,455
908.32373,479
908.439758,478
908.555786,470
908.671814,468
908.787842,487
908.90387,450
909.019775,482
909.135864,465
909.251892,464
909.367859,475
909.483826,499
909.599854,453
909.715881,465
909.831848,462
909.947815,469
910.063782,461
910.179749,462
910.295776,452
910.411743,463
910.527649,477
910.643616,481
910.759583,466
910.875488,479
910.991455,465
911.107361,475
911.223267,454
911.339294,500
911.4552,476
911.571106,485
911.687073,449
911.802979,482
911.918823,453
912.034729,482
912.150635,484
912.266602,486
912.382446,469
912.498352,458
912.614197,465
912.730103,478
912.846008,480
