792.44574,664
792.56488,654
792.68396,715
792.80304,691
792.92218,664
793.041199,608
793.160339,598
793.279419,651
793.398499,603
793.517578,603
793.636658,626
793.755737,636
793.874817,629
793.993896,636
794.112976,601
794.232056,616
794.351074,613
794.470215,605
794.589233,587
794.708313,603
794.827393,608
794.946411,596
795.065552,598
795.18457,593
795.303589,598
795.422668,595
795.541687,589
795.660767,595
795.779846,585
795.898865,610
796.017883,572
796.136963,594
796.255981,585
796.375061,611
796.49408,594
796.613037,603
796.732117,603
796.851135,584
796.970154,571
797.089233,600
797.208191,574
797.327271,590
797.446228,578
797.565186,582
797.684265,578
797.803223,585
797.922241,589
798.04126,584
798.160278,576
798.279297,593
798.398315,564
798.517273,569
798.636292,562
798.75531,596
798.874268,594
798.993286,571
799.112244,580
799.231323,583
799.350281,580
799.469238,584
799.588257,590
799.707153,591
799.826111,593
799.945129,582
800.064087,589
800.183044,563
800.302063,583
800.421021,568
800.539978,595
800.658936,585
800.777893,577
800.896912,606
801.015747,579
801.134705,607
801.253723,589
801.37262,587
801.491638,597
801.610535,593
801.729492,592
801.84845,575
801.967407,570
802.086243,610
802.205261,580
802.324158,580
802.443115,590
802.562073,586
802.680969,603
802.799927,594
802.918762,582
803.037659,614
803.156677,590
803.275574,604
803.39447,578
803.513428,590
803.632263,573
803.751221,579
803.870117,600
803.989014,584
804.107971,615
804.226746,591
804.345642,599
804.4646,575
804.583496,594
804.702393,605
804.821228,625
804.940125,592
805.059021,596
805.177917,587
805.296814,612
805.415649,606
805.534546,602
805.653442,607
805.772278,606
805.891113,625
806.01001,630
806.128906,609
806.247742,589
806.366577,613
806.485413,616
806.604309,603
806.723145,608
806.84198,605
806.960876,611
807.079712,619
807.198486,618
807.317383,606
807.436218,620
807.554993,604
807.673889,640
807.792725,637
807.91156,610
808.030396,630
808.14917,605
808.268005,626
808.386841,597
808.505676,615
808.624451,625
808.743286,638
808.862122,618
808.980896,619
809.099731,628
809.218506,621
809.337341,618
809.456116,620
809.57489,633
809.693726,619
809.8125,638
809.931274,630
810.050049,618
810.168884,647
810.287659,631
810.406372,631
810.525269,624
810.643982,586
810.762756,637
810.881531,620
811.000305,626
811.11908,617
811.237854,654
811.356567,630
811.475403,617
811.594116,641
811.71283,604
811.831604,622
811.950378,620
812.069153,653
812.187927,640
812.30658,620
812.425415,638
812.544128,620
812.662781,635
812.781616,625
812.900269,636
813.019043,644
813.137756,632
813.256531,642
813.375244,642
813.493896,649
813.612671,642
813.731384,621
813.850037,622
813.96875,635
814.087524,631
814.206238,626
814.324951,622
814.443604,630
814.562256,607
814.68103,633
814.799683,642
814.918335,611
815.037109,606
815.155762,613
815.274475,642
815.393188,608
815.511841,605
815.630554,622
815.749146,592
815.867859,622
815.986572,594
816.105164,618
816.223877,619
816.342529,597
816.461182,607
816.579895,610
816.698486,614
816.817139,618
816.935791,605
817.054504,616
817.173096,613
817.291748,622
817.4104,599
817.529053,594
817.647644,633
817.766235,578
817.884949,603
818.00354,579
818.122192,562
818.240845,571
818.359436,558
818.478088,531
818.59668,542
818.715271,538
818.833923,524
818.952515,535
819.071106,502
819.189758,528
819.30835,498
819.426941,511
819.545532,517
819.664124,516
819.782715,500
819.901306,484
820.019897,513
820.138489,491
820.25708,519
820.375671,513
820.494202,489
820.612732,510
820.731384,488
820.849915,522
820.968506,501
821.087097,494
821.205627,502
821.324158,509
821.442749,507
821.561279,504
821.679871,490
821.798401,469
821.916931,491
822.035461,486
822.154053,484
822.272583,493
822.391174,493
822.509583,489
822.628174,473
822.746704,485
822.865234,478
822.983765,506
823.102295,478
823.220825,474
823.339294,472
823.457825,517
823.576355,467
823.694824,476
823.813354,484
823.931885,488
824.050354,493
824.168884,512
824.287354,486
824.405823,494
824.524353,496
824.642822,489
824.761353,500
824.879822,502
824.998291,480
825.116699,500
825.235291,491
825.353699,485
825.472168,465
825.590637,481
825.709106,478
825.827576,480
825.946045,485
826.064453,473
826.182983,480
826.301392,477
826.4198,458
826.53833,454
826.656738,463
826.775208,468
826.893677,465
827.012024,450
827.130493,466
827.248962,465
827.36731,459
827.485779,468
827.604248,457
827.722595,462
827.841064,465
827.959412,451
828.077942,439
828.196289,481
828.314636,459
828.433105,459
828.551514,472
828.669861,471
828.78833,451
828.906677,465
829.025085,441
829.143433,456
829.261841,461
829.38031,468
829.498657,467
829.617004,473
829.735413,452
829.85376,452
829.972107,461
830.090515,466
830.208862,446
830.327209,482
830.445557,459
830.563904,440
830.682312,475
830.800659,450
830.919006,457
831.037354,456
831.155701,468
831.274048,438
831.392395,466
831.51062,480
831.629028,442
831.747314,430
831.865662,459
831.984009,454
832.102356,470
832.220642,467
832.338928,454
832.457275,453
832.575623,439
832.693909,468
832.812134,466
832.930481,476
833.048828,442
833.167114,458
833.2854,475
833.403687,467
833.521973,472
833.640259,471
833.758545,463
833.876831,487
833.995056,465
834.113281,455
834.231628,452
834.349915,470
834.468201,440
834.586426,459
834.704651,446
834.822998,462
834.941162,461
835.059448,465
835.177673,459
835.295959,456
835.414246,452
835.53241,461
835.650635,467
835.768921,445
835.887146,453
836.005371,482
836.123596,469
836.241821,470
836.360046,476
836.478271,472
836.596497,484
836.714722,468
836.832886,478
836.95105,467
837.069336,454
837.1875,472
837.305725,450
837.423889,493
837.542053,460
837.660339,456
837.778503,474
837.896667,455
838.014832,494
838.132996,501
838.25116,482
838.369385,482
838.487488,485
838.605713,490
838.723877,476
838.84198,481
838.960205,493
839.078308,485
839.196472,465
839.314636,474
839.4328,457
839.550964,473
839.669067,470
839.787231,468
839.905396,453
840.023499,495
840.141602,479
840.259766,476
840.377869,488
840.495972,497
840.614136,455
840.732239,485
840.850342,468
840.968445,476
841.086548,456
841.204651,485
841.322754,443
841.440918,470
841.55896,462
841.677002,454
841.795166,468
841.913208,466
842.031311,472
842.149353,460
842.267456,468
842.385498,473
842.503601,471
842.621643,457
842.739746,456
842.857788,466
842.97583,454
843.093933,455
843.211975,449
843.330017,451
843.44812,446
843.566101,466
843.684204,465
843.802246,436
843.920227,453
844.038269,458
844.156311,449
844.274292,461
844.392395,456
844.510376,457
844.628357,461
844.74646,440
844.864441,449
844.982422,459
845.100403,462
845.218384,459
845.336426,446
845.454468,456
845.572449,448
845.69043,449
845.808411,451
845.926453,448
846.044373,436
846.162354,469
846.280396,477
846.398315,437
846.516296,441
846.634216,458
846.752197,464
846.870178,449
846.988098,449
847.106079,455
847.22406,447
847.34198,437
847.4599,459
847.577881,454
847.695801,437
847.813782,455
847.931641,443
848.049561,458
848.167603,448
848.285461,459
848.403381,463
848.521362,463
848.639221,454
848.75708,452
848.875,444
848.99292,451
849.110901,439
849.22876,441
849.34668,452
849.464539,437
849.582458,450
849.700317,458
849.818176,476
849.936096,465
850.053955,443
850.171875,458
850.289673,447
850.407593,455
850.525452,449
850.643311,436
850.761169,440
850.878967,448
850.996887,442
851.114746,460
851.232544,446
851.350403,462
851.468262,455
851.58606,437
851.703979,465
851.821777,436
851.939636,440
852.057434,463
852.175232,453
852.293091,458
852.410889,452
852.528687,443
852.646545,444
852.764343,455
852.88208,469
852.999939,465
853.117676,443
853.235535,444
853.353271,460
853.471069,443
853.588928,449
853.706604,457
853.824402,473
853.9422,452
854.059998,449
854.177734,451
854.295532,457
854.413269,436
854.531006,466
854.648804,459
854.766541,465
854.884277,450
855.002014,442
855.119751,440
855.237549,452
855.355225,470
855.473022,477
855.590698,458
855.708435,451
855.826172,455
855.943848,457
856.061646,462
856.179321,449
856.296997,451
856.414795,450
856.53241,455
856.650085,446
856.767822,462
856.885559,482
857.003174,475
857.120911,454
857.238586,454
857.356201,469
857.473938,453
857.591614,448
857.709351,459
857.826965,482
857.944641,436
858.062317,462
858.179993,453
858.297668,432
858.415283,435
858.532959,459
858.650574,458
858.768188,465
858.885803,456
859.003479,448
859.121094,463
859.23877,428
859.356384,455
859.473999,439
859.591675,453
859.709229,471
859.826843,468
859.944458,451
860.062012,467
860.179626,442
860.297302,444
860.414856,452
860.532471,455
860.650024,440
860.767639,439
860.885193,446
861.002808,470
861.120361,438
861.237976,451
861.35553,457
861.473022,445
861.590698,450
861.708191,461
861.825745,447
861.943298,468
862.060852,445
862.178406,451
862.295959,452
862.413513,443
862.531006,456
862.64856,468
862.766113,435
862.883667,459
863.00116,441
863.118713,459
863.236206,436
863.353699,457
863.471252,464
863.588745,454
863.706177,458
863.82373,443
863.941162,454
864.058716,457
864.176208,444
864.29364,477
864.411194,442
864.528687,455
864.646118,434
864.763611,436
864.881042,439
864.998535,448
865.116028,453
865.233459,455
865.350891,449
865.468384,467
865.585754,455
865.703308,460
865.820679,438
865.938171,452
866.055542,451
866.173035,460
866.290466,446
866.407837,460
866.52533,451
866.6427,459
866.760071,435
866.877563,425
866.994934,459
867.112305,445
867.229736,453
867.347107,438
867.464539,446
867.58197,455
867.699341,468
867.81665,469
867.934082,450
868.051453,474
868.168823,434
868.286194,455
868.403564,448
868.520935,443
868.638306,451
868.755676,468
868.872986,434
868.990295,483
869.107727,453
869.225037,460
869.342346,446
869.459717,465
869.577026,448
869.694336,471
869.811707,452
869.929016,467
870.046326,454
870.163635,457
870.280945,445
870.398254,443
870.515564,459
870.632812,450
870.750183,445
870.867432,449
870.984741,456
871.102051,453
871.219299,455
871.336609,444
871.453918,451
871.571106,462
871.688416,447
871.805664,454
871.922852,466
872.040222,443
872.157471,450
872.274719,477
872.391968,442
872.509155,454
872.626465,443
872.743652,445
872.860962,462
872.978149,450
873.095337,447
873.212646,453
873.329834,453
873.44696,463
873.564209,443
873.681396,457
873.798645,472
873.915894,479
874.03302,444
874.150208,452
874.267456,440
874.384583,456
874.501831,459
874.618958,460
874.736145,463
874.853333,476
874.970459,449
875.087646,463
875.204834,454
875.32196,446
875.439148,476
875.556274,439
875.673401,464
875.790527,459
875.907715,450
876.024841,463
876.141968,443
876.259094,450
876.376282,450
876.493347,460
876.610474,456
876.7276,469
876.844727,462
876.961853,468
877.078918,438
877.195984,467
877.313171,454
877.430237,460
877.547302,456
877.664368,446
877.781433,424
877.898499,455
878.015625,458
878.13269,457
878.249695,463
878.366821,458
878.483887,446
878.600952,459
878.717957,452
878.834961,459
878.952087,442
879.069092,429
879.186157,451
879.303162,454
879.420227,453
879.537231,459
879.654236,457
879.77124,474
879.888306,461
880.005249,452
880.122314,447
880.239319,455
880.356323,459
880.473328,441
880.590271,469
880.707275,458
880.824341,456
880.941284,441
881.058228,468
881.175232,435
881.292236,435
881.40918,463
881.526123,460
881.643066,455
881.760071,461
881.877014,441
881.993958,449
882.11084,467
882.227783,442
882.344727,455
882.46167,466
882.578613,458
882.695618,451
882.812439,453
882.929382,441
883.046326,480
883.163208,466
883.280151,455
883.397034,461
883.513916,451
883.630798,434
883.747742,444
883.864563,459
883.981506,435
884.098389,461
884.21521,438
884.332153,459
884.448975,454
884.565796,467
884.682678,462
884.7995,456
884.916443,475
885.033264,451
885.150085,445
885.266968,466
885.383789,453
885.500671,460
885.617493,473
885.734314,485
885.851196,448
885.967896,462
886.084717,463
886.201599,464
886.318359,456
886.435181,469
886.552002,454
886.668762,471
886.785645,458
886.902344,462
887.019165,459
887.135925,445
887.252747,475
887.369446,444
887.486267,473
887.603027,448
887.719788,458
887.836548,447
887.953247,479
888.070068,461
888.186829,451
888.303528,476
888.420288,455
888.536987,450
888.653687,450
888.770447,436
888.887146,450
889.003967,456
889.120667,467
889.237305,458
889.354065,460
889.470703,460
889.587463,452
889.704163,480
889.820862,458
889.937561,445
890.054199,466
890.170837,460
890.287598,462
890.404236,452
890.520874,434
890.637634,479
890.754211,475
890.87085,443
890.987549,437
891.104187,481
891.220886,464
891.337463,467
891.454102,455
891.57074,453
891.687378,460
891.804077,471
891.920654,472
892.037231,449
892.15387,469
892.270447,450
892.387085,464
892.503723,442
892.6203,459
892.736877,477
892.853516,463
892.970032,472
893.08667,454
893.203186,453
893.319763,465
893.43634,465
893.552917,447
893.669556,453
893.786011,462
893.902588,451
894.019165,461
894.135681,468
894.252197,465
894.368835,467
894.485291,466
894.601868,459
894.718384,457
894.8349,450
894.951355,450
895.067932,468
895.184448,459
895.300964,445
895.417419,469
895.533936,451
895.650452,462
895.766907,432
895.883423,441
895.999878,435
896.116333,456
896.232849,452
896.349304,457
896.465759,464
896.582214,457
896.698669,462
896.815125,457
896.931641,441
897.048035,472
897.164551,443
897.280884,450
897.397339,473
897.513794,470
897.630249,464
897.746582,456
897.863098,443
897.979431,458
898.095886,456
898.212341,469
898.328674,436
898.445129,467
898.561462,462
898.677795,464
898.794312,461
898.910645,458
899.026978,483
899.143433,464
899.259766,453
899.37616,478
899.492493,468
899.608765,466
899.725159,470
899.841553,461
899.957947,471
900.07428,461
900.190552,465
900.306946,454
900.423157,467
900.53949,457
900.655884,462
900.772156,459
900.888489,444
901.004822,463
901.121033,478
901.237366,471
901.353699,467
901.46991,479
901.586304,454
901.702515,461
901.818787,469
901.93512,461
902.051331,467
902.167603,449
902.283875,456
902.400085,466
902.516418,465
902.632629,462
902.74884,457
902.865112,479
902.981384,476
903.097595,479
903.213867,454
903.330017,462
903.446289,465
903.5625,480
903.67865,468
903.794922,449
903.911072,454
904.027344,472
904.143494,465
904.259705,473
904.375916,475
904.492065,453
904.608215,474
904.724426,470
904.840576,457
904.956726,480
905.072876,447
905.189087,465
905.305176,450
905.421387,463
905.537537,469
905.653687,488
905.769775,470
905.885925,445
906.002014,481
906.118164,464
906.234314,459
906.350403,479
906.466492,444
906.582642,466
906.69873,479
906.814758,455
906.930908,475
907.046936,451
907.163086,472
907.279175,452
907.395264,460
907.511353,446
907.62738,471
907.743408,488
907.859497,486
907.975525,485
908.091553,463
908.207703,469
908.32373,459
908.439758,445
908.555786,462
908.671814,458
908.787842,464
908.90387,475
909.019775,455
909.135864,457
909.251892,473
909.367859,462
909.483826,491
909.599854,462
909.715881,471
909.831848,471
909.947815,455
910.063782,463
910.179749,455
910.295776,482
910.411743,471
910.527649,485
910.643616,467
910.759583,470
910.875488,491
910.991455,458
911.107361,442
911.223267,474
911.339294,475
911.4552,460
911.571106,483
911.687073,476
911.802979,483
911.918823,463
912.034729,466
912.150635,458
912.266602,458
912.382446,459
912.498352,471
912.614197,477
912.730103,447
912.846008,469
792.44574,648
792.56488,680
792.68396,705
792.80304,682
792.92218,639
793.041199,628
793.160339,639
793.279419,624
793.398499,644
793.517578,622
793.636658,644
793.755737,642
793.874817,635
793.993896,650
794.112976,629
794.232056,611
794.351074,596
794.470215,607
794.589233,597
794.708313,608
794.827393,600
794.946411,617
795.065552,604
795.18457,602
795.303589,599
795.422668,604
795.541687,593
795.660767,606
795.779846,622
795.898865,590
796.017883,595
796.136963,589
796.255981,620
796.375061,614
796.49408,592
796.613037,588
796.732117,597
796.851135,609
796.970154,595
797.089233,573
797.208191,578
797.327271,596
797.446228,576
797.565186,581
797.684265,584
797.803223,608
797.922241,579
798.04126,586
798.160278,568
798.279297,580
798.398315,577
798.517273,569
798.636292,585
798.75531,556
798.874268,587
798.993286,556
799.112244,579
799.231323,599
799.350281,589
799.469238,562
799.588257,582
799.707153,597
799.826111,605
799.945129,592
800.064087,589
800.183044,578
800.302063,594
800.421021,584
800.539978,564
800.658936,583
800.777893,597
800.896912,579
801.015747,578
801.134705,591
801.253723,586
801.37262,564
801.491638,574
801.610535,587
801.729492,615
801.84845,587
801.967407,621
802.086243,584
802.205261,593
802.324158,596
802.443115,565
802.562073,599
802.680969,588
802.799927,610
802.918762,595
803.037659,600
803.156677,584
803.275574,618
803.39447,583
803.513428,581
803.632263,593
803.751221,596
803.870117,605
803.989014,605
804.107971,619
804.226746,619
804.345642,628
804.4646,610
804.583496,606
804.702393,608
804.821228,594
804.940125,593
805.059021,614
805.177917,606
805.296814,623
805.415649,627
805.534546,622
805.653442,597
805.772278,624
805.891113,590
806.01001,614
806.128906,634
806.247742,620
806.366577,624
806.485413,614
806.604309,617
806.723145,614
806.84198,631
806.960876,606
807.079712,619
807.198486,623
807.317383,613
807.436218,595
807.554993,601
807.673889,644
807.792725,613
807.91156,612
808.030396,623
808.14917,611
808.268005,607
808.386841,628
808.505676,646
808.624451,633
808.743286,632
808.862122,632
808.980896,644
809.099731,569
809.218506,630
809.337341,621
809.456116,610
809.57489,638
809.693726,626
809.8125,657
809.931274,614
810.050049,619
810.168884,641
810.287659,642
810.406372,607
810.525269,630
810.643982,621
810.762756,648
810.881531,637
811.000305,644
811.11908,636
811.237854,623
811.356567,607
811.475403,641
811.594116,641
811.71283,636
811.831604,636
811.950378,649
812.069153,630
812.187927,644
812.30658,626
812.425415,644
812.544128,639
812.662781,633
812.781616,643
812.900269,635
813.019043,644
813.137756,620
813.256531,632
813.375244,639
813.493896,618
813.612671,621
813.731384,655
813.850037,629
813.96875,609
814.087524,608
814.206238,614
814.324951,622
814.443604,641
814.562256,630
814.68103,617
814.799683,610
814.918335,633
815.037109,642
815.155762,620
815.274475,598
815.393188,614
815.511841,615
815.630554,601
815.749146,605
815.867859,609
815.986572,619
816.105164,628
816.223877,614
816.342529,611
816.461182,615
816.579895,612
816.698486,605
816.817139,608
816.935791,616
817.054504,640
817.173096,636
817.291748,620
817.4104,622
817.529053,604
817.647644,593
817.766235,581
817.884949,581
818.00354,553
818.122192,567
818.240845,559
818.359436,574
818.478088,559
818.59668,551
818.715271,554
818.833923,562
818.952515,529
819.071106,520
819.189758,533
819.30835,519
819.426941,521
819.545532,519
819.664124,509
819.782715,503
819.901306,493
820.019897,517
820.138489,488
820.25708,503
820.375671,497
820.494202,532
820.612732,499
820.731384,490
820.849915,496
820.968506,514
821.087097,486
821.205627,493
821.324158,502
821.442749,488
821.561279,480
821.679871,506
821.798401,485
821.916931,502
822.035461,492
822.154053,483
822.272583,479
822.391174,489
822.509583,493
822.628174,504
822.746704,497
822.865234,496
822.983765,480
823.102295,498
823.220825,500
823.339294,482
823.457825,488
823.576355,475
823.694824,503
823.813354,470
823.931885,477
824.050354,463
824.168884,498
824.287354,496
824.405823,504
824.524353,481
824.642822,494
824.761353,483
824.879822,496
824.998291,491
825.116699,479
825.235291,483
825.353699,472
825.472168,473
825.590637,478
825.709106,495
825.827576,486
825.946045,486
826.064453,472
826.182983,476
826.301392,484
826.4198,461
826.53833,482
826.656738,486
826.775208,478
826.893677,461
827.012024,468
827.130493,468
827.248962,470
827.36731,492
827.485779,442
827.604248,458
827.722595,480
827.841064,474
827.959412,468
828.077942,480
828.196289,468
828.314636,466
828.433105,485
828.551514,457
828.669861,472
828.78833,468
828.906677,461
829.025085,476
829.143433,455
829.261841,466
829.38031,465
829.498657,465
829.617004,477
829.735413,467
829.85376,470
829.972107,478
830.090515,469
830.208862,463
830.327209,465
830.445557,469
830.563904,468
830.682312,449
830.800659,477
830.919006,473
831.037354,472
831.155701,466
831.274048,484
831.392395,475
831.51062,473
831.629028,446
831.747314,455
831.865662,449
831.984009,465
832.102356,471
832.220642,468
832.338928,474
832.457275,468
832.575623,466
832.693909,441
832.812134,458
832.930481,460
833.048828,462
833.167114,457
833.2854,480
833.403687,469
833.521973,467
833.640259,483
833.758545,474
833.876831,467
833.995056,457
834.113281,481
834.231628,473
834.349915,470
834.468201,453
834.586426,462
834.704651,455
834.822998,461
834.941162,472
835.059448,474
835.177673,472
835.295959,469
835.414246,465
835.53241,466
835.650635,465
835.768921,444
835.887146,469
836.005371,464
836.123596,483
836.241821,485
836.360046,491
836.478271,478
836.596497,470
836.714722,473
836.832886,462
836.95105,478
837.069336,502
837.1875,469
837.305725,480
837.423889,472
837.542053,485
837.660339,488
837.778503,468
837.896667,471
838.014832,486
838.132996,488
838.25116,468
838.369385,471
838.487488,474
838.605713,483
838.723877,473
838.84198,477
838.960205,502
839.078308,508
839.196472,476
839.314636,472
839.4328,482
839.550964,483
839.669067,475
839.787231,472
839.905396,454
840.023499,484
840.141602,478
840.259766,491
840.377869,450
840.495972,458
840.614136,481
840.732239,454
840.850342,483
840.968445,468
841.086548,457
841.204651,465
841.322754,475
841.440918,475
841.55896,461
841.677002,459
841.795166,470
841.913208,445
842.031311,487
842.149353,460
842.267456,466
842.385498,467
842.503601,465
842.621643,459
842.739746,451
842.857788,447
842.97583,469
843.093933,463
843.211975,483
843.330017,457
843.44812,430
843.566101,456
843.684204,456
843.802246,478
843.920227,449
844.038269,479
844.156311,468
844.274292,465
844.392395,449
844.510376,454
844.628357,451
844.74646,451
844.864441,451
844.982422,462
845.100403,457
845.218384,448
845.336426,457
845.454468,444
845.572449,455
845.69043,469
845.808411,447
845.926453,450
846.044373,438
846.162354,455
846.280396,461
846.398315,455
846.516296,453
846.634216,485
846.752197,444
846.870178,455
846.988098,466
847.106079,455
847.22406,457
847.34198,463
847.4599,472
847.577881,442
847.695801,460
847.813782,460
847.931641,449
848.049561,429
848.167603,435
848.285461,453
848.403381,454
848.521362,468
848.639221,440
848.75708,450
848.875,456
848.99292,445
849.110901,462
849.22876,445
849.34668,455
849.464539,444
849.582458,452
849.700317,459
849.818176,438
849.936096,447
850.053955,466
850.171875,448
850.289673,454
850.407593,444
850.525452,467
850.643311,445
850.761169,459
850.878967,450
850.996887,469
851.114746,461
851.232544,438
851.350403,435
851.468262,449
851.58606,469
851.703979,449
851.821777,461
851.939636,451
852.057434,448
852.175232,446
852.293091,456
852.410889,463
852.528687,444
852.646545,450
852.764343,462
852.88208,446
852.999939,449
853.117676,457
853.235535,473
853.353271,449
853.471069,458
853.588928,458
853.706604,452
853.824402,461
853.9422,435
854.059998,432
854.177734,455
854.295532,438
854.413269,446
854.531006,443
854.648804,460
854.766541,457
854.884277,461
855.002014,457
855.119751,471
855.237549,450
855.355225,461
855.473022,454
855.590698,448
855.708435,471
855.826172,463
855.943848,467
856.061646,457
856.179321,461
856.296997,453
856.414795,455
856.53241,465
856.650085,465
856.767822,474
856.885559,460
857.003174,469
857.120911,455
857.238586,464
857.356201,485
857.473938,468
857.591614,466
857.709351,450
857.826965,463
857.944641,471
858.062317,450
858.179993,444
858.297668,445
858.415283,469
858.532959,449
858.650574,462
858.768188,449
858.885803,479
859.003479,451
859.121094,454
859.23877,471
859.356384,443
859.473999,463
859.591675,467
859.709229,451
859.826843,438
859.944458,457
860.062012,464
860.179626,433
860.297302,450
860.414856,454
860.532471,452
860.650024,457
860.767639,451
860.885193,471
861.002808,445
861.120361,448
861.237976,462
861.35553,443
861.473022,448
861.590698,450
861.708191,452
861.825745,455
861.943298,461
862.060852,459
862.178406,463
862.295959,458
862.413513,462
862.531006,452
862.64856,446
862.766113,448
862.883667,438
863.00116,437
863.118713,458
863.236206,449
863.353699,464
863.471252,466
863.588745,466
863.706177,459
863.82373,467
863.941162,446
864.058716,474
864.176208,442
864.29364,444
864.411194,452
864.528687,444
864.646118,457
864.763611,458
864.881042,447
864.998535,441
865.116028,455
865.233459,469
865.350891,453
865.468384,452
865.585754,448
865.703308,458
865.820679,447
865.938171,454
866.055542,456
866.173035,459
866.290466,465
866.407837,473
866.52533,431
866.6427,468
866.760071,460
866.877563,483
866.994934,455
867.112305,472
867.229736,450
867.347107,465
867.464539,453
867.58197,481
867.699341,456
867.81665,443
867.934082,466
868.051453,445
868.168823,472
868.286194,450
868.403564,466
868.520935,488
868.638306,450
868.755676,450
868.872986,459
868.990295,443
869.107727,472
869.225037,455
869.342346,443
869.459717,471
869.577026,459
869.694336,461
869.811707,459
869.929016,462
870.046326,457
870.163635,465
870.280945,440
870.398254,461
870.515564,451
870.632812,462
870.750183,459
870.867432,473
870.984741,453
871.102051,457
871.219299,469
871.336609,477
871.453918,471
871.571106,457
871.688416,448
871.805664,462
871.922852,455
872.040222,461
872.157471,457
872.274719,455
872.391968,457
872.509155,466
872.626465,467
872.743652,456
872.860962,456
872.978149,452
873.095337,438
873.212646,463
873.329834,452
873.44696,460
873.564209,449
873.681396,455
873.798645,453
873.915894,456
874.03302,470
874.150208,475
874.267456,445
874.384583,465
874.501831,444
874.618958,455
874.736145,454
874.853333,453
874.970459,464
875.087646,466
875.204834,466
875.32196,478
875.439148,451
875.556274,473
875.673401,456
875.790527,468
875.907715,475
876.024841,439
876.141968,474
876.259094,461
876.376282,435
876.493347,441
876.610474,452
876.7276,455
876.844727,458
876.961853,463
877.078918,458
877.195984,462
877.313171,479
877.430237,464
877.547302,440
877.664368,455
877.781433,444
877.898499,471
878.015625,447
878.13269,483
878.249695,450
878.366821,447
878.483887,457
878.600952,462
878.717957,442
878.834961,438
878.952087,446
879.069092,453
879.186157,462
879.303162,452
879.420227,445
879.537231,451
879.654236,464
879.77124,478
879.888306,469
880.005249,461
880.122314,467
880.239319,441
880.356323,466
880.473328,443
880.590271,456
880.707275,457
880.824341,452
880.941284,456
881.058228,457
881.175232,455
881.292236,453
881.40918,463
881.526123,467
881.643066,466
881.760071,441
881.877014,448
881.993958,441
882.11084,450
882.227783,429
882.344727,480
882.46167,466
882.578613,449
882.695618,456
882.812439,455
882.929382,449
883.046326,458
883.163208,466
883.280151,452
883.397034,471
883.513916,461
883.630798,458
883.747742,457
883.864563,462
883.981506,465
884.098389,454
884.21521,453
884.332153,448
884.448975,454
884.565796,458
884.682678,459
884.7995,450
884.916443,452
885.033264,451
885.150085,460
885.266968,476
885.383789,473
885.500671,443
885.617493,459
885.734314,442
885.851196,454
885.967896,451
886.084717,468
886.201599,467
886.318359,455
886.435181,472
886.552002,467
886.668762,456
886.785645,477
886.902344,442
887.019165,464
887.135925,470
887.252747,480
887.369446,462
887.486267,466
887.603027,454
887.719788,461
887.836548,464
887.953247,476
888.070068,465
888.186829,466
888.303528,469
888.420288,467
888.536987,466
888.653687,468
888.770447,456
888.887146,449
889.003967,455
889.120667,476
889.237305,452
889.354065,458
889.470703,457
889.587463,453
889.704163,465
889.820862,464
889.937561,444
890.054199,474
890.170837,462
890.287598,454
890.404236,439
890.520874,442
890.637634,450
890.754211,463
890.87085,472
890.987549,467
891.104187,458
891.220886,473
891.337463,446
891.454102,450
891.57074,464
891.687378,465
891.804077,452
891.920654,460
892.037231,479
892.15387,467
892.270447,454
892.387085,456
892.503723,467
892.6203,461
892.736877,464
892.853516,465
892.970032,444
893.08667,454
893.203186,466
893.319763,451
893.43634,460
893.552917,450
893.669556,459
893.786011,461
893.902588,462
894.019165,462
894.135681,449
894.252197,454
894.368835,470
894.485291,469
894.601868,465
894.718384,473
894.8349,480
894.951355,471
895.067932,471
895.184448,458
895.300964,441
895.417419,476
895.533936,462
895.650452,473
895.766907,472
895.883423,454
895.999878,456
896.116333,459
896.232849,467
896.349304,456
896.465759,463
896.582214,467
896.698669,465
896.815125,457
896.931641,454
897.048035,467
897.164551,485
897.280884,477
897.397339,453
897.513794,447
897.630249,464
897.746582,468
897.863098,470
897.979431,466
898.095886,471
898.212341,444
898.328674,448
898.445129,458
898.561462,483
898.677795,450
898.794312,471
898.910645,449
899.026978,474
899.143433,443
899.259766,478
899.37616,502
899.492493,469
899.608765,454
899.725159,458
899.841553,448
899.957947,460
900.07428,484
900.190552,448
900.306946,467
900.423157,449
900.53949,468
900.655884,470
900.772156,469
900.888489,446
901.004822,452
901.121033,473
901.237366,459
901.353699,470
901.46991,469
901.586304,479
901.702515,469
901.818787,457
901.93512,481
902.051331,470
902.167603,497
902.283875,447
902.400085,464
902.516418,491
902.632629,445
902.74884,475
902.865112,469
902.981384,502
903.097595,487
903.213867,470
903.330017,459
903.446289,472
903.5625,477
903.67865,461
903.794922,462
903.911072,461
904.027344,467
904.143494,491
904.259705,463
904.375916,471
904.492065,473
904.608215,484
904.724426,477
904.840576,450
904.956726,473
905.072876,490
905.189087,479
905.305176,476
905.421387,486
905.537537,450
905.653687,463
905.769775,459
905.885925,483
906.002014,465
906.118164,453
906.234314,476
906.350403,475
906.466492,494
906.582642,469
906.69873,461
906.814758,485
906.930908,456
907.046936,472
907.163086,471
907.279175,477
907.395264,479
907.511353,484
907.62738,471
907.743408,458
907.859497,479
907.975525,481
908.091553,460
908.207703,474
908.32373,468
908.439758,467
908.555786,467
908.671814,466
908.787842,463
908.90387,474
909.019775,453
909.135864,472
909.251892,459
909.367859,500
909.483826,466
909.599854,474
909.715881,464
909.831848,458
909.947815,456
910.063782,470
910.179749,452
910.295776,476
910.411743,462
910.527649,482
910.643616,473
910.759583,475
910.875488,466
910.991455,455
911.107361,477
911.223267,461
911.339294,463
911.4552,458
911.571106,467
911.687073,487
911.802979,482
911.918823,468
912.034729,486
912.150635,474
912.266602,468
912.382446,476
912.498352,471
912.614197,476
912.730103,463
912.846008,478
792.44574,664
792.56488,648
792.68396,694
792.80304,668
792.92218,628
793.041199,605
793.160339,605
793.279419,641
793.398499,638
793.517578,609
793.636658,601
793.755737,613
793.874817,637
793.993896,640
794.112976,615
794.232056,624
794.351074,623
794.470215,610
794.589233,624
794.708313,594
794.827393,607
794.946411,606
795.065552,616
795.18457,618
795.303589,590
795.422668,588
795.541687,621
795.660767,585
795.779846,615
795.898865,595
796.017883,578
796.136963,607
796.255981,606
796.375061,593
796.49408,585
796.613037,582
796.732117,592
796.851135,587
796.970154,593
797.089233,575
797.208191,595
797.327271,582
797.446228,600
797.565186,575
797.684265,603
797.803223,579
797.922241,585
798.04126,604
798.160278,604
798.279297,600
798.398315,586
798.517273,564
798.636292,584
798.75531,577
798.874268,563
798.993286,581
799.112244,581
799.231323,598
799.350281,609
799.469238,563
799.588257,583
799.707153,596
799.826111,596
799.945129,578
800.064087,565
800.183044,575
800.302063,588
800.421021,594
800.539978,614
800.658936,578
800.777893,581
800.896912,562
801.015747,588
801.134705,579
801.253723,579
801.37262,587
801.491638,591
801.610535,561
801.729492,597
801.84845,598
801.967407,584
802.086243,579
802.205261,598
802.324158,607
802.443115,583
802.562073,593
802.680969,606
802.799927,587
802.918762,600
803.037659,614
803.156677,600
803.275574,593
803.39447,608
803.513428,581
803.632263,599
803.751221,599
803.870117,588
803.989014,618
804.107971,619
804.226746,608
804.345642,609
804.4646,595
804.583496,600
804.702393,603
804.821228,583
804.940125,584
805.059021,599
805.177917,612
805.296814,598
805.415649,580
805.534546,639
805.653442,603
805.772278,609
805.891113,604
806.01001,606
806.128906,606
806.247742,604
806.366577,590
806.485413,608
806.604309,634
806.723145,627
806.84198,601
806.960876,635
807.079712,578
807.198486,635
807.317383,597
807.436218,621
807.554993,613
807.673889,644
807.792725,599
807.91156,622
808.030396,616
808.14917,619
808.268005,608
808.386841,619
808.505676,624
808.624451,628
808.743286,625
808.862122,621
808.980896,617
809.099731,634
809.218506,606
809.337341,616
809.456116,624
809.57489,640
809.693726,606
809.8125,647
809.931274,611
810.050049,652
810.168884,607
810.287659,621
810.406372,649
810.525269,628
810.643982,603
810.762756,635
810.881531,646
811.000305,646
811.11908,621
811.237854,624
811.356567,628
811.475403,625
811.594116,624
811.71283,632
811.831604,643
811.950378,647
812.069153,615
812.187927,626
812.30658,609
812.425415,648
812.544128,637
812.662781,650
812.781616,605
812.900269,634
813.019043,625
813.137756,643
813.256531,629
813.375244,643
813.493896,624
813.612671,622
813.731384,618
813.850037,639
813.96875,618
814.087524,634
814.206238,640
814.324951,641
814.443604,588
814.562256,639
814.68103,597
814.799683,619
814.918335,629
815.037109,630
815.155762,620
815.274475,643
815.393188,643
815.511841,629
815.630554,590
815.749146,628
815.867859,620
815.986572,628
816.105164,600
816.223877,617
816.342529,601
816.461182,624
816.579895,634
816.698486,595
816.817139,613
816.935791,639
817.054504,628
817.173096,623
817.291748,619
817.4104,614
817.529053,614
817.647644,601
817.766235,599
817.884949,588
818.00354,578
818.122192,580
818.240845,552
818.359436,554
818.478088,534
818.59668,549
818.715271,542
818.833923,521
818.952515,522
819.071106,525
819.189758,523
819.30835,504
819.426941,527
819.545532,511
819.664124,512
819.782715,501
819.901306,496
820.019897,502
820.138489,496
820.25708,479
820.375671,496
820.494202,498
820.612732,503
820.731384,499
820.849915,504
820.968506,487
821.087097,496
821.205627,488
821.324158,495
821.442749,498
821.561279,492
821.679871,498
821.798401,478
821.916931,486
822.035461,504
822.154053,503
822.272583,490
822.391174,482
822.509583,468
822.628174,517
822.746704,481
822.865234,490
822.983765,463
823.102295,490
823.220825,484
823.339294,491
823.457825,481
823.576355,473
823.694824,466
823.813354,498
823.931885,488
824.050354,498
824.168884,492
824.287354,517
824.405823,479
824.524353,493
824.642822,496
824.761353,497
824.879822,491
824.998291,477
825.116699,470
825.235291,500
825.353699,485
825.472168,480
825.590637,486
825.709106,481
825.827576,482
825.946045,485
826.064453,483
826.182983,475
826.301392,470
826.4198,470
826.53833,479
826.656738,483
826.775208,454
826.893677,481
827.012024,473
827.130493,476
827.248962,468
827.36731,471
827.485779,462
827.604248,473
827.722595,474
827.841064,465
827.959412,456
828.077942,477
828.196289,476
828.314636,476
828.433105,489
828.551514,462
828.669861,489
828.78833,464
828.906677,473
829.025085,470
829.143433,476
829.261841,473
829.38031,478
829.498657,462
829.617004,462
829.735413,470
829.85376,454
829.972107,464
830.090515,458
830.208862,468
830.327209,478
830.445557,461
830.563904,456
830.682312,469
830.800659,447
830.919006,466
831.037354,444
831.155701,468
831.274048,458
831.392395,472
831.51062,441
831.629028,481
831.747314,462
831.865662,462
831.984009,459
832.102356,482
832.220642,432
832.338928,477
832.457275,471
832.575623,484
832.693909,470
832.812134,471
832.930481,468
833.048828,476
833.167114,472
833.2854,470
833.403687,454
833.521973,482
833.640259,471
833.758545,466
833.876831,456
833.995056,469
834.113281,443
834.231628,472
834.349915,467
834.468201,473
834.586426,456
834.704651,473
834.822998,449
834.941162,499
835.059448,468
835.177673,456
835.295959,459
835.414246,446
835.53241,459
835.650635,484
835.768921,467
835.887146,452
836.005371,480
836.123596,497
836.241821,483
836.360046,466
836.478271,468
836.596497,479
836.714722,460
836.832886,483
836.95105,469
837.069336,494
837.1875,492
837.305725,486
837.423889,466
837.542053,492
837.660339,505
837.778503,491
837.896667,482
838.014832,469
838.132996,475
838.25116,476
838.369385,483
838.487488,480
838.605713,478
838.723877,469
838.84198,503
838.960205,492
839.078308,476
839.196472,481
839.314636,454
839.4328,483
839.550964,458
839.669067,484
839.787231,482
839.905396,483
840.023499,449
840.141602,487
840.259766,493
840.377869,473
840.495972,465
840.614136,468
840.732239,469
840.850342,461
840.968445,450
841.086548,472
841.204651,447
841.322754,480
841.440918,456
841.55896,467
841.677002,453
841.795166,466
841.913208,464
842.031311,464
842.149353,468
842.267456,477
842.385498,448
842.503601,448
842.621643,445
842.739746,474
842.857788,470
842.97583,476
843.093933,458
843.211975,463
843.330017,457
843.44812,465
843.566101,473
843.684204,460
843.802246,447
843.920227,443
844.038269,459
844.156311,472
844.274292,457
844.392395,452
844.510376,471
844.628357,443
844.74646,435
844.864441,455
844.982422,455
845.100403,476
845.218384,442
845.336426,483
845.454468,448
845.572449,471
845.69043,467
845.808411,447
845.926453,437
846.044373,453
846.162354,444
846.280396,447
846.398315,459
846.516296,457
846.634216,462
846.752197,460
846.870178,442
846.988098,449
847.106079,462
847.22406,449
847.34198,455
847.4599,457
847.577881,459
847.695801,467
847.813782,443
847.931641,474
848.049561,454
848.167603,453
848.285461,455
848.403381,440
848.521362,451
848.639221,461
848.75708,442
848.875,455
848.99292,460
849.110901,462
849.22876,447
849.34668,454
849.464539,441
849.582458,451
849.700317,439
849.818176,463
849.936096,469
850.053955,455
850.171875,448
850.289673,448
850.407593,458
850.525452,460
850.643311,448
850.761169,454
850.878967,444
850.996887,468
851.114746,465
851.232544,462
851.350403,445
851.468262,449
851.58606,450
851.703979,465
851.821777,458
851.939636,449
852.057434,477
852.175232,460
852.293091,457
852.410889,460
852.528687,462
852.646545,471
852.764343,453
852.88208,455
852.999939,460
853.117676,453
853.235535,466
853.353271,464
853.471069,437
853.588928,466
853.706604,456
853.824402,471
853.9422,469
854.059998,452
854.177734,457
854.295532,421
854.413269,463
854.531006,451
854.648804,455
854.766541,449
854.884277,449
855.002014,471
855.119751,463
855.237549,462
855.355225,468
855.473022,448
855.590698,456
855.708435,465
855.826172,455
855.943848,452
856.061646,455
856.179321,460
856.296997,470
856.414795,459
856.53241,436
856.650085,473
856.767822,461
856.885559,456
857.003174,457
857.120911,473
857.238586,450
857.356201,491
857.473938,446
857.591614,473
857.709351,462
857.826965,446
857.944641,458
858.062317,479
858.179993,451
858.297668,458
858.415283,460
858.532959,457
858.650574,453
858.768188,441
858.885803,492
859.003479,442
859.121094,460
859.23877,466
859.356384,465
859.473999,461
859.591675,477
859.709229,473
859.826843,447
859.944458,465
860.062012,451
860.179626,457
860.297302,454
860.414856,468
860.532471,463
860.650024,450
860.767639,468
860.885193,454
861.002808,469
861.120361,446
861.237976,452
861.35553,456
861.473022,447
861.590698,447
861.708191,461
861.825745,440
861.943298,454
862.060852,459
862.178406,461
862.295959,442
862.413513,464
862.531006,481
862.64856,441
862.766113,456
862.883667,442
863.00116,443
863.118713,448
863.236206,449
863.353699,435
863.471252,458
863.588745,432
863.706177,449
863.82373,458
863.941162,455
864.058716,438
864.176208,472
864.29364,469
864.411194,469
864.528687,448
864.646118,456
864.763611,458
864.881042,463
864.998535,455
865.116028,443
865.233459,470
865.350891,462
865.468384,471
865.585754,466
865.703308,450
865.820679,463
865.938171,464
866.055542,444
866.173035,444
866.290466,467
866.407837,446
866.52533,448
866.6427,449
866.760071,465
866.877563,456
866.994934,459
867.112305,466
867.229736,478
867.347107,466
867.464539,479
867.58197,442
867.699341,455
867.81665,469
867.934082,459
868.051453,453
868.168823,449
868.286194,457
868.403564,464
868.520935,461
868.638306,447
868.755676,437
868.872986,480
868.990295,462
869.107727,458
869.225037,454
869.342346,462
869.459717,454
869.577026,447
869.694336,475
869.811707,462
869.929016,451
870.046326,480
870.163635,452
870.280945,469
870.398254,463
870.515564,451
870.632812,456
870.750183,455
870.867432,455
870.984741,463
871.102051,438
871.219299,439
871.336609,446
871.453918,452
871.571106,448
871.688416,454
871.805664,451
871.922852,468
872.040222,448
872.157471,466
872.274719,465
872.391968,469
872.509155,448
872.626465,474
872.743652,455
872.860962,476
872.978149,449
873.095337,459
873.212646,464
873.329834,445
873.44696,458
873.564209,455
873.681396,440
873.798645,469
873.915894,455
874.03302,458
874.150208,454
874.267456,461
874.384583,465
874.501831,459
874.618958,446
874.736145,476
874.853333,455
874.970459,448
875.087646,452
875.204834,444
875.32196,464
875.439148,455
875.556274,456
875.673401,461
875.790527,441
875.907715,455
876.024841,449
876.141968,450
876.259094,439
876.376282,460
876.493347,448
876.610474,460
876.7276,444
876.844727,462
876.961853,457
877.078918,466
877.195984,455
877.313171,458
877.430237,461
877.547302,468
877.664368,463
877.781433,441
877.898499,462
878.015625,470
878.13269,432
878.249695,455
878.366821,459
878.483887,463
878.600952,448
878.717957,455
878.834961,459
878.952087,464
879.069092,468
879.186157,452
879.303162,449
879.420227,465
879.537231,445
879.654236,452
879.77124,465
879.888306,463
880.005249,466
880.122314,456
880.239319,459
880.356323,462
880.473328,457
880.590271,477
880.707275,452
880.824341,452
880.941284,456
881.058228,463
881.175232,429
881.292236,467
881.40918,446
881.526123,442
881.643066,456
881.760071,461
881.877014,436
881.993958,471
882.11084,438
882.227783,468
882.344727,453
882.46167,466
882.578613,464
882.695618,462
882.812439,448
882.929382,475
883.046326,470
883.163208,461
883.280151,448
883.397034,447
883.513916,450
883.630798,450
883.747742,449
883.864563,468
883.981506,461
884.098389,472
884.21521,458
884.332153,466
884.448975,456
884.565796,458
884.682678,472
884.7995,463
884.916443,466
885.033264,467
885.150085,447
885.266968,450
885.383789,464
885.500671,466
885.617493,460
885.734314,454
885.851196,442
885.967896,465
886.084717,476
886.201599,484
886.318359,448
886.435181,475
886.552002,462
886.668762,472
886.785645,449
886.902344,451
887.019165,449
887.135925,463
887.252747,472
887.369446,468
887.486267,467
887.603027,451
887.719788,447
887.836548,455
887.953247,463
888.070068,448
888.186829,467
888.303528,476
888.420288,467
888.536987,474
888.653687,450
888.770447,449
888.887146,456
889.003967,470
889.120667,450
889.237305,469
889.354065,455
889.470703,457
889.587463,467
889.704163,464
889.820862,437
889.937561,483
890.054199,462
890.170837,460
890.287598,452
890.404236,476
890.520874,447
890.637634,462
890.754211,458
890.87085,454
890.987549,454
891.104187,472
891.220886,446
891.337463,455
891.454102,478
891.57074,477
891.687378,467
891.804077,471
891.920654,489
892.037231,475
892.15387,469
892.270447,443
892.387085,430
892.503723,476
892.6203,459
892.736877,471
892.853516,455
892.970032,480
893.08667,459
893.203186,469
893.319763,435
893.43634,467
893.552917,465
893.669556,482
893.786011,472
893.902588,480
894.019165,464
894.135681,479
894.252197,466
894.368835,473
894.485291,460
894.601868,476
894.718384,451
894.8349,481
894.951355,458
895.067932,437
895.184448,456
895.300964,480
895.417419,452
895.533936,490
895.650452,463
895.766907,484
895.883423,454
895.999878,476
896.116333,454
896.232849,462
896.349304,456
896.465759,486
896.582214,447
896.698669,483
896.815125,471
896.931641,456
897.048035,462
897.164551,465
897.280884,465
897.397339,457
897.513794,476
897.630249,465
897.746582,472
897.863098,466
897.979431,462
898.095886,475
898.212341,454
898.328674,481
898.445129,471
898.561462,475
898.677795,487
898.794312,445
898.910645,483
899.026978,469
899.143433,451
899.259766,463
899.37616,462
899.492493,468
899.608765,466
899.725159,467
899.841553,452
899.957947,463
900.07428,467
900.190552,498
900.306946,465
900.423157,481
900.53949,461
900.655884,475
900.772156,469
900.888489,487
901.004822,475
901.121033,463
901.237366,471
901.353699,482
901.46991,462
901.586304,486
901.702515,482
901.818787,475
901.93512,477
902.051331,490
902.167603,478
902.283875,482
902.400085,456
902.516418,469
902.632629,477
902.74884,472
902.865112,479
902.981384,484
903.097595,462
903.213867,475
903.330017,465
903.446289,471
903.5625,462
903.67865,476
903.794922,477
903.911072,465
904.027344,479
904.143494,485
904.259705,463
904.375916,467
904.492065,480
904.608215,465
904.724426,469
904.840576,473
904.956726,462
905.072876,457
905.189087,467
905.305176,468
905.421387,477
905.537537,473
905.653687,469
905.769775,484
905.885925,474
906.002014,458
906.118164,458
906.234314,477
906.350403,481
906.466492,486
906.582642,484
906.69873,472
906.814758,485
906.930908,480
907.046936,472
907.163086,464
907.279175,461
907.395264,470
907.511353,482
907.62738,468
907.743408,471
907.859497,449
907.975525,482
908.091553,463
908.207703,456
908.32373,472
908.439758,474
908.555786,494
908.671814,449
908.787842,474
908.90387,470
909.019775,484
909.135864,463
909.251892,463
909.367859,482
909.483826,481
909.599854,483
909.715881,467
909.831848,465
909.947815,475
910.063782,465
910.179749,464
910.295776,467
910.411743,488
910.527649,488
910.643616,468
910.759583,460
910.875488,491
910.991455,485
911.107361,459
911.223267,482
911.339294,476
911.4552,450
911.571106,465
911.687073,475
911.802979,481
911.918823,482
912.034729,492
912.150635,488
912.266602,473
912.382446,470
912.498352,490
912.614197,482
912.730103,473
912.846008,479
