792.44574,1124
792.56488,1155
792.68396,1159
792.80304,1140
792.92218,1091
793.041199,1006
793.160339,986
793.279419,1013
793.398499,1017
793.517578,936
793.636658,944
793.755737,899
793.874817,910
793.993896,906
794.112976,880
794.232056,855
794.351074,864
794.470215,857
794.589233,861
794.708313,819
794.827393,837
794.946411,837
795.065552,784
795.18457,818
795.303589,804
795.422668,794
795.541687,783
795.660767,778
795.779846,782
795.898865,731
796.017883,724
796.136963,735
796.255981,704
796.375061,740
796.49408,724
796.613037,724
796.732117,713
796.851135,709
796.970154,684
797.089233,669
797.208191,712
797.327271,687
797.446228,683
797.565186,705
797.684265,665
797.803223,682
797.922241,680
798.04126,644
798.160278,667
798.279297,676
798.398315,651
798.517273,663
798.636292,670
798.75531,641
798.874268,653
798.993286,641
799.112244,648
799.231323,663
799.350281,639
799.469238,634
799.588257,653
799.707153,635
799.826111,652
799.945129,639
800.064087,637
800.183044,619
800.302063,608
800.421021,642
800.539978,637
800.658936,602
800.777893,619
800.896912,621
801.015747,627
801.134705,598
801.253723,623
801.37262,601
801.491638,601
801.610535,589
801.729492,612
801.84845,616
801.967407,624
802.086243,604
802.205261,605
802.324158,604
802.443115,621
802.562073,580
802.680969,591
802.799927,592
802.918762,602
803.037659,574
803.156677,584
803.275574,594
803.39447,607
803.513428,575
803.632263,575
803.751221,597
803.870117,565
803.989014,600
804.107971,581
804.226746,572
804.345642,591
804.4646,574
804.583496,585
804.702393,563
804.821228,584
804.940125,565
805.059021,571
805.177917,566
805.296814,588
805.415649,562
805.534546,557
805.653442,567
805.772278,585
805.891113,589
806.01001,537
806.128906,567
806.247742,564
806.366577,569
806.485413,569
806.604309,556
806.723145,553
806.84198,569
806.960876,574
807.079712,563
807.198486,557
807.317383,573
807.436218,558
807.554993,570
807.673889,555
807.792725,557
807.91156,585
808.030396,537
808.14917,559
808.268005,570
808.386841,550
808.505676,547
808.624451,545
808.743286,556
808.862122,549
808.980896,546
809.099731,561
809.218506,554
809.337341,582
809.456116,535
809.57489,559
809.693726,564
809.8125,564
809.931274,564
810.050049,563
810.168884,541
810.287659,542
810.406372,550
810.525269,567
810.643982,540
810.762756,547
810.881531,552
811.000305,553
811.11908,546
811.237854,546
811.356567,576
811.475403,552
811.594116,570
811.71283,552
811.831604,562
811.950378,545
812.069153,548
812.187927,585
812.30658,572
812.425415,557
812.544128,538
812.662781,553
812.781616,547
812.900269,551
813.019043,560
813.137756,562
813.256531,553
813.375244,553
813.493896,526
813.612671,559
813.731384,542
813.850037,522
813.96875,535
814.087524,552
814.206238,529
814.324951,556
814.443604,553
814.562256,545
814.68103,564
814.799683,536
814.918335,553
815.037109,578
815.155762,541
815.274475,540
815.393188,536
815.511841,538
815.630554,529
815.749146,546
815.867859,535
815.986572,543
816.105164,536
816.223877,566
816.342529,552
816.461182,535
816.579895,555
816.698486,555
816.817139,537
816.935791,540
817.054504,548
817.173096,556
817.291748,521
817.4104,536
817.529053,548
817.647644,560
817.766235,528
817.884949,533
818.00354,539
818.122192,532
818.240845,526
818.359436,544
818.478088,535
818.59668,533
818.715271,524
818.833923,535
818.952515,523
819.071106,515
819.189758,536
819.30835,515
819.426941,529
819.545532,533
819.664124,519
819.782715,514
819.901306,498
820.019897,530
820.138489,526
820.25708,508
820.375671,513
820.494202,530
820.612732,529
820.731384,533
820.849915,498
820.968506,520
821.087097,512
821.205627,531
821.324158,511
821.442749,529
821.561279,506
821.679871,505
821.798401,512
821.916931,526
822.035461,488
822.154053,517
822.272583,507
822.391174,521
822.509583,505
822.628174,518
822.746704,499
822.865234,507
822.983765,502
823.102295,504
823.220825,502
823.339294,504
823.457825,505
823.576355,504
823.694824,523
823.813354,524
823.931885,517
824.050354,505
824.168884,508
824.287354,512
824.405823,511
824.524353,502
824.642822,487
824.761353,518
824.879822,510
824.998291,520
825.116699,509
825.235291,496
825.353699,488
825.472168,488
825.590637,496
825.709106,504
825.827576,491
825.946045,497
826.064453,496
826.182983,488
826.301392,504
826.4198,517
826.53833,496
826.656738,502
826.775208,473
826.893677,508
827.012024,490
827.130493,492
827.248962,501
827.36731,502
827.485779,507
827.604248,504
827.722595,505
827.841064,515
827.959412,484
828.077942,488
828.196289,488
828.314636,501
828.433105,501
828.551514,495
828.669861,492
828.78833,491
828.906677,494
829.025085,487
829.143433,499
829.261841,509
829.38031,472
829.498657,488
829.617004,497
829.735413,499
829.85376,499
829.972107,517
830.090515,481
830.208862,500
830.327209,485
830.445557,515
830.563904,491
830.682312,518
830.800659,478
830.919006,497
831.037354,505
831.155701,500
831.274048,509
831.392395,495
831.51062,483
831.629028,497
831.747314,501
831.865662,483
831.984009,493
832.102356,512
832.220642,486
832.338928,505
832.457275,503
832.575623,530
832.693909,503
832.812134,508
832.930481,498
833.048828,517
833.167114,514
833.2854,497
833.403687,503
833.521973,501
833.640259,486
833.758545,519
833.876831,488
833.995056,491
834.113281,495
834.231628,508
834.349915,495
834.468201,507
834.586426,519
834.704651,511
834.822998,519
834.941162,499
835.059448,499
835.177673,496
835.295959,509
835.414246,531
835.53241,516
835.650635,499
835.768921,504
835.887146,504
836.005371,490
836.123596,496
836.241821,491
836.360046,508
836.478271,496
836.596497,498
836.714722,511
836.832886,484
836.95105,475
837.069336,507
837.1875,495
837.305725,507
837.423889,484
837.542053,492
837.660339,480
837.778503,519
837.896667,484
838.014832,489
838.132996,493
838.25116,489
838.369385,503
838.487488,487
838.605713,507
838.723877,524
838.84198,516
838.960205,517
839.078308,509
839.196472,506
839.314636,507
839.4328,517
839.550964,507
839.669067,521
839.787231,507
839.905396,509
840.023499,528
840.141602,528
840.259766,528
840.377869,545
840.495972,530
840.614136,530
840.732239,525
840.850342,542
840.968445,540
841.086548,559
841.204651,551
841.322754,534
841.440918,518
841.55896,534
841.677002,553
841.795166,540
841.913208,550
842.031311,543
842.149353,531
842.267456,536
842.385498,550
842.503601,542
842.621643,549
842.739746,532
842.857788,547
842.97583,544
843.093933,535
843.211975,539
843.330017,520
843.44812,540
843.566101,540
843.684204,540
843.802246,525
843.920227,544
844.038269,542
844.156311,531
844.274292,545
844.392395,557
844.510376,525
844.628357,534
844.74646,535
844.864441,540
844.982422,524
845.100403,518
845.218384,524
845.336426,520
845.454468,521
845.572449,533
845.69043,518
845.808411,508
845.926453,510
846.044373,535
846.162354,537
846.280396,518
846.398315,519
846.516296,548
846.634216,538
846.752197,517
846.870178,532
846.988098,533
847.106079,541
847.22406,549
847.34198,549
847.4599,565
847.577881,536
847.695801,525
847.813782,519
847.931641,518
848.049561,517
848.167603,535
848.285461,530
848.403381,535
848.521362,537
848.639221,525
848.75708,539
848.875,522
848.99292,539
849.110901,529
849.22876,537
849.34668,539
849.464539,525
849.582458,524
849.700317,515
849.818176,534
849.936096,553
850.053955,542
850.171875,537
850.289673,547
850.407593,520
850.525452,514
850.643311,520
850.761169,544
850.878967,530
850.996887,537
851.114746,521
851.232544,536
851.350403,526
851.468262,528
851.58606,522
851.703979,533
851.821777,523
851.939636,528
852.057434,533
852.175232,525
852.293091,543
852.410889,545
852.528687,558
852.646545,545
852.764343,545
852.88208,573
852.999939,545
853.117676,560
853.235535,531
853.353271,549
853.471069,553
853.588928,521
853.706604,527
853.824402,539
853.9422,507
854.059998,517
854.177734,536
854.295532,539
854.413269,532
854.531006,526
854.648804,557
854.766541,521
854.884277,512
855.002014,570
855.119751,511
855.237549,529
855.355225,542
855.473022,531
855.590698,529
855.708435,522
855.826172,531
855.943848,537
856.061646,554
856.179321,558
856.296997,532
856.414795,521
856.53241,531
856.650085,547
856.767822,565
856.885559,545
857.003174,545
857.120911,563
857.238586,568
857.356201,542
857.473938,560
857.591614,522
857.709351,538
857.826965,532
857.944641,535
858.062317,545
858.179993,541
858.297668,542
858.415283,547
858.532959,535
858.650574,528
858.768188,538
858.885803,547
859.003479,535
859.121094,533
859.23877,543
859.356384,539
859.473999,537
859.591675,538
859.709229,538
859.826843,523
859.944458,523
860.062012,529
860.179626,524
860.297302,527
860.414856,513
860.532471,528
860.650024,513
860.767639,543
860.885193,517
861.002808,523
861.120361,505
861.237976,505
861.35553,560
861.473022,529
861.590698,530
861.708191,518
861.825745,509
861.943298,522
862.060852,528
862.178406,508
862.295959,516
862.413513,514
862.531006,491
862.64856,485
862.766113,498
862.883667,501
863.00116,491
863.118713,497
863.236206,519
863.353699,494
863.471252,525
863.588745,518
863.706177,514
863.82373,517
863.941162,525
864.058716,498
864.176208,531
864.29364,497
864.411194,524
864.528687,493
864.646118,510
864.763611,495
864.881042,515
864.998535,504
865.116028,503
865.233459,511
865.350891,492
865.468384,508
865.585754,514
865.703308,496
865.820679,509
865.938171,495
866.055542,490
866.173035,516
866.290466,509
866.407837,492
866.52533,490
866.6427,505
866.760071,514
866.877563,500
866.994934,529
867.112305,494
867.229736,509
867.347107,508
867.464539,501
867.58197,504
867.699341,509
867.81665,526
867.934082,512
868.051453,512
868.168823,505
868.286194,498
868.403564,516
868.520935,494
868.638306,510
868.755676,515
868.872986,523
868.990295,529
869.107727,533
869.225037,502
869.342346,529
869.459717,531
869.577026,511
869.694336,524
869.811707,535
869.929016,522
870.046326,550
870.163635,534
870.280945,548
870.398254,542
870.515564,563
870.632812,535
870.750183,539
870.867432,544
870.984741,554
871.102051,542
871.219299,555
871.336609,550
871.453918,563
871.571106,566
871.688416,564
871.805664,553
871.922852,569
872.040222,543
872.157471,545
872.274719,550
872.391968,572
872.509155,522
872.626465,549
872.743652,533
872.860962,544
872.978149,532
873.095337,560
873.212646,547
873.329834,545
873.44696,539
873.564209,546
873.681396,525
873.798645,552
873.915894,543
874.03302,548
874.150208,558
874.267456,552
874.384583,539
874.501831,552
874.618958,568
874.736145,579
874.853333,558
874.970459,550
875.087646,541
875.204834,555
875.32196,560
875.439148,557
875.556274,530
875.673401,557
875.790527,539
875.907715,553
876.024841,510
876.141968,535
876.259094,486
876.376282,535
876.493347,544
876.610474,533
876.7276,518
876.844727,548
876.961853,525
877.078918,531
877.195984,539
877.313171,522
877.430237,504
877.547302,529
877.664368,506
877.781433,543
877.898499,520
878.015625,525
878.13269,528
878.249695,561
878.366821,518
878.483887,506
878.600952,513
878.717957,526
878.834961,522
878.952087,505
879.069092,498
879.186157,526
879.303162,510
879.420227,514
879.537231,505
879.654236,499
879.77124,502
879.888306,490
880.005249,502
880.122314,501
880.239319,479
880.356323,505
880.473328,489
880.590271,491
880.707275,480
880.824341,491
880.941284,498
881.058228,496
881.175232,493
881.292236,501
881.40918,487
881.526123,498
881.643066,487
881.760071,514
881.877014,512
881.993958,488
882.11084,470
882.227783,485
882.344727,483
882.46167,489
882.578613,508
882.695618,488
882.812439,478
882.929382,505
883.046326,501
883.163208,485
883.280151,483
883.397034,489
883.513916,508
883.630798,508
883.747742,520
883.864563,502
883.981506,502
884.098389,501
884.21521,527
884.332153,524
884.448975,507
884.565796,537
884.682678,529
884.7995,559
884.916443,533
885.033264,560
885.150085,591
885.266968,592
885.383789,615
885.500671,595
885.617493,577
885.734314,623
885.851196,597
885.967896,610
886.084717,604
886.201599,608
886.318359,600
886.435181,611
886.552002,591
886.668762,594
886.785645,592
886.902344,581
887.019165,569
887.135925,575
887.252747,558
887.369446,568
887.486267,539
887.603027,543
887.719788,555
887.836548,532
887.953247,546
888.070068,529
888.186829,541
888.303528,527
888.420288,501
888.536987,491
888.653687,483
888.770447,475
888.887146,504
889.003967,500
889.120667,469
889.237305,486
889.354065,482
889.470703,473
889.587463,479
889.704163,486
889.820862,472
889.937561,470
890.054199,481
890.170837,494
890.287598,472
890.404236,489
890.520874,467
890.637634,486
890.754211,480
890.87085,485
890.987549,483
891.104187,478
891.220886,492
891.337463,485
891.454102,493
891.57074,494
891.687378,473
891.804077,481
891.920654,503
892.037231,487
892.15387,492
892.270447,492
892.387085,492
892.503723,484
892.6203,464
892.736877,496
892.853516,491
892.970032,482
893.08667,477
893.203186,463
893.319763,464
893.43634,483
893.552917,464
893.669556,479
893.786011,469
893.902588,480
894.019165,472
894.135681,488
894.252197,497
894.368835,498
894.485291,478
894.601868,478
894.718384,483
894.8349,499
894.951355,473
895.067932,493
895.184448,469
895.300964,480
895.417419,475
895.533936,466
895.650452,494
895.766907,469
895.883423,471
895.999878,488
896.116333,470
896.232849,465
896.349304,490
896.465759,476
896.582214,473
896.698669,474
896.815125,477
896.931641,476
897.048035,474
897.164551,475
897.280884,477
897.397339,481
897.513794,473
897.630249,498
897.746582,471
897.863098,495
897.979431,474
898.095886,497
898.212341,472
898.328674,514
898.445129,489
898.561462,481
898.677795,495
898.794312,484
898.910645,486
899.026978,487
899.143433,481
899.259766,496
899.37616,481
899.492493,488
899.608765,463
899.725159,479
899.841553,480
899.957947,490
900.07428,484
900.190552,498
900.306946,471
900.423157,496
900.53949,492
900.655884,496
900.772156,487
900.888489,486
901.004822,474
901.121033,494
901.237366,497
901.353699,494
901.46991,500
901.586304,522
901.702515,490
901.818787,509
901.93512,486
902.051331,521
902.167603,527
902.283875,520
902.400085,531
902.516418,535
902.632629,523
902.74884,539
902.865112,537
902.981384,537
903.097595,536
903.213867,537
903.330017,539
903.446289,521
903.5625,517
903.67865,527
903.794922,524
903.911072,506
904.027344,519
904.143494,505
904.259705,513
904.375916,503
904.492065,494
904.608215,521
904.724426,521
904.840576,499
904.956726,504
905.072876,484
905.189087,485
905.305176,499
905.421387,485
905.537537,492
905.653687,473
905.769775,483
905.885925,458
906.002014,489
906.118164,489
906.234314,474
906.350403,472
906.466492,449
906.582642,485
906.69873,479
906.814758,483
906.930908,487
907.046936,462
907.163086,480
907.279175,439
907.395264,457
907.511353,474
907.62738,474
907.743408,454
907.859497,459
907.975525,455
908.091553,491
908.207703,483
908.32373,473
908.439758,489
908.555786,477
908.671814,458
908.787842,469
908.90387,458
909.019775,469
909.135864,467
909.251892,476
909.367859,466
909.483826,458
909.599854,467
909.715881,465
909.831848,484
909.947815,480
910.063782,484
910.179749,493
910.295776,477
910.411743,487
910.527649,477
910.643616,463
910.759583,477
910.875488,468
910.991455,472
911.107361,477
911.223267,464
911.339294,480
911.4552,456
911.571106,473
911.687073,444
911.802979,462
911.918823,466
912.034729,497
912.150635,477
912.266602,464
912.382446,452
912.498352,484
912.614197,456
912.730103,484
912.846008,462
792.44574,1152
792.56488,1167
792.68396,1188
792.80304,1110
792.92218,1075
793.041199,1007
793.160339,1014
793.279419,1020
793.398499,982
793.517578,965
793.636658,946
793.755737,917
793.874817,958
793.993896,949
794.112976,883
794.232056,846
794.351074,872
794.470215,869
794.589233,836
794.708313,871
794.827393,816
794.946411,829
795.065552,816
795.18457,798
795.303589,795
795.422668,785
795.541687,802
795.660767,776
795.779846,768
795.898865,726
796.017883,764
796.136963,717
796.255981,765
796.375061,727
796.49408,755
796.613037,729
796.732117,709
796.851135,695
796.970154,688
797.089233,700
797.208191,691
797.327271,704
797.446228,676
797.565186,700
797.684265,702
797.803223,648
797.922241,706
798.04126,680
798.160278,667
798.279297,674
798.398315,657
798.517273,656
798.636292,638
798.75531,691
798.874268,653
798.993286,630
799.112244,664
799.231323,673
799.350281,645
799.469238,647
799.588257,632
799.707153,625
799.826111,630
799.945129,668
800.064087,643
800.183044,644
800.302063,642
800.421021,620
800.539978,629
800.658936,625
800.777893,636
800.896912,600
801.015747,631
801.134705,617
801.253723,634
801.37262,614
801.491638,618
801.610535,593
801.729492,611
801.84845,620
801.967407,608
802.086243,594
802.205261,595
802.324158,617
802.443115,594
802.562073,606
802.680969,612
802.799927,603
802.918762,596
803.037659,598
803.156677,613
803.275574,592
803.39447,595
803.513428,587
803.632263,585
803.751221,567
803.870117,575
803.989014,573
804.107971,587
804.226746,595
804.345642,588
804.4646,588
804.583496,590
804.702393,566
804.821228,577
804.940125,564
805.059021,576
805.177917,597
805.296814,576
805.415649,590
805.534546,543
805.653442,577
805.772278,564
805.891113,569
806.01001,582
806.128906,579
806.247742,547
806.366577,554
806.485413,586
806.604309,570
806.723145,563
806.84198,548
806.960876,536
807.079712,552
807.198486,551
807.317383,580
807.436218,570
807.554993,555
807.673889,553
807.792725,561
807.91156,547
808.030396,574
808.14917,564
808.268005,554
808.386841,554
808.505676,526
808.624451,547
808.743286,555
808.862122,536
808.980896,554
809.099731,537
809.218506,541
809.337341,545
809.456116,565
809.57489,557
809.693726,562
809.8125,573
809.931274,557
810.050049,546
810.168884,548
810.287659,538
810.406372,550
810.525269,560
810.643982,541
810.762756,544
810.881531,551
811.000305,550
811.11908,569
811.237854,566
811.356567,564
811.475403,543
811.594116,532
811.71283,546
811.831604,568
811.950378,571
812.069153,540
812.187927,564
812.30658,574
812.425415,561
812.544128,554
812.662781,548
812.781616,546
812.900269,573
813.019043,560
813.137756,560
813.256531,552
813.375244,547
813.493896,561
813.612671,550
813.731384,546
813.850037,554
813.96875,542
814.087524,560
814.206238,543
814.324951,515
814.443604,533
814.562256,553
814.68103,555
814.799683,547
814.918335,550
815.037109,540
815.155762,530
815.274475,515
815.393188,533
815.511841,545
815.630554,540
815.749146,527
815.867859,535
815.986572,573
816.105164,508
816.223877,556
816.342529,548
816.461182,553
816.579895,537
816.698486,539
816.817139,551
816.935791,546
817.054504,551
817.173096,533
817.291748,546
817.4104,560
817.529053,530
817.647644,551
817.766235,548
817.884949,551
818.00354,535
818.122192,514
818.240845,537
818.359436,527
818.478088,542
818.59668,530
818.715271,534
818.833923,535
818.952515,530
819.071106,518
819.189758,525
819.30835,521
819.426941,518
819.545532,509
819.664124,544
819.782715,531
819.901306,520
820.019897,508
820.138489,520
820.25708,508
820.375671,529
820.494202,535
820.612732,528
820.731384,517
820.849915,518
820.968506,531
821.087097,508
821.205627,541
821.324158,528
821.442749,488
821.561279,520
821.679871,510
821.798401,510
821.916931,490
822.035461,528
822.154053,521
822.272583,502
822.391174,518
822.509583,525
822.628174,488
822.746704,504
822.865234,492
822.983765,495
823.102295,504
823.220825,501
823.339294,483
823.457825,496
823.576355,510
823.694824,519
823.813354,500
823.931885,507
824.050354,498
824.168884,503
824.287354,515
824.405823,507
824.524353,495
824.642822,500
824.761353,511
824.879822,525
824.998291,504
825.116699,524
825.235291,507
825.353699,518
825.472168,513
825.590637,480
825.709106,471
825.827576,515
825.946045,505
826.064453,524
826.182983,475
826.301392,500
826.4198,513
826.53833,479
826.656738,503
826.775208,507
826.893677,508
827.012024,509
827.130493,491
827.248962,499
827.36731,512
827.485779,518
827.604248,504
827.722595,494
827.841064,497
827.959412,481
828.077942,507
828.196289,489
828.314636,482
828.433105,485
828.551514,507
828.669861,495
828.78833,476
828.906677,513
829.025085,501
829.143433,508
829.261841,470
829.38031,488
829.498657,497
829.617004,493
829.735413,497
829.85376,496
829.972107,489
830.090515,497
830.208862,496
830.327209,488
830.445557,505
830.563904,501
830.682312,501
830.800659,492
830.919006,494
831.037354,500
831.155701,494
831.274048,511
831.392395,526
831.51062,510
831.629028,502
831.747314,496
831.865662,510
831.984009,497
832.102356,531
832.220642,507
832.338928,500
832.457275,515
832.575623,507
832.693909,508
832.812134,485
832.930481,488
833.048828,502
833.167114,501
833.2854,492
833.403687,517
833.521973,512
833.640259,488
833.758545,520
833.876831,498
833.995056,499
834.113281,510
834.231628,489
834.349915,494
834.468201,493
834.586426,509
834.704651,519
834.822998,498
834.941162,534
835.059448,512
835.177673,508
835.295959,521
835.414246,495
835.53241,532
835.650635,509
835.768921,509
835.887146,491
836.005371,508
836.123596,503
836.241821,487
836.360046,503
836.478271,494
836.596497,487
836.714722,502
836.832886,486
836.95105,480
837.069336,481
837.1875,478
837.305725,496
837.423889,498
837.542053,487
837.660339,491
837.778503,487
837.896667,505
838.014832,511
838.132996,491
838.25116,508
838.369385,500
838.487488,494
838.605713,502
838.723877,505
838.84198,502
838.960205,517
839.078308,490
839.196472,512
839.314636,497
839.4328,522
839.550964,521
839.669067,515
839.787231,515
839.905396,510
840.023499,528
840.141602,514
840.259766,521
840.377869,512
840.495972,526
840.614136,536
840.732239,513
840.850342,523
840.968445,526
841.086548,530
841.204651,536
841.322754,526
841.440918,545
841.55896,538
841.677002,529
841.795166,525
841.913208,520
842.031311,556
842.149353,545
842.267456,536
842.385498,530
842.503601,540
842.621643,528
842.739746,543
842.857788,514
842.97583,538
843.093933,530
843.211975,539
843.330017,520
843.44812,523
843.566101,558
843.684204,532
843.802246,549
843.920227,527
844.038269,523
844.156311,526
844.274292,529
844.392395,527
844.510376,526
844.628357,519
844.74646,534
844.864441,506
844.982422,524
845.100403,533
845.218384,525
845.336426,521
845.454468,527
845.572449,533
845.69043,532
845.808411,519
845.926453,524
846.044373,523
846.162354,526
846.280396,543
846.398315,521
846.516296,540
846.634216,528
846.752197,509
846.870178,540
846.988098,516
847.106079,529
847.22406,520
847.34198,546
847.4599,533
847.577881,539
847.695801,552
847.813782,519
847.931641,524
848.049561,542
848.167603,530
848.285461,520
848.403381,544
848.521362,522
848.639221,543
848.75708,545
848.875,525
848.99292,534
849.110901,557
849.22876,540
849.34668,539
849.464539,533
849.582458,529
849.700317,534
849.818176,520
849.936096,553
850.053955,535
850.171875,538
850.289673,534
850.407593,532
850.525452,538
850.643311,520
850.761169,517
850.878967,512
850.996887,533
851.114746,521
851.232544,525
851.350403,517
851.468262,509
851.58606,550
851.703979,517
851.821777,527
851.939636,512
852.057434,538
852.175232,532
852.293091,531
852.410889,550
852.528687,540
852.646545,556
852.764343,573
852.88208,564
852.999939,544
853.117676,560
853.235535,534
853.353271,526
853.471069,530
853.588928,528
853.706604,509
853.824402,534
853.9422,532
854.059998,543
854.177734,527
854.295532,538
854.413269,547
854.531006,542
854.648804,559
854.766541,543
854.884277,549
855.002014,527
855.119751,523
855.237549,519
855.355225,522
855.473022,537
855.590698,545
855.708435,549
855.826172,545
855.943848,523
856.061646,529
856.179321,556
856.296997,551
856.414795,541
856.53241,534
856.650085,552
856.767822,551
856.885559,546
857.003174,552
857.120911,576
857.238586,530
857.356201,552
857.473938,544
857.591614,534
857.709351,557
857.826965,542
857.944641,533
858.062317,541
858.179993,535
858.297668,542
858.415283,529
858.532959,546
858.650574,570
858.768188,526
858.885803,550
859.003479,540
859.121094,541
859.23877,552
859.356384,531
859.473999,546
859.591675,530
859.709229,531
859.826843,520
859.944458,552
860.062012,526
860.179626,517
860.297302,529
860.414856,541
860.532471,533
860.650024,509
860.767639,525
860.885193,522
861.002808,539
861.120361,546
861.237976,502
861.35553,529
861.473022,520
861.590698,530
861.708191,517
861.825745,524
861.943298,531
862.060852,520
862.178406,516
862.295959,514
862.413513,519
862.531006,499
862.64856,523
862.766113,506
862.883667,496
863.00116,503
863.118713,498
863.236206,494
863.353699,483
863.471252,513
863.588745,517
863.706177,489
863.82373,512
863.941162,522
864.058716,551
864.176208,515
864.29364,521
864.411194,504
864.528687,505
864.646118,507
864.763611,493
864.881042,513
864.998535,488
865.116028,514
865.233459,516
865.350891,509
865.468384,515
865.585754,511
865.703308,508
865.820679,507
865.938171,507
866.055542,484
866.173035,510
866.290466,490
866.407837,516
866.52533,524
866.6427,506
866.760071,499
866.877563,485
866.994934,505
867.112305,508
867.229736,511
867.347107,513
867.464539,498
867.58197,517
867.699341,503
867.81665,529
867.934082,528
868.051453,535
868.168823,519
868.286194,509
868.403564,524
868.520935,529
868.638306,516
868.755676,517
868.872986,534
868.990295,523
869.107727,524
869.225037,521
869.342346,503
869.459717,538
869.577026,501
869.694336,543
869.811707,537
869.929016,541
870.046326,523
870.163635,542
870.280945,536
870.398254,558
870.515564,542
870.632812,524
870.750183,527
870.867432,560
870.984741,565
871.102051,538
871.219299,568
871.336609,556
871.453918,558
871.571106,559
871.688416,564
871.805664,543
871.922852,564
872.040222,569
872.157471,561
872.274719,577
872.391968,565
872.509155,569
872.626465,547
872.743652,550
872.860962,512
872.978149,556
873.095337,566
873.212646,541
873.329834,540
873.44696,542
873.564209,544
873.681396,554
873.798645,539
873.915894,555
874.03302,548
874.150208,550
874.267456,569
874.384583,552
874.501831,532
874.618958,571
874.736145,561
874.853333,589
874.970459,576
875.087646,592
875.204834,559
875.32196,541
875.439148,564
875.556274,572
875.673401,544
875.790527,548
875.907715,537
876.024841,547
876.141968,534
876.259094,536
876.376282,519
876.493347,543
876.610474,524
876.7276,530
876.844727,537
876.961853,529
877.078918,557
877.195984,529
877.313171,511
877.430237,531
877.547302,537
877.664368,560
877.781433,527
877.898499,532
878.015625,542
878.13269,512
878.249695,497
878.366821,535
878.483887,528
878.600952,523
878.717957,508
878.834961,499
878.952087,511
879.069092,501
879.186157,511
879.303162,524
879.420227,507
879.537231,518
879.654236,512
879.77124,495
879.888306,505
880.005249,506
880.122314,497
880.239319,502
880.356323,505
880.473328,501
880.590271,482
880.707275,486
880.824341,501
880.941284,491
881.058228,498
881.175232,511
881.292236,486
881.40918,489
881.526123,475
881.643066,499
881.760071,502
881.877014,487
881.993958,509
882.11084,495
882.227783,491
882.344727,495
882.46167,513
882.578613,499
882.695618,504
882.812439,517
882.929382,497
883.046326,489
883.163208,504
883.280151,474
883.397034,503
883.513916,493
883.630798,498
883.747742,526
883.864563,532
883.981506,507
884.098389,524
884.21521,505
884.332153,539
884.448975,529
884.565796,520
884.682678,538
884.7995,560
884.916443,544
885.033264,580
885.150085,582
885.266968,592
885.383789,602
885.500671,608
885.617493,600
885.734314,595
885.851196,618
885.967896,605
886.084717,609
886.201599,605
886.318359,592
886.435181,587
886.552002,611
886.668762,607
886.785645,589
886.902344,565
887.019165,590
887.135925,562
887.252747,568
887.369446,561
887.486267,553
887.603027,551
887.719788,550
887.836548,552
887.953247,536
888.070068,519
888.186829,538
888.303528,517
888.420288,520
888.536987,501
888.653687,498
888.770447,504
888.887146,483
889.003967,522
889.120667,476
889.237305,479
889.354065,485
889.470703,469
889.587463,489
889.704163,461
889.820862,490
889.937561,473
890.054199,502
890.170837,485
890.287598,469
890.404236,478
890.520874,470
890.637634,470
890.754211,491
890.87085,494
890.987549,460
891.104187,487
891.220886,471
891.337463,473
891.454102,481
891.57074,487
891.687378,483
891.804077,480
891.920654,478
892.037231,489
892.15387,476
892.270447,497
892.387085,503
892.503723,492
892.6203,493
892.736877,486
892.853516,501
892.970032,492
893.08667,495
893.203186,470
893.319763,488
893.43634,485
893.552917,483
893.669556,485
893.786011,492
893.902588,477
894.019165,468
894.135681,487
894.252197,484
894.368835,502
894.485291,471
894.601868,498
894.718384,475
894.8349,486
894.951355,470
895.067932,482
895.184448,473
895.300964,463
895.417419,485
895.533936,486
895.650452,470
895.766907,471
895.883423,483
895.999878,480
896.116333,472
896.232849,469
896.349304,471
896.465759,470
896.582214,491
896.698669,476
896.815125,460
896.931641,470
897.048035,494
897.164551,472
897.280884,482
897.397339,483
897.513794,490
897.630249,482
897.746582,483
897.863098,486
897.979431,486
898.095886,484
898.212341,488
898.328674,474
898.445129,499
898.561462,476
898.677795,478
898.794312,485
898.910645,478
899.026978,491
899.143433,489
899.259766,494
899.37616,501
899.492493,476
899.608765,492
899.725159,489
899.841553,488
899.957947,500
900.07428,488
900.190552,484
900.306946,499
900.423157,491
900.53949,495
900.655884,500
900.772156,490
900.888489,466
901.004822,499
901.121033,489
901.237366,497
901.353699,491
901.46991,487
901.586304,490
901.702515,498
901.818787,526
901.93512,500
902.051331,522
902.167603,535
902.283875,538
902.400085,531
902.516418,537
902.632629,551
902.74884,539
902.865112,537
902.981384,555
903.097595,547
903.213867,537
903.330017,530
903.446289,551
903.5625,550
903.67865,536
903.794922,529
903.911072,525
904.027344,515
904.143494,530
904.259705,530
904.375916,519
904.492065,510
904.608215,506
904.724426,517
904.840576,500
904.956726,514
905.072876,486
905.189087,488
905.305176,490
905.421387,503
905.537537,479
905.653687,470
905.769775,496
905.885925,486
906.002014,466
906.118164,476
906.234314,473
906.350403,466
906.466492,463
906.582642,492
906.69873,479
906.814758,472
906.930908,474
907.046936,470
907.163086,474
907.279175,481
907.395264,458
907.511353,468
907.62738,469
907.743408,468
907.859497,465
907.975525,461
908.091553,477
908.207703,483
908.32373,462
908.439758,485
908.555786,467
908.671814,458
908.787842,492
908.90387,457
909.019775,470
909.135864,474
909.251892,476
909.367859,486
909.483826,477
909.599854,492
909.715881,485
909.831848,482
909.947815,486
910.063782,484
910.179749,493
910.295776,495
910.411743,480
910.527649,469
910.643616,467
910.759583,469
910.875488,473
910.991455,482
911.107361,493
911.223267,468
911.339294,477
911.4552,469
911.571106,482
911.687073,479
911.802979,479
911.918823,457
912.034729,470
912.150635,473
912.266602,468
912.382446,482
912.498352,454
912.614197,462
912.730103,455
912.846008,456
792.44574,1148
792.56488,1145
792.68396,1218
792.80304,1134
792.92218,1101
793.041199,1037
793.160339,1032
793.279419,1028
793.398499,993
793.517578,952
793.636658,931
793.755737,939
793.874817,960
793.993896,910
794.112976,901
794.232056,863
794.351074,842
794.470215,859
794.589233,842
794.708313,841
794.827393,827
794.946411,807
795.065552,823
795.18457,787
795.303589,802
795.422668,787
795.541687,788
795.660767,759
795.779846,753
795.898865,752
796.017883,752
796.136963,725
796.255981,733
796.375061,736
796.49408,721
796.613037,722
796.732117,709
796.851135,725
796.970154,716
797.089233,692
797.208191,705
797.327271,682
797.446228,677
797.565186,669
797.684265,648
797.803223,643
797.922241,660
798.04126,666
798.160278,666
798.279297,628
798.398315,679
798.517273,653
798.636292,659
798.75531,640
798.874268,666
798.993286,649
799.112244,666
799.231323,635
799.350281,680
799.469238,646
799.588257,651
799.707153,626
799.826111,647
799.945129,651
800.064087,637
800.183044,624
800.302063,640
800.421021,631
800.539978,634
800.658936,622
800.777893,608
800.896912,593
801.015747,632
801.134705,604
801.253723,635
801.37262,604
801.491638,599
801.610535,604
801.729492,621
801.84845,600
801.967407,624
802.086243,625
802.205261,612
802.324158,594
802.443115,609
802.562073,596
802.680969,583
802.799927,594
802.918762,596
803.037659,563
803.156677,605
803.275574,591
803.39447,594
803.513428,595
803.632263,589
803.751221,584
803.870117,593
803.989014,593
804.107971,592
804.226746,580
804.345642,594
804.4646,588
804.583496,593
804.702393,596
804.821228,595
804.940125,562
805.059021,573
805.177917,573
805.296814,563
805.415649,551
805.534546,570
805.653442,574
805.772278,583
805.891113,553
806.01001,559
806.128906,567
806.247742,577
806.366577,551
806.485413,558
806.604309,560
806.723145,566
806.84198,570
806.960876,560
807.079712,574
807.198486,561
807.317383,567
807.436218,562
807.554993,576
807.673889,562
807.792725,544
807.91156,555
808.030396,560
808.14917,537
808.268005,538
808.386841,559
808.505676,540
808.624451,534
808.743286,562
808.862122,551
808.980896,534
809.099731,548
809.218506,558
809.337341,546
809.456116,546
809.57489,552
809.693726,548
809.8125,564
809.931274,553
810.050049,548
810.168884,569
810.287659,554
810.406372,554
810.525269,545
810.643982,572
810.762756,582
810.881531,552
811.000305,547
811.11908,547
811.237854,570
811.356567,547
811.475403,577
811.594116,540
811.71283,555
811.831604,559
811.950378,569
812.069153,575
812.187927,545
812.30658,553
812.425415,562
812.544128,565
812.662781,571
812.781616,576
812.900269,554
813.019043,549
813.137756,536
813.256531,543
813.375244,560
813.493896,551
813.612671,560
813.731384,538
813.850037,547
813.96875,530
814.087524,548
814.206238,534
814.324951,556
814.443604,545
814.562256,571
814.68103,558
814.799683,551
814.918335,535
815.037109,522
815.155762,534
815.274475,538
815.393188,549
815.511841,565
815.630554,539
815.749146,535
815.867859,541
815.986572,532
816.105164,527
816.223877,537
816.342529,544
816.461182,542
816.579895,540
816.698486,549
816.817139,548
816.935791,543
817.054504,548
817.173096,552
817.291748,553
817.4104,566
817.529053,527
817.647644,543
817.766235,552
817.884949,540
818.00354,539
818.122192,531
818.240845,559
818.359436,533
818.478088,507
818.59668,555
818.715271,515
818.833923,544
818.952515,534
819.071106,531
819.189758,518
819.30835,526
819.426941,531
819.545532,534
819.664124,517
819.782715,502
819.901306,523
820.019897,509
820.138489,511
820.25708,512
820.375671,507
820.494202,518
820.612732,526
820.731384,514
820.849915,515
820.968506,507
821.087097,519
821.205627,526
821.324158,521
821.442749,516
821.561279,514
821.679871,507
821.798401,511
821.916931,515
822.035461,510
822.154053,520
822.272583,510
822.391174,494
822.509583,508
822.628174,513
822.746704,492
822.865234,491
822.983765,517
823.102295,502
823.220825,486
823.339294,527
823.457825,512
823.576355,512
823.694824,513
823.813354,515
823.931885,495
824.050354,512
824.168884,486
824.287354,492
824.405823,491
824.524353,494
824.642822,485
824.761353,511
824.879822,481
824.998291,516
825.116699,514
825.235291,527
825.353699,500
825.472168,501
825.590637,521
825.709106,504
825.827576,503
825.946045,523
826.064453,499
826.182983,517
826.301392,496
826.4198,498
826.53833,497
826.656738,491
826.775208,490
826.893677,491
827.012024,499
827.130493,487
827.248962,480
827.36731,497
827.485779,513
827.604248,523
827.722595,506
827.841064,490
827.959412,494
828.077942,509
828.196289,500
828.314636,511
828.433105,492
828.551514,488
828.669861,480
828.78833,501
828.906677,503
829.025085,499
829.143433,484
829.261841,487
829.38031,489
829.498657,514
829.617004,502
829.735413,489
829.85376,490
829.972107,498
830.090515,487
830.208862,482
830.327209,491
830.445557,501
830.563904,490
830.682312,508
830.800659,485
830.919006,497
831.037354,498
831.155701,499
831.274048,501
831.392395,530
831.51062,495
831.629028,487
831.747314,500
831.865662,492
831.984009,498
832.102356,495
832.220642,507
832.338928,508
832.457275,511
832.575623,507
832.693909,502
832.812134,506
832.930481,493
833.048828,516
833.167114,499
833.2854,496
833.403687,510
833.521973,510
833.640259,507
833.758545,508
833.876831,494
833.995056,503
834.113281,503
834.231628,493
834.349915,500
834.468201,493
834.586426,491
834.704651,525
834.822998,501
834.941162,495
835.059448,502
835.177673,502
835.295959,518
835.414246,525
835.53241,480
835.650635,544
835.768921,507
835.887146,499
836.005371,518
836.123596,503
836.241821,499
836.360046,480
836.478271,520
836.596497,489
836.714722,491
836.832886,492
836.95105,486
837.069336,507
837.1875,497
837.305725,488
837.423889,462
837.542053,488
837.660339,508
837.778503,513
837.896667,508
838.014832,505
838.132996,487
838.25116,494
838.369385,514
838.487488,512
838.605713,494
838.723877,502
838.84198,501
838.960205,514
839.078308,502
839.196472,520
839.314636,501
839.4328,524
839.550964,504
839.669067,518
839.787231,537
839.905396,498
840.023499,533
840.141602,524
840.259766,554
840.377869,513
840.495972,529
840.614136,538
840.732239,508
840.850342,537
840.968445,540
841.086548,513
841.204651,544
841.322754,524
841.440918,555
841.55896,552
841.677002,563
841.795166,552
841.913208,536
842.031311,538
842.149353,525
842.267456,530
842.385498,520
842.503601,529
842.621643,548
842.739746,533
842.857788,538
842.97583,573
843.093933,538
843.211975,526
843.330017,522
843.44812,500
843.566101,544
843.684204,549
843.802246,535
843.920227,550
844.038269,547
844.156311,551
844.274292,542
844.392395,577
844.510376,518
844.628357,524
844.74646,532
844.864441,543
844.982422,510
845.100403,534
845.218384,540
845.336426,538
845.454468,521
845.572449,528
845.69043,517
845.808411,525
845.926453,537
846.044373,549
846.162354,523
846.280396,525
846.398315,536
846.516296,539
846.634216,538
846.752197,528
846.870178,526
846.988098,524
847.106079,560
847.22406,549
847.34198,549
847.4599,538
847.577881,540
847.695801,545
847.813782,532
847.931641,520
848.049561,536
848.167603,531
848.285461,531
848.403381,533
848.521362,528
848.639221,568
848.75708,539
848.875,541
848.99292,551
849.110901,543
849.22876,547
849.34668,546
849.464539,548
849.582458,549
849.700317,544
849.818176,527
849.936096,541
850.053955,542
850.171875,561
850.289673,520
850.407593,543
850.525452,549
850.643311,539
850.761169,542
850.878967,525
850.996887,533
851.114746,531
851.232544,534
851.350403,502
851.468262,535
851.58606,538
851.703979,503
851.821777,532
851.939636,556
852.057434,526
852.175232,537
852.293091,539
852.410889,551
852.528687,552
852.646545,551
852.764343,554
852.88208,575
852.999939,548
853.117676,539
853.235535,538
853.353271,541
853.471069,543
853.588928,538
853.706604,541
853.824402,526
853.9422,517
854.059998,538
854.177734,542
854.295532,530
854.413269,537
854.531006,534
854.648804,528
854.766541,519
854.884277,554
855.002014,520
855.119751,520
855.237549,536
855.355225,518
855.473022,541
855.590698,535
855.708435,537
855.826172,538
855.943848,550
856.061646,543
856.179321,549
856.296997,538
856.414795,549
856.53241,522
856.650085,528
856.767822,516
856.885559,541
857.003174,545
857.120911,549
857.238586,561
857.356201,563
857.473938,559
857.591614,525
857.709351,549
857.826965,554
857.944641,543
858.062317,551
858.179993,548
858.297668,556
858.415283,523
858.532959,538
858.650574,534
858.768188,553
858.885803,553
859.003479,547
859.121094,545
859.23877,524
859.356384,552
859.473999,544
859.591675,535
859.709229,529
859.826843,517
859.944458,540
860.062012,518
860.179626,532
860.297302,505
860.414856,528
860.532471,518
860.650024,524
860.767639,531
860.885193,530
861.002808,550
861.120361,532
861.237976,515
861.35553,516
861.473022,522
861.590698,540
861.708191,540
861.825745,522
861.943298,511
862.060852,506
862.178406,507
862.295959,501
862.413513,500
862.531006,527
862.64856,505
862.766113,508
862.883667,492
863.00116,510
863.118713,503
863.236206,530
863.353699,504
863.471252,518
863.588745,513
863.706177,524
863.82373,520
863.941162,523
864.058716,531
864.176208,508
864.29364,518
864.411194,515
864.528687,508
864.646118,514
864.763611,505
864.881042,508
864.998535,525
865.116028,515
865.233459,504
865.350891,501
865.468384,518
865.585754,494
865.703308,496
865.820679,509
865.938171,517
866.055542,504
866.173035,510
866.290466,507
866.407837,510
866.52533,502
866.6427,517
866.760071,503
866.877563,506
866.994934,511
867.112305,511
867.229736,526
867.347107,534
867.464539,520
867.58197,520
867.699341,538
867.81665,519
867.934082,524
868.051453,522
868.168823,534
868.286194,515
868.403564,511
868.520935,496
868.638306,528
868.755676,499
868.872986,526
868.990295,530
869.107727,501
869.225037,529
869.342346,507
869.459717,523
869.577026,543
869.694336,528
869.811707,527
869.929016,532
870.046326,536
870.163635,544
870.280945,524
870.398254,525
870.515564,548
870.632812,544
870.750183,562
870.867432,571
870.984741,557
871.102051,544
871.219299,541
871.336609,564
871.453918,552
871.571106,559
871.688416,548
871.805664,536
871.922852,542
872.040222,544
872.157471,557
872.274719,555
872.391968,576
872.509155,551
872.626465,547
872.743652,553
872.860962,554
872.978149,561
873.095337,543
873.212646,553
873.329834,550
873.44696,515
873.564209,544
873.681396,563
873.798645,541
873.915894,559
874.03302,560
874.150208,535
874.267456,546
874.384583,546
874.501831,565
874.618958,553
874.736145,556
874.853333,582
874.970459,569
875.087646,557
875.204834,563
875.32196,547
875.439148,556
875.556274,537
875.673401,561
875.790527,550
875.907715,549
876.024841,529
876.141968,517
876.259094,528
876.376282,541
876.493347,542
876.610474,537
876.7276,524
876.844727,529
876.961853,522
877.078918,536
877.195984,538
877.313171,559
877.430237,521
877.547302,559
877.664368,521
877.781433,547
877.898499,534
878.015625,540
878.13269,498
878.249695,537
878.366821,531
878.483887,527
878.600952,510
878.717957,517
878.834961,493
878.952087,528
879.069092,517
879.186157,512
879.303162,494
879.420227,517
879.537231,527
879.654236,516
879.77124,474
879.888306,508
880.005249,498
880.122314,512
880.239319,503
880.356323,490
880.473328,495
880.590271,499
880.707275,509
880.824341,507
880.941284,520
881.058228,505
881.175232,508
881.292236,504
881.40918,504
881.526123,489
881.643066,498
881.760071,502
881.877014,517
881.993958,509
882.11084,480
882.227783,513
882.344727,502
882.46167,508
882.578613,496
882.695618,482
882.812439,490
882.929382,503
883.046326,496
883.163208,498
883.280151,506
883.397034,520
883.513916,502
883.630798,495
883.747742,499
883.864563,519
883.981506,507
884.098389,514
884.21521,529
884.332153,536
884.448975,535
884.565796,553
884.682678,543
884.7995,540
884.916443,566
885.033264,568
885.150085,568
885.266968,584
885.383789,613
885.500671,630
885.617493,644
885.734314,613
885.851196,630
885.967896,596
886.084717,618
886.201599,593
886.318359,600
886.435181,596
886.552002,582
886.668762,577
886.785645,607
886.902344,576
887.019165,577
887.135925,588
887.252747,571
887.369446,576
887.486267,558
887.603027,556
887.719788,544
887.836548,568
887.953247,529
888.070068,532
888.186829,510
888.303528,524
888.420288,519
888.536987,500
888.653687,488
888.770447,507
888.887146,505
889.003967,471
889.120667,488
889.237305,492
889.354065,480
889.470703,477
889.587463,470
889.704163,479
889.820862,476
889.937561,479
890.054199,480
890.170837,483
890.287598,485
890.404236,499
890.520874,470
890.637634,503
890.754211,480
890.87085,466
890.987549,465
891.104187,495
891.220886,477
891.337463,471
891.454102,468
891.57074,486
891.687378,495
891.804077,487
891.920654,485
892.037231,499
892.15387,503
892.270447,486
892.387085,486
892.503723,484
892.6203,475
892.736877,487
892.853516,507
892.970032,500
893.08667,502
893.203186,483
893.319763,482
893.43634,503
893.552917,491
893.669556,498
893.786011,474
893.902588,479
894.019165,470
894.135681,494
894.252197,476
894.368835,482
894.485291,476
894.601868,498
894.718384,484
894.8349,498
894.951355,487
895.067932,478
895.184448,470
895.300964,484
895.417419,476
895.533936,482
895.650452,477
895.766907,488
895.883423,474
895.999878,466
896.116333,483
896.232849,490
896.349304,468
896.465759,489
896.582214,473
896.698669,494
896.815125,471
896.931641,479
897.048035,507
897.164551,471
897.280884,498
897.397339,480
897.513794,471
897.630249,500
897.746582,490
897.863098,490
897.979431,491
898.095886,497
898.212341,501
898.328674,475
898.445129,475
898.561462,494
898.677795,500
898.794312,487
898.910645,493
899.026978,492
899.143433,491
899.259766,474
899.37616,480
899.492493,509
899.608765,492
899.725159,491
899.841553,485
899.957947,482
900.07428,490
900.190552,494
900.306946,479
900.423157,483
900.53949,495
900.655884,485
900.772156,494
900.888489,486
901.004822,492
901.121033,485
901.237366,483
901.353699,505
901.46991,492
901.586304,511
901.702515,494
901.818787,505
901.93512,517
902.051331,504
902.167603,534
902.283875,522
902.400085,541
902.516418,561
902.632629,525
902.74884,571
902.865112,549
902.981384,561
903.097595,523
903.213867,552
903.330017,540
903.446289,541
903.5625,518
903.67865,534
903.794922,540
903.911072,536
904.027344,524
904.143494,526
904.259705,512
904.375916,516
904.492065,511
904.608215,503
904.724426,505
904.840576,492
904.956726,485
905.072876,505
905.189087,498
905.305176,510
905.421387,491
905.537537,491
905.653687,495
905.769775,494
905.885925,500
906.002014,490
906.118164,476
906.234314,477
906.350403,486
906.466492,490
906.582642,493
906.69873,493
906.814758,477
906.930908,477
907.046936,481
907.163086,487
907.279175,463
907.395264,478
907.511353,460
907.62738,474
907.743408,479
907.859497,475
907.975525,484
908.091553,480
908.207703,468
908.32373,467
908.439758,465
908.555786,476
908.671814,471
908.787842,476
908.90387,491
909.019775,486
909.135864,475
909.251892,486
909.367859,481
909.483826,485
909.599854,445
909.715881,493
909.831848,489
909.947815,462
910.063782,494
910.179749,487
910.295776,492
910.411743,468
910.527649,472
910.643616,475
910.759583,462
910.875488,491
910.991455,492
911.107361,487
911.223267,460
911.339294,465
911.4552,492
911.571106,471
911.687073,468
911.802979,478
911.918823,472
912.034729,488
912.150635,484
912.266602,465
912.382446,461
912.498352,486
912.614197,453
912.730103,458
912.846008,462
