792.44574,610
792.56488,671
792.68396,698
792.80304,653
792.92218,609
793.041199,591
793.160339,584
793.279419,630
793.398499,642
793.517578,615
793.636658,602
793.755737,601
793.874817,636
793.993896,611
794.112976,588
794.232056,605
794.351074,581
794.470215,607
794.589233,582
794.708313,566
794.827393,623
794.946411,605
795.065552,589
795.18457,586
795.303589,583
795.422668,565
795.541687,570
795.660767,588
795.779846,566
795.898865,579
796.017883,594
796.136963,590
796.255981,579
796.375061,606
796.49408,571
796.613037,575
796.732117,599
796.851135,598
796.970154,593
797.089233,576
797.208191,572
797.327271,557
797.446228,572
797.565186,595
797.684265,576
797.803223,585
797.922241,582
798.04126,578
798.160278,582
798.279297,567
798.398315,572
798.517273,574
798.636292,578
798.75531,588
798.874268,561
798.993286,568
799.112244,570
799.231323,560
799.350281,570
799.469238,555
799.588257,567
799.707153,595
799.826111,582
799.945129,592
800.064087,570
800.183044,602
800.302063,597
800.421021,581
800.539978,559
800.658936,579
800.777893,575
800.896912,593
801.015747,587
801.134705,580
801.253723,575
801.37262,584
801.491638,576
801.610535,594
801.729492,589
801.84845,577
801.967407,566
802.086243,597
802.205261,605
802.324158,567
802.443115,575
802.562073,592
802.680969,588
802.799927,594
802.918762,568
803.037659,592
803.156677,581
803.275574,589
803.39447,625
803.513428,594
803.632263,568
803.751221,598
803.870117,590
803.989014,605
804.107971,595
804.226746,599
804.345642,611
804.4646,599
804.583496,616
804.702393,602
804.821228,609
804.940125,582
805.059021,590
805.177917,609
805.296814,608
805.415649,618
805.534546,610
805.653442,607
805.772278,610
805.891113,581
806.01001,623
806.128906,610
806.247742,600
806.366577,629
806.485413,617
806.604309,603
806.723145,634
806.84198,620
806.960876,616
807.079712,622
807.198486,610
807.317383,621
807.436218,617
807.554993,613
807.673889,595
807.792725,616
807.91156,602
808.030396,609
808.14917,586
808.268005,626
808.386841,630
808.505676,618
808.624451,632
808.743286,634
808.862122,610
808.980896,620
809.099731,631
809.218506,621
809.337341,608
809.456116,613
809.57489,635
809.693726,625
809.8125,626
809.931274,632
810.050049,627
810.168884,608
810.287659,609
810.406372,626
810.525269,626
810.643982,603
810.762756,609
810.881531,639
811.000305,621
811.11908,609
811.237854,619
811.356567,635
811.475403,611
811.594116,637
811.71283,622
811.831604,626
811.950378,639
812.069153,654
812.187927,630
812.30658,637
812.425415,617
812.544128,632
812.662781,654
812.781616,620
812.900269,623
813.019043,629
813.137756,613
813.256531,646
813.375244,627
813.493896,633
813.612671,625
813.731384,611
813.850037,649
813.96875,623
814.087524,616
814.206238,634
814.324951,602
814.443604,629
814.562256,609
814.68103,595
814.799683,619
814.918335,622
815.037109,621
815.155762,633
815.274475,634
815.393188,638
815.511841,613
815.630554,606
815.749146,636
815.867859,600
815.986572,593
816.105164,628
816.223877,604
816.342529,629
816.461182,617
816.579895,634
816.698486,586
816.817139,651
816.935791,600
817.054504,623
817.173096,596
817.291748,611
817.4104,606
817.529053,609
817.647644,593
817.766235,594
817.884949,569
818.00354,568
818.122192,570
818.240845,576
818.359436,592
818.478088,550
818.59668,549
818.715271,544
818.833923,508
818.952515,550
819.071106,531
819.189758,540
819.30835,516
819.426941,506
819.545532,495
819.664124,498
819.782715,511
819.901306,498
820.019897,501
820.138489,476
820.25708,495
820.375671,493
820.494202,504
820.612732,490
820.731384,491
820.849915,488
820.968506,483
821.087097,491
821.205627,489
821.324158,479
821.442749,509
821.561279,485
821.679871,485
821.798401,487
821.916931,488
822.035461,488
822.154053,477
822.272583,491
822.391174,491
822.509583,492
822.628174,472
822.746704,472
822.865234,489
822.983765,482
823.102295,492
823.220825,489
823.339294,476
823.457825,486
823.576355,486
823.694824,468
823.813354,477
823.931885,487
824.050354,494
824.168884,501
824.287354,508
824.405823,511
824.524353,480
824.642822,493
824.761353,498
824.879822,487
824.998291,496
825.116699,503
825.235291,479
825.353699,508
825.472168,452
825.590637,498
825.709106,479
825.827576,472
825.946045,460
826.064453,497
826.182983,491
826.301392,467
826.4198,472
826.53833,494
826.656738,478
826.775208,474
826.893677,463
827.012024,486
827.130493,470
827.248962,456
827.36731,456
827.485779,466
827.604248,470
827.722595,465
827.841064,450
827.959412,461
828.077942,470
828.196289,443
828.314636,467
828.433105,454
828.551514,475
828.669861,466
828.78833,472
828.906677,464
829.025085,455
829.143433,460
829.261841,465
829.38031,460
829.498657,460
829.617004,460
829.735413,456
829.85376,461
829.972107,461
830.090515,468
830.208862,449
830.327209,437
830.445557,457
830.563904,443
830.682312,456
830.800659,456
830.919006,478
831.037354,464
831.155701,456
831.274048,483
831.392395,471
831.51062,454
831.629028,450
831.747314,458
831.865662,435
831.984009,458
832.102356,436
832.220642,466
832.338928,471
832.457275,443
832.575623,461
832.693909,447
832.812134,450
832.930481,455
833.048828,443
833.167114,455
833.2854,460
833.403687,466
833.521973,456
833.640259,449
833.758545,458
833.876831,456
833.995056,445
834.113281,464
834.231628,455
834.349915,459
834.468201,460
834.586426,456
834.704651,472
834.822998,455
834.941162,465
835.059448,447
835.177673,456
835.295959,469
835.414246,467
835.53241,446
835.650635,452
835.768921,475
835.887146,462
836.005371,453
836.123596,452
836.241821,448
836.360046,461
836.478271,457
836.596497,467
836.714722,474
836.832886,462
836.95105,453
837.069336,481
837.1875,484
837.305725,472
837.423889,483
837.542053,459
837.660339,476
837.778503,451
837.896667,457
838.014832,471
838.132996,471
838.25116,463
838.369385,483
838.487488,469
838.605713,473
838.723877,463
838.84198,480
838.960205,457
839.078308,479
839.196472,465
839.314636,462
839.4328,466
839.550964,455
839.669067,486
839.787231,466
839.905396,450
840.023499,481
840.141602,475
840.259766,449
840.377869,471
840.495972,480
840.614136,466
840.732239,479
840.850342,469
840.968445,469
841.086548,442
841.204651,460
841.322754,470
841.440918,464
841.55896,458
841.677002,451
841.795166,432
841.913208,459
842.031311,468
842.149353,472
842.267456,448
842.385498,453
842.503601,470
842.621643,459
842.739746,469
842.857788,441
842.97583,463
843.093933,451
843.211975,449
843.330017,445
843.44812,448
843.566101,442
843.684204,448
843.802246,449
843.920227,467
844.038269,458
844.156311,448
844.274292,445
844.392395,437
844.510376,460
844.628357,417
844.74646,468
844.864441,444
844.982422,446
845.100403,450
845.218384,438
845.336426,450
845.454468,452
845.572449,432
845.69043,475
845.808411,450
845.926453,450
846.044373,447
846.162354,445
846.280396,454
846.398315,453
846.516296,440
846.634216,450
846.752197,441
846.870178,443
846.988098,443
847.106079,441
847.22406,443
847.34198,470
847.4599,441
847.577881,441
847.695801,451
847.813782,440
847.931641,438
848.049561,436
848.167603,443
848.285461,468
848.403381,444
848.521362,464
848.639221,454
848.75708,443
848.875,436
848.99292,448
849.110901,447
849.22876,467
849.34668,436
849.464539,453
849.582458,468
849.700317,443
849.818176,443
849.936096,451
850.053955,455
850.171875,459
850.289673,445
850.407593,449
850.525452,429
850.643311,466
850.761169,443
850.878967,432
850.996887,466
851.114746,451
851.232544,430
851.350403,442
851.468262,461
851.58606,442
851.703979,450
851.821777,446
851.939636,444
852.057434,454
852.175232,444
852.293091,458
852.410889,448
852.528687,457
852.646545,439
852.764343,466
852.88208,458
852.999939,442
853.117676,470
853.235535,442
853.353271,463
853.471069,441
853.588928,467
853.706604,451
853.824402,438
853.9422,454
854.059998,452
854.177734,450
854.295532,433
854.413269,457
854.531006,447
854.648804,462
854.766541,463
854.884277,464
855.002014,447
855.119751,437
855.237549,441
855.355225,464
855.473022,471
855.590698,456
855.708435,461
855.826172,448
855.943848,436
856.061646,462
856.179321,440
856.296997,455
856.414795,460
856.53241,458
856.650085,448
856.767822,459
856.885559,454
857.003174,446
857.120911,458
857.238586,441
857.356201,447
857.473938,459
857.591614,457
857.709351,458
857.826965,451
857.944641,444
858.062317,434
858.179993,461
858.297668,451
858.415283,461
858.532959,434
858.650574,462
858.768188,449
858.885803,450
859.003479,440
859.121094,458
859.23877,442
859.356384,458
859.473999,444
859.591675,435
859.709229,451
859.826843,446
859.944458,453
860.062012,450
860.179626,456
860.297302,434
860.414856,463
860.532471,445
860.650024,429
860.767639,442
860.885193,438
861.002808,448
861.120361,456
861.237976,446
861.35553,435
861.473022,453
861.590698,457
861.708191,440
861.825745,451
861.943298,456
862.060852,448
862.178406,456
862.295959,465
862.413513,456
862.531006,453
862.64856,455
862.766113,441
862.883667,460
863.00116,458
863.118713,447
863.236206,462
863.353699,469
863.471252,426
863.588745,448
863.706177,444
863.82373,454
863.941162,464
864.058716,466
864.176208,434
864.29364,451
864.411194,437
864.528687,460
864.646118,451
864.763611,468
864.881042,455
864.998535,451
865.116028,442
865.233459,449
865.350891,462
865.468384,446
865.585754,450
865.703308,450
865.820679,454
865.938171,456
866.055542,462
866.173035,446
866.290466,451
866.407837,449
866.52533,452
866.6427,463
866.760071,439
866.877563,450
866.994934,449
867.112305,459
867.229736,444
867.347107,444
867.464539,448
867.58197,459
867.699341,445
867.81665,460
867.934082,446
868.051453,463
868.168823,443
868.286194,455
868.403564,452
868.520935,448
868.638306,452
868.755676,443
868.872986,464
868.990295,461
869.107727,445
869.225037,454
869.342346,445
869.459717,455
869.577026,451
869.694336,451
869.811707,469
869.929016,468
870.046326,468
870.163635,454
870.280945,439
870.398254,447
870.515564,426
870.632812,455
870.750183,456
870.867432,434
870.984741,466
871.102051,446
871.219299,460
871.336609,458
871.453918,438
871.571106,475
871.688416,457
871.805664,438
871.922852,460
872.040222,455
872.157471,443
872.274719,446
872.391968,431
872.509155,442
872.626465,434
872.743652,448
872.860962,442
872.978149,446
873.095337,443
873.212646,454
873.329834,459
873.44696,447
873.564209,440
873.681396,450
873.798645,452
873.915894,461
874.03302,462
874.150208,445
874.267456,437
874.384583,441
874.501831,465
874.618958,444
874.736145,471
874.853333,451
874.970459,431
875.087646,473
875.204834,455
875.32196,432
875.439148,441
875.556274,451
875.673401,457
875.790527,447
875.907715,454
876.024841,453
876.141968,457
876.259094,477
876.376282,425
876.493347,439
876.610474,464
876.7276,457
876.844727,447
876.961853,481
877.078918,440
877.195984,455
877.313171,454
877.430237,456
877.547302,445
877.664368,465
877.781433,438
877.898499,450
878.015625,439
878.13269,450
878.249695,441
878.366821,464
878.483887,455
878.600952,448
878.717957,439
878.834961,445
878.952087,468
879.069092,432
879.186157,435
879.303162,458
879.420227,451
879.537231,426
879.654236,457
879.77124,461
879.888306,447
880.005249,470
880.122314,431
880.239319,458
880.356323,453
880.473328,441
880.590271,456
880.707275,449
880.824341,452
880.941284,433
881.058228,456
881.175232,458
881.292236,459
881.40918,453
881.526123,447
881.643066,444
881.760071,447
881.877014,464
881.993958,434
882.11084,459
882.227783,447
882.344727,452
882.46167,453
882.578613,441
882.695618,455
882.812439,466
882.929382,433
883.046326,449
883.163208,459
883.280151,452
883.397034,436
883.513916,447
883.630798,452
883.747742,454
883.864563,450
883.981506,450
884.098389,457
884.21521,458
884.332153,444
884.448975,434
884.565796,466
884.682678,478
884.7995,434
884.916443,458
885.033264,447
885.150085,446
885.266968,467
885.383789,457
885.500671,445
885.617493,459
885.734314,460
885.851196,464
885.967896,446
886.084717,460
886.201599,457
886.318359,458
886.435181,460
886.552002,457
886.668762,452
886.785645,453
886.902344,451
887.019165,481
887.135925,446
887.252747,455
887.369446,458
887.486267,466
887.603027,463
887.719788,452
887.836548,424
887.953247,461
888.070068,455
888.186829,474
888.303528,452
888.420288,473
888.536987,448
888.653687,453
888.770447,450
888.887146,461
889.003967,448
889.120667,454
889.237305,453
889.354065,461
889.470703,466
889.587463,460
889.704163,456
889.820862,469
889.937561,455
890.054199,451
890.170837,479
890.287598,463
890.404236,441
890.520874,457
890.637634,467
890.754211,461
890.87085,453
890.987549,446
891.104187,455
891.220886,462
891.337463,455
891.454102,469
891.57074,437
891.687378,453
891.804077,455
891.920654,455
892.037231,447
892.15387,463
892.270447,452
892.387085,447
892.503723,448
892.6203,454
892.736877,463
892.853516,466
892.970032,465
893.08667,461
893.203186,460
893.319763,450
893.43634,448
893.552917,454
893.669556,460
893.786011,451
893.902588,454
894.019165,455
894.135681,467
894.252197,463
894.368835,472
894.485291,461
894.601868,462
894.718384,452
894.8349,456
894.951355,460
895.067932,456
895.184448,473
895.300964,461
895.417419,460
895.533936,445
895.650452,467
895.766907,465
895.883423,487
895.999878,447
896.116333,450
896.232849,423
896.349304,454
896.465759,452
896.582214,459
896.698669,462
896.815125,473
896.931641,461
897.048035,466
897.164551,449
897.280884,468
897.397339,456
897.513794,451
897.630249,453
897.746582,464
897.863098,458
897.979431,486
898.095886,455
898.212341,464
898.328674,462
898.445129,460
898.561462,455
898.677795,460
898.794312,469
898.910645,463
899.026978,469
899.143433,450
899.259766,451
899.37616,457
899.492493,474
899.608765,459
899.725159,451
899.841553,450
899.957947,456
900.07428,465
900.190552,447
900.306946,459
900.423157,466
900.53949,449
900.655884,468
900.772156,465
900.888489,453
901.004822,470
901.121033,450
901.237366,465
901.353699,452
901.46991,464
901.586304,468
901.702515,457
901.818787,456
901.93512,451
902.051331,451
902.167603,474
902.283875,474
902.400085,444
902.516418,470
902.632629,476
902.74884,480
902.865112,451
902.981384,457
903.097595,461
903.213867,455
903.330017,475
903.446289,455
903.5625,462
903.67865,460
903.794922,460
903.911072,444
904.027344,477
904.143494,464
904.259705,482
904.375916,465
904.492065,464
904.608215,463
904.724426,462
904.840576,473
904.956726,461
905.072876,468
905.189087,476
905.305176,446
905.421387,457
905.537537,465
905.653687,443
905.769775,449
905.885925,445
906.002014,471
906.118164,464
906.234314,454
906.350403,473
906.466492,463
906.582642,468
906.69873,462
906.814758,479
906.930908,468
907.046936,471
907.163086,457
907.279175,464
907.395264,462
907.511353,477
907.62738,460
907.743408,463
907.859497,493
907.975525,463
908.091553,487
908.207703,476
908.32373,459
908.439758,471
908.555786,475
908.671814,476
908.787842,467
908.90387,458
909.019775,448
909.135864,454
909.251892,463
909.367859,464
909.483826,467
909.599854,471
909.715881,459
909.831848,474
909.947815,460
910.063782,456
910.179749,460
910.295776,460
910.411743,460
910.527649,465
910.643616,462
910.759583,470
910.875488,455
910.991455,479
911.107361,481
911.223267,469
911.339294,454
911.4552,473
911.571106,455
911.687073,460
911.802979,451
911.918823,479
912.034729,468
912.150635,455
912.266602,466
912.382446,456
912.498352,460
912.614197,481
912.730103,468
912.846008,469
792.44574,664
792.56488,657
792.68396,682
792.80304,668
792.92218,596
793.041199,612
793.160339,607
793.279419,648
793.398499,614
793.517578,614
793.636658,599
793.755737,610
793.874817,617
793.993896,630
794.112976,586
794.232056,611
794.351074,597
794.470215,569
794.589233,603
794.708313,613
794.827393,579
794.946411,610
795.065552,604
795.18457,597
795.303589,608
795.422668,584
795.541687,587
795.660767,606
795.779846,596
795.898865,592
796.017883,589
796.136963,592
796.255981,583
796.375061,580
796.49408,576
796.613037,611
796.732117,575
796.851135,598
796.970154,572
797.089233,584
797.208191,569
797.327271,591
797.446228,578
797.565186,580
797.684265,598
797.803223,587
797.922241,587
798.04126,574
798.160278,602
798.279297,588
798.398315,599
798.517273,587
798.636292,595
798.75531,563
798.874268,570
798.993286,557
799.112244,581
799.231323,592
799.350281,591
799.469238,592
799.588257,597
799.707153,595
799.826111,595
799.945129,599
800.064087,587
800.183044,607
800.302063,587
800.421021,589
800.539978,588
800.658936,581
800.777893,597
800.896912,601
801.015747,593
801.134705,567
801.253723,561
801.37262,564
801.491638,603
801.610535,590
801.729492,598
801.84845,576
801.967407,583
802.086243,594
802.205261,568
802.324158,590
802.443115,579
802.562073,590
802.680969,606
802.799927,612
802.918762,598
803.037659,586
803.156677,604
803.275574,606
803.39447,590
803.513428,598
803.632263,577
803.751221,581
803.870117,577
803.989014,613
804.107971,618
804.226746,598
804.345642,598
804.4646,598
804.583496,598
804.702393,595
804.821228,634
804.940125,573
805.059021,616
805.177917,599
805.296814,590
805.415649,603
805.534546,613
805.653442,625
805.772278,607
805.891113,625
806.01001,612
806.128906,609
806.247742,614
806.366577,604
806.485413,599
806.604309,638
806.723145,613
806.84198,631
806.960876,608
807.079712,595
807.198486,611
807.317383,614
807.436218,597
807.554993,635
807.673889,613
807.792725,640
807.91156,617
808.030396,608
808.14917,604
808.268005,604
808.386841,607
808.505676,617
808.624451,641
808.743286,631
808.862122,615
808.980896,628
809.099731,616
809.218506,623
809.337341,619
809.456116,634
809.57489,626
809.693726,621
809.8125,631
809.931274,625
810.050049,646
810.168884,651
810.287659,621
810.406372,616
810.525269,633
810.643982,651
810.762756,639
810.881531,643
811.000305,637
811.11908,638
811.237854,643
811.356567,627
811.475403,629
811.594116,643
811.71283,639
811.831604,645
811.950378,651
812.069153,641
812.187927,661
812.30658,612
812.425415,640
812.544128,616
812.662781,620
812.781616,626
812.900269,647
813.019043,607
813.137756,630
813.256531,633
813.375244,613
813.493896,645
813.612671,629
813.731384,646
813.850037,617
813.96875,653
814.087524,641
814.206238,597
814.324951,647
814.443604,638
814.562256,631
814.68103,629
814.799683,622
814.918335,645
815.037109,629
815.155762,614
815.274475,636
815.393188,617
815.511841,606
815.630554,630
815.749146,607
815.867859,596
815.986572,632
816.105164,609
816.223877,603
816.342529,610
816.461182,642
816.579895,622
816.698486,603
816.817139,631
816.935791,643
817.054504,617
817.173096,624
817.291748,614
817.4104,583
817.529053,615
817.647644,572
817.766235,606
817.884949,605
818.00354,569
818.122192,558
818.240845,545
818.359436,553
818.478088,533
818.59668,556
818.715271,529
818.833923,525
818.952515,559
819.071106,534
819.189758,527
819.30835,520
819.426941,517
819.545532,517
819.664124,508
819.782715,488
819.901306,509
820.019897,507
820.138489,492
820.25708,509
820.375671,528
820.494202,493
820.612732,504
820.731384,479
820.849915,512
820.968506,509
821.087097,516
821.205627,465
821.324158,502
821.442749,489
821.561279,495
821.679871,503
821.798401,480
821.916931,453
822.035461,497
822.154053,485
822.272583,473
822.391174,498
822.509583,485
822.628174,482
822.746704,481
822.865234,471
822.983765,485
823.102295,506
823.220825,480
823.339294,481
823.457825,477
823.576355,493
823.694824,496
823.813354,471
823.931885,491
824.050354,474
824.168884,478
824.287354,487
824.405823,483
824.524353,489
824.642822,489
824.761353,485
824.879822,501
824.998291,516
825.116699,466
825.235291,490
825.353699,494
825.472168,486
825.590637,477
825.709106,483
825.827576,483
825.946045,478
826.064453,488
826.182983,478
826.301392,490
826.4198,456
826.53833,466
826.656738,473
826.775208,467
826.893677,481
827.012024,471
827.130493,461
827.248962,488
827.36731,464
827.485779,454
827.604248,482
827.722595,454
827.841064,457
827.959412,469
828.077942,473
828.196289,470
828.314636,465
828.433105,477
828.551514,466
828.669861,467
828.78833,460
828.906677,451
829.025085,455
829.143433,466
829.261841,484
829.38031,461
829.498657,455
829.617004,439
829.735413,469
829.85376,488
829.972107,441
830.090515,490
830.208862,457
830.327209,458
830.445557,465
830.563904,458
830.682312,462
830.800659,451
830.919006,457
831.037354,447
831.155701,459
831.274048,460
831.392395,470
831.51062,452
831.629028,439
831.747314,470
831.865662,452
831.984009,464
832.102356,463
832.220642,471
832.338928,464
832.457275,457
832.575623,459
832.693909,462
832.812134,436
832.930481,448
833.048828,463
833.167114,477
833.2854,453
833.403687,472
833.521973,454
833.640259,460
833.758545,460
833.876831,468
833.995056,454
834.113281,456
834.231628,452
834.349915,473
834.468201,453
834.586426,468
834.704651,471
834.822998,465
834.941162,448
835.059448,442
835.177673,459
835.295959,450
835.414246,462
835.53241,443
835.650635,439
835.768921,469
835.887146,460
836.005371,434
836.123596,474
836.241821,474
836.360046,467
836.478271,477
836.596497,474
836.714722,468
836.832886,491
836.95105,487
837.069336,472
837.1875,485
837.305725,482
837.423889,485
837.542053,482
837.660339,480
837.778503,476
837.896667,494
838.014832,474
838.132996,472
838.25116,466
838.369385,484
838.487488,475
838.605713,487
838.723877,477
838.84198,460
838.960205,472
839.078308,469
839.196472,478
839.314636,475
839.4328,486
839.550964,489
839.669067,461
839.787231,480
839.905396,456
840.023499,472
840.141602,465
840.259766,477
840.377869,460
840.495972,473
840.614136,478
840.732239,462
840.850342,456
840.968445,495
841.086548,451
841.204651,477
841.322754,456
841.440918,475
841.55896,462
841.677002,459
841.795166,461
841.913208,465
842.031311,449
842.149353,454
842.267456,450
842.385498,451
842.503601,452
842.621643,460
842.739746,476
842.857788,460
842.97583,454
843.093933,452
843.211975,446
843.330017,435
843.44812,438
843.566101,452
843.684204,439
843.802246,470
843.920227,436
844.038269,450
844.156311,466
844.274292,462
844.392395,446
844.510376,458
844.628357,455
844.74646,455
844.864441,455
844.982422,446
845.100403,463
845.218384,452
845.336426,441
845.454468,444
845.572449,457
845.69043,451
845.808411,470
845.926453,459
846.044373,446
846.162354,459
846.280396,454
846.398315,456
846.516296,459
846.634216,440
846.752197,446
846.870178,449
846.988098,450
847.106079,436
847.22406,440
847.34198,449
847.4599,446
847.577881,444
847.695801,433
847.813782,468
847.931641,454
848.049561,447
848.167603,452
848.285461,458
848.403381,449
848.521362,431
848.639221,454
848.75708,452
848.875,449
848.99292,457
849.110901,435
849.22876,434
849.34668,421
849.464539,454
849.582458,447
849.700317,442
849.818176,452
849.936096,450
850.053955,432
850.171875,439
850.289673,439
850.407593,453
850.525452,454
850.643311,454
850.761169,455
850.878967,453
850.996887,447
851.114746,452
851.232544,442
851.350403,437
851.468262,457
851.58606,453
851.703979,458
851.821777,456
851.939636,450
852.057434,444
852.175232,447
852.293091,443
852.410889,456
852.528687,457
852.646545,449
852.764343,448
852.88208,440
852.999939,445
853.117676,442
853.235535,459
853.353271,447
853.471069,452
853.588928,470
853.706604,456
853.824402,462
853.9422,443
854.059998,443
854.177734,450
854.295532,438
854.413269,446
854.531006,447
854.648804,442
854.766541,462
854.884277,482
855.002014,459
855.119751,433
855.237549,463
855.355225,473
855.473022,446
855.590698,456
855.708435,454
855.826172,443
855.943848,464
856.061646,463
856.179321,463
856.296997,466
856.414795,442
856.53241,452
856.650085,447
856.767822,471
856.885559,421
857.003174,452
857.120911,460
857.238586,463
857.356201,464
857.473938,466
857.591614,451
857.709351,443
857.826965,472
857.944641,461
858.062317,470
858.179993,450
858.297668,472
858.415283,462
858.532959,463
858.650574,441
858.768188,449
858.885803,446
859.003479,446
859.121094,459
859.23877,438
859.356384,466
859.473999,449
859.591675,453
859.709229,450
859.826843,437
859.944458,459
860.062012,458
860.179626,453
860.297302,471
860.414856,450
860.532471,461
860.650024,449
860.767639,456
860.885193,446
861.002808,449
861.120361,451
861.237976,459
861.35553,442
861.473022,460
861.590698,447
861.708191,451
861.825745,454
861.943298,444
862.060852,467
862.178406,448
862.295959,451
862.413513,444
862.531006,459
862.64856,435
862.766113,442
862.883667,474
863.00116,466
863.118713,461
863.236206,431
863.353699,465
863.471252,469
863.588745,445
863.706177,432
863.82373,456
863.941162,446
864.058716,446
864.176208,460
864.29364,451
864.411194,449
864.528687,461
864.646118,444
864.763611,473
864.881042,448
864.998535,446
865.116028,467
865.233459,465
865.350891,451
865.468384,447
865.585754,464
865.703308,463
865.820679,468
865.938171,447
866.055542,436
866.173035,454
866.290466,460
866.407837,447
866.52533,447
866.6427,464
866.760071,445
866.877563,459
866.994934,462
867.112305,444
867.229736,466
867.347107,443
867.464539,451
867.58197,435
867.699341,443
867.81665,454
867.934082,449
868.051453,476
868.168823,458
868.286194,457
868.403564,453
868.520935,448
868.638306,466
868.755676,441
868.872986,447
868.990295,459
869.107727,439
869.225037,462
869.342346,466
869.459717,459
869.577026,441
869.694336,476
869.811707,460
869.929016,443
870.046326,459
870.163635,443
870.280945,439
870.398254,440
870.515564,432
870.632812,455
870.750183,438
870.867432,475
870.984741,464
871.102051,446
871.219299,451
871.336609,458
871.453918,454
871.571106,453
871.688416,458
871.805664,443
871.922852,457
872.040222,459
872.157471,462
872.274719,457
872.391968,459
872.509155,455
872.626465,440
872.743652,442
872.860962,466
872.978149,459
873.095337,442
873.212646,451
873.329834,455
873.44696,450
873.564209,442
873.681396,435
873.798645,440
873.915894,462
874.03302,435
874.150208,450
874.267456,446
874.384583,465
874.501831,445
874.618958,438
874.736145,444
874.853333,441
874.970459,444
875.087646,439
875.204834,462
875.32196,453
875.439148,450
875.556274,450
875.673401,458
875.790527,443
875.907715,447
876.024841,454
876.141968,457
876.259094,454
876.376282,442
876.493347,465
876.610474,465
876.7276,438
876.844727,464
876.961853,462
877.078918,437
877.195984,434
877.313171,461
877.430237,462
877.547302,444
877.664368,456
877.781433,437
877.898499,461
878.015625,462
878.13269,453
878.249695,469
878.366821,454
878.483887,461
878.600952,453
878.717957,447
878.834961,448
878.952087,433
879.069092,451
879.186157,463
879.303162,448
879.420227,450
879.537231,451
879.654236,461
879.77124,448
879.888306,442
880.005249,461
880.122314,441
880.239319,466
880.356323,436
880.473328,473
880.590271,459
880.707275,454
880.824341,462
880.941284,464
881.058228,454
881.175232,441
881.292236,448
881.40918,454
881.526123,444
881.643066,456
881.760071,461
881.877014,436
881.993958,453
882.11084,465
882.227783,461
882.344727,447
882.46167,454
882.578613,460
882.695618,437
882.812439,454
882.929382,433
883.046326,460
883.163208,453
883.280151,465
883.397034,430
883.513916,444
883.630798,453
883.747742,468
883.864563,461
883.981506,456
884.098389,454
884.21521,444
884.332153,461
884.448975,467
884.565796,455
884.682678,462
884.7995,453
884.916443,461
885.033264,459
885.150085,459
885.266968,470
885.383789,442
885.500671,465
885.617493,440
885.734314,453
885.851196,459
885.967896,465
886.084717,472
886.201599,468
886.318359,455
886.435181,451
886.552002,467
886.668762,449
886.785645,454
886.902344,459
887.019165,469
887.135925,452
887.252747,469
887.369446,460
887.486267,454
887.603027,463
887.719788,465
887.836548,451
887.953247,485
888.070068,456
888.186829,469
888.303528,440
888.420288,471
888.536987,448
888.653687,457
888.770447,461
888.887146,468
889.003967,454
889.120667,462
889.237305,471
889.354065,463
889.470703,452
889.587463,473
889.704163,471
889.820862,467
889.937561,448
890.054199,457
890.170837,472
890.287598,457
890.404236,440
890.520874,461
890.637634,472
890.754211,461
890.87085,462
890.987549,465
891.104187,447
891.220886,440
891.337463,440
891.454102,445
891.57074,466
891.687378,477
891.804077,449
891.920654,447
892.037231,457
892.15387,452
892.270447,448
892.387085,458
892.503723,465
892.6203,490
892.736877,442
892.853516,439
892.970032,457
893.08667,486
893.203186,451
893.319763,448
893.43634,462
893.552917,452
893.669556,445
893.786011,483
893.902588,463
894.019165,456
894.135681,464
894.252197,445
894.368835,451
894.485291,460
894.601868,441
894.718384,463
894.8349,476
894.951355,476
895.067932,450
895.184448,475
895.300964,463
895.417419,491
895.533936,435
895.650452,467
895.766907,445
895.883423,443
895.999878,467
896.116333,457
896.232849,452
896.349304,465
896.465759,452
896.582214,447
896.698669,453
896.815125,440
896.931641,457
897.048035,457
897.164551,470
897.280884,475
897.397339,458
897.513794,450
897.630249,462
897.746582,478
897.863098,480
897.979431,452
898.095886,462
898.212341,455
898.328674,465
898.445129,463
898.561462,452
898.677795,461
898.794312,462
898.910645,470
899.026978,461
899.143433,451
899.259766,468
899.37616,456
899.492493,475
899.608765,474
899.725159,465
899.841553,471
899.957947,450
900.07428,469
900.190552,474
900.306946,459
900.423157,445
900.53949,482
900.655884,450
900.772156,470
900.888489,473
901.004822,465
901.121033,457
901.237366,488
901.353699,445
901.46991,454
901.586304,464
901.702515,466
901.818787,460
901.93512,485
902.051331,452
902.167603,468
902.283875,463
902.400085,462
902.516418,433
902.632629,454
902.74884,472
902.865112,446
902.981384,484
903.097595,488
903.213867,469
903.330017,458
903.446289,462
903.5625,463
903.67865,469
903.794922,451
903.911072,460
904.027344,479
904.143494,472
904.259705,478
904.375916,463
904.492065,481
904.608215,477
904.724426,478
904.840576,477
904.956726,464
905.072876,456
905.189087,470
905.305176,433
905.421387,464
905.537537,463
905.653687,467
905.769775,454
905.885925,461
906.002014,468
906.118164,462
906.234314,477
906.350403,464
906.466492,461
906.582642,462
906.69873,464
906.814758,470
906.930908,485
907.046936,467
907.163086,442
907.279175,476
907.395264,471
907.511353,478
907.62738,475
907.743408,449
907.859497,475
907.975525,460
908.091553,466
908.207703,484
908.32373,472
908.439758,473
908.555786,491
908.671814,484
908.787842,466
908.90387,456
909.019775,461
909.135864,474
909.251892,453
909.367859,451
909.483826,479
909.599854,467
909.715881,477
909.831848,469
909.947815,460
910.063782,464
910.179749,470
910.295776,477
910.411743,475
910.527649,479
910.643616,473
910.759583,468
910.875488,455
910.991455,480
911.107361,462
911.223267,484
911.339294,464
911.4552,494
911.571106,470
911.687073,460
911.802979,458
911.918823,494
912.034729,454
912.150635,476
912.266602,469
912.382446,460
912.498352,468
912.614197,465
912.730103,473
912.846008,474
792.44574,641
792.56488,650
792.68396,692
792.80304,677
792.92218,609
793.041199,570
793.160339,621
793.279419,640
793.398499,581
793.517578,591
793.636658,600
793.755737,593
793.874817,627
793.993896,649
794.112976,614
794.232056,600
794.351074,610
794.470215,594
794.589233,595
794.708313,621
794.827393,592
794.946411,570
795.065552,610
795.18457,588
795.303589,583
795.422668,571
795.541687,606
795.660767,588
795.779846,573
795.898865,592
796.017883,581
796.136963,582
796.255981,583
796.375061,605
796.49408,610
796.613037,589
796.732117,607
796.851135,574
796.970154,578
797.089233,575
797.208191,597
797.327271,572
797.446228,584
797.565186,566
797.684265,559
797.803223,594
797.922241,591
798.04126,571
798.160278,557
798.279297,555
798.398315,575
798.517273,580
798.636292,574
798.75531,586
798.874268,587
798.993286,579
799.112244,587
799.231323,590
799.350281,578
799.469238,573
799.588257,572
799.707153,566
799.826111,564
799.945129,585
800.064087,605
800.183044,593
800.302063,584
800.421021,587
800.539978,592
800.658936,594
800.777893,608
800.896912,584
801.015747,574
801.134705,573
801.253723,596
801.37262,575
801.491638,605
801.610535,574
801.729492,567
801.84845,602
801.967407,608
802.086243,613
802.205261,595
802.324158,588
802.443115,594
802.562073,579
802.680969,631
802.799927,602
802.918762,595
803.037659,603
803.156677,593
803.275574,609
803.39447,592
803.513428,599
803.632263,608
803.751221,601
803.870117,577
803.989014,592
804.107971,615
804.226746,590
804.345642,606
804.4646,592
804.583496,605
804.702393,617
804.821228,596
804.940125,605
805.059021,612
805.177917,603
805.296814,611
805.415649,605
805.534546,603
805.653442,616
805.772278,628
805.891113,599
806.01001,621
806.128906,614
806.247742,601
806.366577,619
806.485413,648
806.604309,605
806.723145,628
806.84198,639
806.960876,621
807.079712,619
807.198486,627
807.317383,605
807.436218,584
807.554993,610
807.673889,624
807.792725,622
807.91156,624
808.030396,612
808.14917,628
808.268005,601
808.386841,616
808.505676,621
808.624451,640
808.743286,619
808.862122,633
808.980896,583
809.099731,654
809.218506,597
809.337341,614
809.456116,636
809.57489,627
809.693726,631
809.8125,659
809.931274,649
810.050049,620
810.168884,641
810.287659,637
810.406372,631
810.525269,616
810.643982,603
810.762756,633
810.881531,623
811.000305,652
811.11908,610
811.237854,610
811.356567,629
811.475403,601
811.594116,636
811.71283,633
811.831604,659
811.950378,635
812.069153,646
812.187927,642
812.30658,629
812.425415,644
812.544128,639
812.662781,672
812.781616,649
812.900269,658
813.019043,626
813.137756,660
813.256531,639
813.375244,640
813.493896,617
813.612671,645
813.731384,627
813.850037,651
813.96875,615
814.087524,645
814.206238,631
814.324951,621
814.443604,657
814.562256,642
814.68103,611
814.799683,620
814.918335,638
815.037109,630
815.155762,633
815.274475,637
815.393188,612
815.511841,608
815.630554,615
815.749146,619
815.867859,607
815.986572,609
816.105164,618
816.223877,618
816.342529,630
816.461182,646
816.579895,600
816.698486,608
816.817139,599
816.935791,626
817.054504,610
817.173096,647
817.291748,587
817.4104,600
817.529053,586
817.647644,593
817.766235,596
817.884949,592
818.00354,571
818.122192,569
818.240845,556
818.359436,554
818.478088,534
818.59668,542
818.715271,548
818.833923,525
818.952515,517
819.071106,537
819.189758,531
819.30835,524
819.426941,509
819.545532,521
819.664124,507
819.782715,501
819.901306,504
820.019897,500
820.138489,515
820.25708,502
820.375671,488
820.494202,505
820.612732,495
820.731384,488
820.849915,503
820.968506,496
821.087097,489
821.205627,487
821.324158,491
821.442749,489
821.561279,483
821.679871,495
821.798401,483
821.916931,507
822.035461,478
822.154053,502
822.272583,477
822.391174,468
822.509583,482
822.628174,488
822.746704,481
822.865234,486
822.983765,477
823.102295,499
823.220825,500
823.339294,478
823.457825,500
823.576355,460
823.694824,472
823.813354,491
823.931885,483
824.050354,498
824.168884,477
824.287354,483
824.405823,503
824.524353,508
824.642822,493
824.761353,494
824.879822,466
824.998291,479
825.116699,488
825.235291,485
825.353699,482
825.472168,492
825.590637,478
825.709106,505
825.827576,467
825.946045,485
826.064453,478
826.182983,460
826.301392,465
826.4198,463
826.53833,491
826.656738,476
826.775208,462
826.893677,477
827.012024,465
827.130493,460
827.248962,458
827.36731,462
827.485779,462
827.604248,472
827.722595,460
827.841064,471
827.959412,451
828.077942,456
828.196289,451
828.314636,472
828.433105,466
828.551514,454
828.669861,469
828.78833,464
828.906677,463
829.025085,457
829.143433,468
829.261841,471
829.38031,467
829.498657,449
829.617004,453
829.735413,464
829.85376,450
829.972107,469
830.090515,445
830.208862,475
830.327209,456
830.445557,469
830.563904,479
830.682312,450
830.800659,465
830.919006,444
831.037354,467
831.155701,453
831.274048,459
831.392395,458
831.51062,457
831.629028,468
831.747314,458
831.865662,445
831.984009,437
832.102356,450
832.220642,459
832.338928,460
832.457275,462
832.575623,453
832.693909,468
832.812134,462
832.930481,468
833.048828,449
833.167114,470
833.2854,454
833.403687,467
833.521973,489
833.640259,450
833.758545,466
833.876831,460
833.995056,461
834.113281,465
834.231628,456
834.349915,459
834.468201,439
834.586426,452
834.704651,455
834.822998,451
834.941162,469
835.059448,454
835.177673,471
835.295959,462
835.414246,450
835.53241,461
835.650635,461
835.768921,446
835.887146,476
836.005371,468
836.123596,461
836.241821,445
836.360046,470
836.478271,468
836.596497,474
836.714722,461
836.832886,472
836.95105,478
837.069336,467
837.1875,491
837.305725,479
837.423889,492
837.542053,478
837.660339,463
837.778503,487
837.896667,473
838.014832,468
838.132996,469
838.25116,460
838.369385,471
838.487488,495
838.605713,468
838.723877,479
838.84198,464
838.960205,460
839.078308,464
839.196472,454
839.314636,489
839.4328,467
839.550964,463
839.669067,459
839.787231,483
839.905396,494
840.023499,479
840.141602,455
840.259766,477
840.377869,467
840.495972,466
840.614136,451
840.732239,465
840.850342,479
840.968445,456
841.086548,472
841.204651,457
841.322754,458
841.440918,479
841.55896,460
841.677002,457
841.795166,481
841.913208,480
842.031311,465
842.149353,453
842.267456,459
842.385498,460
842.503601,464
842.621643,459
842.739746,451
842.857788,450
842.97583,465
843.093933,470
843.211975,460
843.330017,447
843.44812,451
843.566101,429
843.684204,448
843.802246,453
843.920227,443
844.038269,467
844.156311,447
844.274292,447
844.392395,437
844.510376,455
844.628357,465
844.74646,450
844.864441,459
844.982422,454
845.100403,444
845.218384,464
845.336426,451
845.454468,448
845.572449,453
845.69043,446
845.808411,441
845.926453,445
846.044373,445
846.162354,460
846.280396,470
846.398315,455
846.516296,461
846.634216,443
846.752197,459
846.870178,449
846.988098,458
847.106079,448
847.22406,439
847.34198,454
847.4599,442
847.577881,448
847.695801,449
847.813782,443
847.931641,458
848.049561,429
848.167603,456
848.285461,446
848.403381,466
848.521362,421
848.639221,450
848.75708,453
848.875,433
848.99292,449
849.110901,450
849.22876,450
849.34668,462
849.464539,467
849.582458,479
849.700317,442
849.818176,451
849.936096,443
850.053955,451
850.171875,462
850.289673,450
850.407593,457
850.525452,447
850.643311,446
850.761169,446
850.878967,459
850.996887,449
851.114746,439
851.232544,462
851.350403,452
851.468262,448
851.58606,453
851.703979,449
851.821777,450
851.939636,446
852.057434,434
852.175232,439
852.293091,459
852.410889,453
852.528687,441
852.646545,444
852.764343,446
852.88208,452
852.999939,432
853.117676,458
853.235535,445
853.353271,462
853.471069,469
853.588928,451
853.706604,453
853.824402,463
853.9422,458
854.059998,447
854.177734,446
854.295532,453
854.413269,449
854.531006,458
854.648804,454
854.766541,457
854.884277,454
855.002014,467
855.119751,449
855.237549,470
855.355225,471
855.473022,459
855.590698,454
855.708435,468
855.826172,450
855.943848,450
856.061646,454
856.179321,457
856.296997,449
856.414795,460
856.53241,439
856.650085,451
856.767822,451
856.885559,484
857.003174,450
857.120911,449
857.238586,454
857.356201,479
857.473938,461
857.591614,461
857.709351,449
857.826965,478
857.944641,447
858.062317,467
858.179993,460
858.297668,460
858.415283,459
858.532959,449
858.650574,454
858.768188,445
858.885803,445
859.003479,464
859.121094,461
859.23877,460
859.356384,455
859.473999,462
859.591675,439
859.709229,460
859.826843,441
859.944458,463
860.062012,448
860.179626,450
860.297302,453
860.414856,454
860.532471,445
860.650024,446
860.767639,449
860.885193,440
861.002808,444
861.120361,446
861.237976,449
861.35553,450
861.473022,448
861.590698,450
861.708191,459
861.825745,439
861.943298,458
862.060852,441
862.178406,466
862.295959,464
862.413513,471
862.531006,434
862.64856,430
862.766113,460
862.883667,465
863.00116,463
863.118713,450
863.236206,456
863.353699,436
863.471252,451
863.588745,451
863.706177,437
863.82373,442
863.941162,460
864.058716,469
864.176208,449
864.29364,444
864.411194,463
864.528687,451
864.646118,453
864.763611,445
864.881042,465
864.998535,446
865.116028,459
865.233459,478
865.350891,464
865.468384,441
865.585754,446
865.703308,467
865.820679,463
865.938171,443
866.055542,450
866.173035,458
866.290466,458
866.407837,453
866.52533,451
866.6427,442
866.760071,447
866.877563,456
866.994934,454
867.112305,448
867.229736,460
867.347107,448
867.464539,457
867.58197,460
867.699341,466
867.81665,453
867.934082,463
868.051453,437
868.168823,467
868.286194,432
868.403564,433
868.520935,456
868.638306,460
868.755676,455
868.872986,458
868.990295,459
869.107727,453
869.225037,481
869.342346,460
869.459717,445
869.577026,465
869.694336,469
869.811707,438
869.929016,442
870.046326,459
870.163635,434
870.280945,480
870.398254,466
870.515564,464
870.632812,449
870.750183,447
870.867432,467
870.984741,453
871.102051,458
871.219299,471
871.336609,460
871.453918,460
871.571106,445
871.688416,457
871.805664,451
871.922852,445
872.040222,441
872.157471,463
872.274719,452
872.391968,448
872.509155,445
872.626465,448
872.743652,455
872.860962,454
872.978149,452
873.095337,444
873.212646,469
873.329834,450
873.44696,458
873.564209,437
873.681396,465
873.798645,440
873.915894,455
874.03302,462
874.150208,450
874.267456,436
874.384583,464
874.501831,472
874.618958,459
874.736145,445
874.853333,449
874.970459,443
875.087646,450
875.204834,458
875.32196,446
875.439148,433
875.556274,434
875.673401,463
875.790527,457
875.907715,434
876.024841,438
876.141968,431
876.259094,441
876.376282,453
876.493347,447
876.610474,455
876.7276,452
876.844727,461
876.961853,451
877.078918,463
877.195984,439
877.313171,459
877.430237,435
877.547302,453
877.664368,467
877.781433,457
877.898499,455
878.015625,462
878.13269,444
878.249695,444
878.366821,436
878.483887,461
878.600952,441
878.717957,434
878.834961,445
878.952087,433
879.069092,446
879.186157,455
879.303162,453
879.420227,461
879.537231,459
879.654236,444
879.77124,444
879.888306,463
880.005249,466
880.122314,440
880.239319,460
880.356323,456
880.473328,461
880.590271,440
880.707275,462
880.824341,459
880.941284,454
881.058228,450
881.175232,449
881.292236,462
881.40918,447
881.526123,462
881.643066,447
881.760071,457
881.877014,436
881.993958,454
882.11084,433
882.227783,465
882.344727,451
882.46167,449
882.578613,446
882.695618,449
882.812439,439
882.929382,451
883.046326,453
883.163208,459
883.280151,455
883.397034,446
883.513916,470
883.630798,449
883.747742,451
883.864563,453
883.981506,449
884.098389,452
884.21521,453
884.332153,460
884.448975,457
884.565796,468
884.682678,454
884.7995,454
884.916443,459
885.033264,460
885.150085,467
885.266968,450
885.383789,457
885.500671,452
885.617493,466
885.734314,466
885.851196,483
885.967896,476
886.084717,462
886.201599,459
886.318359,455
886.435181,460
886.552002,468
886.668762,442
886.785645,471
886.902344,473
887.019165,451
887.135925,465
887.252747,470
887.369446,464
887.486267,461
887.603027,444
887.719788,465
887.836548,474
887.953247,460
888.070068,453
888.186829,447
888.303528,448
888.420288,447
888.536987,459
888.653687,468
888.770447,472
888.887146,451
889.003967,452
889.120667,439
889.237305,455
889.354065,461
889.470703,458
889.587463,471
889.704163,456
889.820862,443
889.937561,454
890.054199,464
890.170837,461
890.287598,449
890.404236,478
890.520874,443
890.637634,459
890.754211,469
890.87085,473
890.987549,446
891.104187,471
891.220886,452
891.337463,452
891.454102,451
891.57074,456
891.687378,456
891.804077,472
891.920654,430
892.037231,451
892.15387,455
892.270447,463
892.387085,467
892.503723,461
892.6203,442
892.736877,457
892.853516,451
892.970032,456
893.08667,459
893.203186,442
893.319763,469
893.43634,464
893.552917,451
893.669556,458
893.786011,461
893.902588,471
894.019165,456
894.135681,468
894.252197,468
894.368835,457
894.485291,472
894.601868,465
894.718384,460
894.8349,481
894.951355,455
895.067932,472
895.184448,463
895.300964,468
895.417419,454
895.533936,459
895.650452,454
895.766907,466
895.883423,458
895.999878,453
896.116333,459
896.232849,455
896.349304,464
896.465759,468
896.582214,450
896.698669,462
896.815125,461
896.931641,478
897.048035,458
897.164551,463
897.280884,438
897.397339,459
897.513794,449
897.630249,459
897.746582,451
897.863098,472
897.979431,452
898.095886,445
898.212341,471
898.328674,461
898.445129,458
898.561462,458
898.677795,456
898.794312,489
898.910645,476
899.026978,458
899.143433,463
899.259766,454
899.37616,451
899.492493,460
899.608765,487
899.725159,478
899.841553,461
899.957947,466
900.07428,465
900.190552,480
900.306946,466
900.423157,474
900.53949,455
900.655884,465
900.772156,460
900.888489,474
901.004822,447
901.121033,454
901.237366,486
901.353699,471
901.46991,471
901.586304,456
901.702515,461
901.818787,480
901.93512,466
902.051331,480
902.167603,486
902.283875,483
902.400085,473
902.516418,459
902.632629,460
902.74884,478
902.865112,474
902.981384,461
903.097595,484
903.213867,470
903.330017,475
903.446289,455
903.5625,462
903.67865,479
903.794922,465
903.911072,461
904.027344,451
904.143494,470
904.259705,475
904.375916,446
904.492065,470
904.608215,460
904.724426,471
904.840576,486
904.956726,479
905.072876,484
905.189087,452
905.305176,454
905.421387,450
905.537537,469
905.653687,449
905.769775,453
905.885925,452
906.002014,474
906.118164,459
906.234314,478
906.350403,425
906.466492,469
906.582642,454
906.69873,483
906.814758,466
906.930908,465
907.046936,455
907.163086,481
907.279175,479
907.395264,460
907.511353,448
907.62738,456
907.743408,469
907.859497,473
907.975525,494
908.091553,463
908.207703,458
908.32373,464
908.439758,476
908.555786,471
908.671814,479
908.787842,471
908.90387,474
909.019775,474
909.135864,469
909.251892,469
909.367859,450
909.483826,482
909.599854,471
909.715881,459
909.831848,476
909.947815,464
910.063782,466
910.179749,471
910.295776,463
910.411743,460
910.527649,472
910.643616,476
910.759583,468
910.875488,470
910.991455,472
911.107361,472
911.223267,471
911.339294,475
911.4552,481
911.571106,483
911.687073,467
911.802979,481
911.918823,463
912.034729,443
912.150635,460
912.266602,466
912.382446,470
912.498352,484
912.614197,464
912.730103,468
912.846008,462
