792.44574,591
792.56488,617
792.68396,663
792.80304,662
792.92218,612
793.041199,585
793.160339,596
793.279419,613
793.398499,615
793.517578,599
793.636658,590
793.755737,631
793.874817,620
793.993896,609
794.112976,559
794.232056,553
794.351074,572
794.470215,568
794.589233,567
794.708313,570
794.827393,587
794.946411,591
795.065552,613
795.18457,600
795.303589,578
795.422668,554
795.541687,573
795.660767,598
795.779846,586
795.898865,568
796.017883,582
796.136963,561
796.255981,568
796.375061,577
796.49408,581
796.613037,568
796.732117,569
796.851135,559
796.970154,587
797.089233,586
797.208191,563
797.327271,571
797.446228,568
797.565186,561
797.684265,567
797.803223,564
797.922241,570
798.04126,559
798.160278,587
798.279297,552
798.398315,567
798.517273,546
798.636292,563
798.75531,558
798.874268,578
798.993286,573
799.112244,563
799.231323,566
799.350281,557
799.469238,567
799.588257,577
799.707153,564
799.826111,584
799.945129,570
800.064087,581
800.183044,554
800.302063,557
800.421021,551
800.539978,576
800.658936,573
800.777893,538
800.896912,592
801.015747,585
801.134705,558
801.253723,580
801.37262,567
801.491638,564
801.610535,577
801.729492,589
801.84845,584
801.967407,555
802.086243,593
802.205261,597
802.324158,588
802.443115,566
802.562073,594
802.680969,591
802.799927,598
802.918762,573
803.037659,579
803.156677,611
803.275574,586
803.39447,615
803.513428,569
803.632263,586
803.751221,602
803.870117,608
803.989014,588
804.107971,592
804.226746,582
804.345642,591
804.4646,610
804.583496,585
804.702393,598
804.821228,613
804.940125,600
805.059021,593
805.177917,601
805.296814,581
805.415649,587
805.534546,636
805.653442,608
805.772278,609
805.891113,593
806.01001,591
806.128906,602
806.247742,599
806.366577,611
806.485413,609
806.604309,640
806.723145,600
806.84198,583
806.960876,598
807.079712,580
807.198486,621
807.317383,602
807.436218,606
807.554993,610
807.673889,614
807.792725,608
807.91156,617
808.030396,633
808.14917,609
808.268005,623
808.386841,604
808.505676,618
808.624451,632
808.743286,617
808.862122,611
808.980896,625
809.099731,612
809.218506,612
809.337341,630
809.456116,648
809.57489,634
809.693726,611
809.8125,627
809.931274,615
810.050049,625
810.168884,640
810.287659,616
810.406372,621
810.525269,633
810.643982,602
810.762756,617
810.881531,636
811.000305,651
811.11908,612
811.237854,618
811.356567,620
811.475403,621
811.594116,613
811.71283,613
811.831604,608
811.950378,616
812.069153,616
812.187927,622
812.30658,619
812.425415,629
812.544128,626
812.662781,603
812.781616,626
812.900269,617
813.019043,642
813.137756,631
813.256531,625
813.375244,621
813.493896,621
813.612671,627
813.731384,605
813.850037,653
813.96875,628
814.087524,625
814.206238,604
814.324951,610
814.443604,623
814.562256,614
814.68103,604
814.799683,642
814.918335,614
815.037109,634
815.155762,628
815.274475,609
815.393188,595
815.511841,620
815.630554,605
815.749146,618
815.867859,609
815.986572,622
816.105164,604
816.223877,623
816.342529,609
816.461182,610
816.579895,619
816.698486,639
816.817139,600
816.935791,624
817.054504,595
817.173096,624
817.291748,627
817.4104,642
817.529053,614
817.647644,584
817.766235,590
817.884949,580
818.00354,587
818.122192,569
818.240845,565
818.359436,552
818.478088,551
818.59668,539
818.715271,534
818.833923,537
818.952515,545
819.071106,510
819.189758,514
819.30835,536
819.426941,489
819.545532,501
819.664124,498
819.782715,495
819.901306,511
820.019897,497
820.138489,496
820.25708,515
820.375671,488
820.494202,497
820.612732,491
820.731384,465
820.849915,496
820.968506,478
821.087097,499
821.205627,498
821.324158,484
821.442749,478
821.561279,470
821.679871,469
821.798401,468
821.916931,471
822.035461,481
822.154053,483
822.272583,471
822.391174,479
822.509583,483
822.628174,494
822.746704,481
822.865234,489
822.983765,462
823.102295,471
823.220825,492
823.339294,477
823.457825,475
823.576355,471
823.694824,473
823.813354,495
823.931885,488
824.050354,478
824.168884,487
824.287354,514
824.405823,503
824.524353,461
824.642822,463
824.761353,488
824.879822,471
824.998291,500
825.116699,483
825.235291,496
825.353699,486
825.472168,470
825.590637,475
825.709106,487
825.827576,461
825.946045,477
826.064453,469
826.182983,478
826.301392,465
826.4198,459
826.53833,463
826.656738,476
826.775208,468
826.893677,486
827.012024,469
827.130493,458
827.248962,475
827.36731,457
827.485779,452
827.604248,469
827.722595,477
827.841064,446
827.959412,462
828.077942,462
828.196289,464
828.314636,460
828.433105,447
828.551514,447
828.669861,472
828.78833,458
828.906677,454
829.025085,466
829.143433,482
829.261841,440
829.38031,457
829.498657,456
829.617004,464
829.735413,480
829.85376,446
829.972107,465
830.090515,456
830.208862,454
830.327209,461
830.445557,444
830.563904,433
830.682312,472
830.800659,456
830.919006,449
831.037354,448
831.155701,459
831.274048,446
831.392395,458
831.51062,447
831.629028,448
831.747314,442
831.865662,455
831.984009,440
832.102356,450
832.220642,459
832.338928,451
832.457275,452
832.575623,467
832.693909,442
832.812134,443
832.930481,445
833.048828,443
833.167114,446
833.2854,471
833.403687,457
833.521973,461
833.640259,454
833.758545,449
833.876831,462
833.995056,448
834.113281,444
834.231628,463
834.349915,451
834.468201,454
834.586426,448
834.704651,444
834.822998,454
834.941162,447
835.059448,457
835.177673,446
835.295959,439
835.414246,455
835.53241,447
835.650635,471
835.768921,449
835.887146,451
836.005371,460
836.123596,469
836.241821,488
836.360046,472
836.478271,464
836.596497,475
836.714722,471
836.832886,466
836.95105,453
837.069336,455
837.1875,480
837.305725,480
837.423889,465
837.542053,465
837.660339,472
837.778503,458
837.896667,452
838.014832,468
838.132996,480
838.25116,481
838.369385,476
838.487488,465
838.605713,468
838.723877,480
838.84198,479
838.960205,485
839.078308,458
839.196472,473
839.314636,464
839.4328,468
839.550964,449
839.669067,470
839.787231,461
839.905396,457
840.023499,462
840.141602,471
840.259766,481
840.377869,459
840.495972,448
840.614136,467
840.732239,461
840.850342,457
840.968445,465
841.086548,455
841.204651,462
841.322754,470
841.440918,469
841.55896,460
841.677002,467
841.795166,450
841.913208,441
842.031311,458
842.149353,426
842.267456,472
842.385498,433
842.503601,452
842.621643,446
842.739746,462
842.857788,437
842.97583,454
843.093933,452
843.211975,441
843.330017,457
843.44812,457
843.566101,454
843.684204,451
843.802246,455
843.920227,444
844.038269,429
844.156311,453
844.274292,443
844.392395,433
844.510376,454
844.628357,457
844.74646,441
844.864441,445
844.982422,436
845.100403,463
845.218384,428
845.336426,436
845.454468,435
845.572449,455
845.69043,442
845.808411,448
845.926453,436
846.044373,427
846.162354,436
846.280396,444
846.398315,425
846.516296,450
846.634216,419
846.752197,455
846.870178,457
846.988098,442
847.106079,449
847.22406,442
847.34198,438
847.4599,445
847.577881,435
847.695801,456
847.813782,433
847.931641,454
848.049561,452
848.167603,449
848.285461,448
848.403381,442
848.521362,428
848.639221,442
848.75708,433
848.875,446
848.99292,434
849.110901,450
849.22876,435
849.34668,444
849.464539,442
849.582458,438
849.700317,440
849.818176,434
849.936096,450
850.053955,428
850.171875,447
850.289673,448
850.407593,418
850.525452,447
850.643311,437
850.761169,446
850.878967,435
850.996887,446
851.114746,439
851.232544,439
851.350403,426
851.468262,449
851.58606,434
851.703979,449
851.821777,442
851.939636,455
852.057434,451
852.175232,436
852.293091,432
852.410889,449
852.528687,435
852.646545,439
852.764343,445
852.88208,437
852.999939,434
853.117676,451
853.235535,442
853.353271,440
853.471069,435
853.588928,449
853.706604,430
853.824402,444
853.9422,461
854.059998,441
854.177734,449
854.295532,425
854.413269,447
854.531006,453
854.648804,452
854.766541,443
854.884277,450
855.002014,450
855.119751,445
855.237549,451
855.355225,458
855.473022,453
855.590698,450
855.708435,447
855.826172,442
855.943848,462
856.061646,456
856.179321,439
856.296997,453
856.414795,444
856.53241,449
856.650085,456
856.767822,461
856.885559,454
857.003174,443
857.120911,442
857.238586,457
857.356201,469
857.473938,468
857.591614,445
857.709351,455
857.826965,457
857.944641,446
858.062317,450
858.179993,451
858.297668,455
858.415283,455
858.532959,464
858.650574,436
858.768188,462
858.885803,444
859.003479,444
859.121094,464
859.23877,447
859.356384,447
859.473999,457
859.591675,451
859.709229,454
859.826843,441
859.944458,440
860.062012,441
860.179626,452
860.297302,440
860.414856,455
860.532471,425
860.650024,446
860.767639,459
860.885193,451
861.002808,445
861.120361,440
861.237976,433
861.35553,451
861.473022,466
861.590698,436
861.708191,448
861.825745,449
861.943298,437
862.060852,443
862.178406,448
862.295959,426
862.413513,436
862.531006,460
862.64856,434
862.766113,445
862.883667,438
863.00116,446
863.118713,433
863.236206,454
863.353699,451
863.471252,419
863.588745,442
863.706177,450
863.82373,459
863.941162,450
864.058716,459
864.176208,443
864.29364,442
864.411194,463
864.528687,447
864.646118,445
864.763611,447
864.881042,448
864.998535,437
865.116028,448
865.233459,426
865.350891,431
865.468384,445
865.585754,462
865.703308,432
865.820679,443
865.938171,440
866.055542,452
866.173035,444
866.290466,459
866.407837,446
866.52533,433
866.6427,430
866.760071,440
866.877563,448
866.994934,444
867.112305,440
867.229736,454
867.347107,431
867.464539,435
867.58197,440
867.699341,465
867.81665,441
867.934082,451
868.051453,466
868.168823,459
868.286194,452
868.403564,440
868.520935,460
868.638306,445
868.755676,452
868.872986,461
868.990295,460
869.107727,458
869.225037,449
869.342346,449
869.459717,452
869.577026,446
869.694336,455
869.811707,452
869.929016,453
870.046326,442
870.163635,449
870.280945,452
870.398254,448
870.515564,434
870.632812,450
870.750183,440
870.867432,444
870.984741,459
871.102051,408
871.219299,446
871.336609,432
871.453918,453
871.571106,440
871.688416,451
871.805664,427
871.922852,460
872.040222,451
872.157471,464
872.274719,431
872.391968,462
872.509155,440
872.626465,450
872.743652,455
872.860962,460
872.978149,467
873.095337,452
873.212646,450
873.329834,438
873.44696,437
873.564209,432
873.681396,433
873.798645,446
873.915894,436
874.03302,442
874.150208,451
874.267456,456
874.384583,443
874.501831,430
874.618958,436
874.736145,419
874.853333,461
874.970459,464
875.087646,445
875.204834,440
875.32196,455
875.439148,445
875.556274,448
875.673401,448
875.790527,440
875.907715,451
876.024841,452
876.141968,469
876.259094,457
876.376282,452
876.493347,431
876.610474,460
876.7276,429
876.844727,476
876.961853,437
877.078918,454
877.195984,440
877.313171,457
877.430237,434
877.547302,456
877.664368,447
877.781433,463
877.898499,442
878.015625,438
878.13269,436
878.249695,456
878.366821,454
878.483887,438
878.600952,440
878.717957,438
878.834961,449
878.952087,458
879.069092,445
879.186157,451
879.303162,435
879.420227,454
879.537231,466
879.654236,437
879.77124,447
879.888306,452
880.005249,454
880.122314,451
880.239319,442
880.356323,446
880.473328,437
880.590271,448
880.707275,444
880.824341,447
880.941284,460
881.058228,447
881.175232,450
881.292236,444
881.40918,428
881.526123,448
881.643066,442
881.760071,462
881.877014,447
881.993958,452
882.11084,432
882.227783,434
882.344727,453
882.46167,439
882.578613,443
882.695618,456
882.812439,442
882.929382,444
883.046326,462
883.163208,451
883.280151,450
883.397034,449
883.513916,444
883.630798,448
883.747742,464
883.864563,453
883.981506,450
884.098389,457
884.21521,450
884.332153,452
884.448975,454
884.565796,467
884.682678,440
884.7995,456
884.916443,461
885.033264,446
885.150085,453
885.266968,457
885.383789,441
885.500671,462
885.617493,453
885.734314,459
885.851196,427
885.967896,454
886.084717,458
886.201599,450
886.318359,439
886.435181,445
886.552002,468
886.668762,420
886.785645,447
886.902344,455
887.019165,449
887.135925,435
887.252747,435
887.369446,454
887.486267,461
887.603027,445
887.719788,433
887.836548,457
887.953247,452
888.070068,473
888.186829,452
888.303528,455
888.420288,450
888.536987,455
888.653687,460
888.770447,457
888.887146,443
889.003967,477
889.120667,462
889.237305,450
889.354065,442
889.470703,459
889.587463,452
889.704163,458
889.820862,444
889.937561,461
890.054199,461
890.170837,452
890.287598,452
890.404236,468
890.520874,450
890.637634,470
890.754211,450
890.87085,451
890.987549,454
891.104187,463
891.220886,451
891.337463,467
891.454102,457
891.57074,436
891.687378,454
891.804077,461
891.920654,458
892.037231,435
892.15387,457
892.270447,457
892.387085,455
892.503723,460
892.6203,437
892.736877,466
892.853516,462
892.970032,451
893.08667,466
893.203186,444
893.319763,466
893.43634,462
893.552917,456
893.669556,468
893.786011,466
893.902588,445
894.019165,443
894.135681,462
894.252197,472
894.368835,449
894.485291,432
894.601868,474
894.718384,466
894.8349,449
894.951355,467
895.067932,456
895.184448,454
895.300964,453
895.417419,454
895.533936,482
895.650452,437
895.766907,470
895.883423,454
895.999878,464
896.116333,452
896.232849,468
896.349304,439
896.465759,453
896.582214,456
896.698669,453
896.815125,442
896.931641,451
897.048035,450
897.164551,465
897.280884,458
897.397339,446
897.513794,453
897.630249,474
897.746582,466
897.863098,472
897.979431,441
898.095886,463
898.212341,447
898.328674,474
898.445129,473
898.561462,467
898.677795,456
898.794312,470
898.910645,448
899.026978,460
899.143433,437
899.259766,471
899.37616,442
899.492493,465
899.608765,474
899.725159,448
899.841553,471
899.957947,478
900.07428,473
900.190552,451
900.306946,460
900.423157,466
900.53949,461
900.655884,467
900.772156,457
900.888489,466
901.004822,457
901.121033,485
901.237366,458
901.353699,461
901.46991,460
901.586304,438
901.702515,456
901.818787,459
901.93512,462
902.051331,450
902.167603,454
902.283875,480
902.400085,450
902.516418,457
902.632629,453
902.74884,469
902.865112,446
902.981384,472
903.097595,451
903.213867,480
903.330017,446
903.446289,471
903.5625,469
903.67865,460
903.794922,468
903.911072,477
904.027344,452
904.143494,469
904.259705,461
904.375916,474
904.492065,470
904.608215,453
904.724426,475
904.840576,484
904.956726,460
905.072876,487
905.189087,460
905.305176,466
905.421387,462
905.537537,478
905.653687,454
905.769775,457
905.885925,468
906.002014,459
906.118164,456
906.234314,470
906.350403,448
906.466492,477
906.582642,461
906.69873,475
906.814758,476
906.930908,458
907.046936,456
907.163086,461
907.279175,460
907.395264,465
907.511353,469
907.62738,462
907.743408,472
907.859497,487
907.975525,468
908.091553,456
908.207703,458
908.32373,458
908.439758,477
908.555786,478
908.671814,461
908.787842,470
908.90387,471
909.019775,469
909.135864,477
909.251892,479
909.367859,451
909.483826,462
909.599854,465
909.715881,469
909.831848,465
909.947815,445
910.063782,458
910.179749,463
910.295776,474
910.411743,459
910.527649,467
910.643616,459
910.759583,472
910.875488,464
910.991455,449
911.107361,463
911.223267,468
911.339294,457
911.4552,460
911.571106,491
911.687073,489
911.802979,445
911.918823,460
912.034729,486
912.150635,476
912.266602,473
912.382446,452
912.498352,462
912.614197,462
912.730103,474
912.846008,468
792.44574,588
792.56488,612
792.68396,685
792.80304,658
792.92218,615
793.041199,608
793.160339,581
793.279419,608
793.398499,603
793.517578,593
793.636658,596
793.755737,611
793.874817,591
793.993896,613
794.112976,615
794.232056,582
794.351074,592
794.470215,574
794.589233,600
794.708313,591
794.827393,570
794.946411,589
795.065552,577
795.18457,587
795.303589,565
795.422668,585
795.541687,570
795.660767,587
795.779846,592
795.898865,576
796.017883,576
796.136963,574
796.255981,576
796.375061,583
796.49408,595
796.613037,573
796.732117,568
796.851135,552
796.970154,578
797.089233,572
797.208191,559
797.327271,567
797.446228,560
797.565186,590
797.684265,579
797.803223,593
797.922241,562
798.04126,552
798.160278,555
798.279297,570
798.398315,582
798.517273,583
798.636292,580
798.75531,582
798.874268,591
798.993286,585
799.112244,598
799.231323,570
799.350281,575
799.469238,564
799.588257,589
799.707153,563
799.826111,595
799.945129,584
800.064087,578
800.183044,566
800.302063,549
800.421021,563
800.539978,551
800.658936,603
800.777893,589
800.896912,588
801.015747,598
801.134705,561
801.253723,578
801.37262,579
801.491638,573
801.610535,593
801.729492,560
801.84845,578
801.967407,605
802.086243,573
802.205261,562
802.324158,575
802.443115,586
802.562073,571
802.680969,575
802.799927,585
802.918762,570
803.037659,598
803.156677,576
803.275574,569
803.39447,606
803.513428,578
803.632263,613
803.751221,614
803.870117,614
803.989014,605
804.107971,595
804.226746,592
804.345642,609
804.4646,589
804.583496,565
804.702393,592
804.821228,602
804.940125,591
805.059021,596
805.177917,590
805.296814,603
805.415649,608
805.534546,627
805.653442,597
805.772278,589
805.891113,603
806.01001,618
806.128906,606
806.247742,609
806.366577,611
806.485413,604
806.604309,615
806.723145,585
806.84198,622
806.960876,621
807.079712,607
807.198486,595
807.317383,604
807.436218,588
807.554993,607
807.673889,616
807.792725,599
807.91156,611
808.030396,593
808.14917,609
808.268005,622
808.386841,604
808.505676,631
808.624451,618
808.743286,612
808.862122,631
808.980896,603
809.099731,616
809.218506,619
809.337341,602
809.456116,644
809.57489,595
809.693726,622
809.8125,644
809.931274,633
810.050049,626
810.168884,624
810.287659,631
810.406372,630
810.525269,636
810.643982,612
810.762756,626
810.881531,645
811.000305,641
811.11908,627
811.237854,621
811.356567,642
811.475403,641
811.594116,615
811.71283,630
811.831604,612
811.950378,649
812.069153,636
812.187927,650
812.30658,622
812.425415,620
812.544128,632
812.662781,631
812.781616,620
812.900269,617
813.019043,639
813.137756,644
813.256531,620
813.375244,628
813.493896,596
813.612671,622
813.731384,624
813.850037,619
813.96875,605
814.087524,641
814.206238,627
814.324951,585
814.443604,634
814.562256,637
814.68103,618
814.799683,642
814.918335,638
815.037109,625
815.155762,607
815.274475,629
815.393188,614
815.511841,597
815.630554,617
815.749146,600
815.867859,612
815.986572,617
816.105164,611
816.223877,600
816.342529,618
816.461182,608
816.579895,627
816.698486,611
816.817139,596
816.935791,601
817.054504,596
817.173096,633
817.291748,587
817.4104,618
817.529053,606
817.647644,599
817.766235,585
817.884949,588
818.00354,573
818.122192,556
818.240845,568
818.359436,554
818.478088,545
818.59668,566
818.715271,526
818.833923,526
818.952515,526
819.071106,502
819.189758,509
819.30835,514
819.426941,514
819.545532,499
819.664124,497
819.782715,486
819.901306,511
820.019897,509
820.138489,507
820.25708,499
820.375671,501
820.494202,497
820.612732,508
820.731384,501
820.849915,509
820.968506,484
821.087097,482
821.205627,481
821.324158,489
821.442749,499
821.561279,473
821.679871,469
821.798401,476
821.916931,465
822.035461,482
822.154053,489
822.272583,484
822.391174,470
822.509583,482
822.628174,469
822.746704,496
822.865234,473
822.983765,495
823.102295,488
823.220825,467
823.339294,489
823.457825,482
823.576355,491
823.694824,488
823.813354,469
823.931885,491
824.050354,503
824.168884,464
824.287354,484
824.405823,480
824.524353,482
824.642822,490
824.761353,470
824.879822,518
824.998291,504
825.116699,480
825.235291,498
825.353699,462
825.472168,479
825.590637,482
825.709106,474
825.827576,490
825.946045,466
826.064453,462
826.182983,480
826.301392,468
826.4198,480
826.53833,471
826.656738,457
826.775208,490
826.893677,465
827.012024,458
827.130493,454
827.248962,468
827.36731,441
827.485779,459
827.604248,470
827.722595,468
827.841064,444
827.959412,457
828.077942,444
828.196289,460
828.314636,462
828.433105,470
828.551514,462
828.669861,454
828.78833,455
828.906677,451
829.025085,452
829.143433,453
829.261841,465
829.38031,456
829.498657,461
829.617004,476
829.735413,463
829.85376,468
829.972107,442
830.090515,445
830.208862,458
830.327209,450
830.445557,462
830.563904,463
830.682312,452
830.800659,451
830.919006,462
831.037354,442
831.155701,470
831.274048,455
831.392395,467
831.51062,470
831.629028,447
831.747314,446
831.865662,454
831.984009,465
832.102356,446
832.220642,446
832.338928,448
832.457275,460
832.575623,447
832.693909,473
832.812134,460
832.930481,460
833.048828,479
833.167114,455
833.2854,448
833.403687,466
833.521973,480
833.640259,462
833.758545,455
833.876831,445
833.995056,466
834.113281,447
834.231628,441
834.349915,478
834.468201,437
834.586426,459
834.704651,458
834.822998,460
834.941162,452
835.059448,460
835.177673,456
835.295959,479
835.414246,461
835.53241,459
835.650635,462
835.768921,443
835.887146,451
836.005371,468
836.123596,460
836.241821,468
836.360046,448
836.478271,479
836.596497,457
836.714722,472
836.832886,468
836.95105,478
837.069336,477
837.1875,478
837.305725,457
837.423889,474
837.542053,454
837.660339,474
837.778503,475
837.896667,464
838.014832,490
838.132996,462
838.25116,486
838.369385,466
838.487488,460
838.605713,455
838.723877,461
838.84198,474
838.960205,462
839.078308,466
839.196472,491
839.314636,457
839.4328,480
839.550964,468
839.669067,473
839.787231,453
839.905396,457
840.023499,470
840.141602,471
840.259766,476
840.377869,469
840.495972,453
840.614136,465
840.732239,448
840.850342,466
840.968445,467
841.086548,467
841.204651,452
841.322754,456
841.440918,461
841.55896,476
841.677002,472
841.795166,445
841.913208,466
842.031311,453
842.149353,447
842.267456,446
842.385498,458
842.503601,455
842.621643,448
842.739746,468
842.857788,461
842.97583,442
843.093933,459
843.211975,443
843.330017,440
843.44812,452
843.566101,461
843.684204,459
843.802246,451
843.920227,441
844.038269,430
844.156311,448
844.274292,445
844.392395,440
844.510376,451
844.628357,435
844.74646,444
844.864441,433
844.982422,465
845.100403,457
845.218384,450
845.336426,460
845.454468,452
845.572449,455
845.69043,455
845.808411,443
845.926453,448
846.044373,453
846.162354,435
846.280396,448
846.398315,446
846.516296,452
846.634216,445
846.752197,453
846.870178,446
846.988098,448
847.106079,444
847.22406,441
847.34198,452
847.4599,451
847.577881,452
847.695801,452
847.813782,467
847.931641,441
848.049561,439
848.167603,445
848.285461,435
848.403381,423
848.521362,457
848.639221,449
848.75708,436
848.875,442
848.99292,447
849.110901,430
849.22876,446
849.34668,446
849.464539,454
849.582458,436
849.700317,448
849.818176,432
849.936096,426
850.053955,445
850.171875,461
850.289673,437
850.407593,429
850.525452,438
850.643311,458
850.761169,445
850.878967,439
850.996887,461
851.114746,445
851.232544,453
851.350403,442
851.468262,446
851.58606,444
851.703979,456
851.821777,468
851.939636,449
852.057434,465
852.175232,441
852.293091,461
852.410889,436
852.528687,446
852.646545,423
852.764343,448
852.88208,458
852.999939,442
853.117676,452
853.235535,443
853.353271,456
853.471069,433
853.588928,447
853.706604,453
853.824402,425
853.9422,459
854.059998,434
854.177734,440
854.295532,434
854.413269,452
854.531006,444
854.648804,456
854.766541,447
854.884277,436
855.002014,453
855.119751,446
855.237549,433
855.355225,445
855.473022,437
855.590698,447
855.708435,449
855.826172,453
855.943848,461
856.061646,456
856.179321,464
856.296997,437
856.414795,468
856.53241,445
856.650085,457
856.767822,453
856.885559,441
857.003174,455
857.120911,440
857.238586,451
857.356201,445
857.473938,437
857.591614,441
857.709351,459
857.826965,429
857.944641,456
858.062317,435
858.179993,455
858.297668,464
858.415283,451
858.532959,468
858.650574,444
858.768188,440
858.885803,450
859.003479,443
859.121094,449
859.23877,447
859.356384,441
859.473999,461
859.591675,452
859.709229,457
859.826843,454
859.944458,439
860.062012,449
860.179626,447
860.297302,452
860.414856,453
860.532471,455
860.650024,441
860.767639,434
860.885193,430
861.002808,447
861.120361,437
861.237976,448
861.35553,446
861.473022,455
861.590698,455
861.708191,464
861.825745,441
861.943298,438
862.060852,441
862.178406,437
862.295959,439
862.413513,435
862.531006,445
862.64856,447
862.766113,434
862.883667,448
863.00116,443
863.118713,456
863.236206,462
863.353699,447
863.471252,440
863.588745,435
863.706177,445
863.82373,468
863.941162,436
864.058716,475
864.176208,445
864.29364,439
864.411194,421
864.528687,450
864.646118,453
864.763611,446
864.881042,457
864.998535,430
865.116028,461
865.233459,450
865.350891,432
865.468384,444
865.585754,454
865.703308,439
865.820679,431
865.938171,450
866.055542,441
866.173035,469
866.290466,462
866.407837,457
866.52533,455
866.6427,457
866.760071,464
866.877563,468
866.994934,455
867.112305,466
867.229736,460
867.347107,447
867.464539,445
867.58197,444
867.699341,460
867.81665,458
867.934082,453
868.051453,442
868.168823,460
868.286194,461
868.403564,442
868.520935,469
868.638306,456
868.755676,453
868.872986,436
868.990295,448
869.107727,446
869.225037,441
869.342346,434
869.459717,457
869.577026,452
869.694336,452
869.811707,441
869.929016,460
870.046326,456
870.163635,449
870.280945,466
870.398254,457
870.515564,450
870.632812,458
870.750183,448
870.867432,454
870.984741,439
871.102051,439
871.219299,460
871.336609,460
871.453918,447
871.571106,449
871.688416,461
871.805664,452
871.922852,422
872.040222,442
872.157471,458
872.274719,454
872.391968,462
872.509155,434
872.626465,441
872.743652,448
872.860962,457
872.978149,443
873.095337,457
873.212646,437
873.329834,431
873.44696,459
873.564209,449
873.681396,440
873.798645,450
873.915894,449
874.03302,444
874.150208,462
874.267456,432
874.384583,466
874.501831,443
874.618958,449
874.736145,455
874.853333,450
874.970459,447
875.087646,424
875.204834,462
875.32196,460
875.439148,437
875.556274,451
875.673401,437
875.790527,437
875.907715,446
876.024841,472
876.141968,442
876.259094,466
876.376282,444
876.493347,464
876.610474,443
876.7276,448
876.844727,426
876.961853,439
877.078918,448
877.195984,445
877.313171,434
877.430237,443
877.547302,439
877.664368,459
877.781433,441
877.898499,458
878.015625,433
878.13269,446
878.249695,448
878.366821,452
878.483887,445
878.600952,449
878.717957,459
878.834961,444
878.952087,429
879.069092,445
879.186157,446
879.303162,443
879.420227,426
879.537231,441
879.654236,459
879.77124,439
879.888306,438
880.005249,440
880.122314,465
880.239319,472
880.356323,430
880.473328,448
880.590271,452
880.707275,469
880.824341,448
880.941284,457
881.058228,451
881.175232,456
881.292236,462
881.40918,442
881.526123,464
881.643066,462
881.760071,443
881.877014,451
881.993958,466
882.11084,461
882.227783,456
882.344727,456
882.46167,452
882.578613,455
882.695618,452
882.812439,455
882.929382,435
883.046326,456
883.163208,443
883.280151,462
883.397034,458
883.513916,445
883.630798,455
883.747742,457
883.864563,468
883.981506,448
884.098389,452
884.21521,438
884.332153,460
884.448975,445
884.565796,457
884.682678,446
884.7995,443
884.916443,469
885.033264,456
885.150085,448
885.266968,460
885.383789,464
885.500671,447
885.617493,459
885.734314,458
885.851196,455
885.967896,435
886.084717,440
886.201599,440
886.318359,457
886.435181,455
886.552002,453
886.668762,460
886.785645,457
886.902344,426
887.019165,441
887.135925,454
887.252747,463
887.369446,458
887.486267,449
887.603027,460
887.719788,459
887.836548,464
887.953247,454
888.070068,455
888.186829,450
888.303528,457
888.420288,454
888.536987,437
888.653687,463
888.770447,447
888.887146,458
889.003967,477
889.120667,437
889.237305,472
889.354065,460
889.470703,451
889.587463,460
889.704163,462
889.820862,482
889.937561,468
890.054199,455
890.170837,480
890.287598,436
890.404236,447
890.520874,464
890.637634,452
890.754211,457
890.87085,453
890.987549,453
891.104187,474
891.220886,463
891.337463,469
891.454102,450
891.57074,451
891.687378,461
891.804077,428
891.920654,467
892.037231,453
892.15387,455
892.270447,459
892.387085,461
892.503723,444
892.6203,456
892.736877,479
892.853516,458
892.970032,444
893.08667,468
893.203186,459
893.319763,479
893.43634,454
893.552917,464
893.669556,457
893.786011,454
893.902588,459
894.019165,460
894.135681,438
894.252197,470
894.368835,442
894.485291,454
894.601868,456
894.718384,476
894.8349,455
894.951355,461
895.067932,472
895.184448,452
895.300964,448
895.417419,460
895.533936,454
895.650452,461
895.766907,461
895.883423,470
895.999878,458
896.116333,465
896.232849,455
896.349304,450
896.465759,469
896.582214,450
896.698669,465
896.815125,473
896.931641,466
897.048035,470
897.164551,466
897.280884,459
897.397339,451
897.513794,474
897.630249,469
897.746582,466
897.863098,440
897.979431,450
898.095886,463
898.212341,461
898.328674,460
898.445129,476
898.561462,453
898.677795,455
898.794312,457
898.910645,445
899.026978,469
899.143433,457
899.259766,463
899.37616,457
899.492493,453
899.608765,455
899.725159,450
899.841553,482
899.957947,457
900.07428,440
900.190552,452
900.306946,478
900.423157,457
900.53949,464
900.655884,457
900.772156,477
900.888489,477
901.004822,479
901.121033,444
901.237366,470
901.353699,461
901.46991,461
901.586304,469
901.702515,458
901.818787,454
901.93512,472
902.051331,453
902.167603,478
902.283875,454
902.400085,440
902.516418,460
902.632629,478
902.74884,475
902.865112,462
902.981384,467
903.097595,464
903.213867,456
903.330017,458
903.446289,464
903.5625,460
903.67865,464
903.794922,464
903.911072,449
904.027344,487
904.143494,455
904.259705,444
904.375916,480
904.492065,462
904.608215,463
904.724426,473
904.840576,460
904.956726,464
905.072876,457
905.189087,458
905.305176,473
905.421387,496
905.537537,469
905.653687,481
905.769775,452
905.885925,466
906.002014,466
906.118164,466
906.234314,461
906.350403,473
906.466492,458
906.582642,466
906.69873,455
906.814758,469
906.930908,476
907.046936,459
907.163086,470
907.279175,447
907.395264,477
907.511353,471
907.62738,477
907.743408,465
907.859497,455
907.975525,457
908.091553,465
908.207703,447
908.32373,468
908.439758,478
908.555786,463
908.671814,459
908.787842,471
908.90387,475
909.019775,479
909.135864,469
909.251892,469
909.367859,460
909.483826,472
909.599854,466
909.715881,479
909.831848,477
909.947815,471
910.063782,461
910.179749,453
910.295776,474
910.411743,462
910.527649,470
910.643616,457
910.759583,480
910.875488,481
910.991455,466
911.107361,464
911.223267,471
911.339294,456
911.4552,472
911.571106,450
911.687073,464
911.802979,466
911.918823,489
912.034729,465
912.150635,465
912.266602,470
912.382446,476
912.498352,458
912.614197,466
912.730103,453
912.846008,482
792.44574,612
792.56488,650
792.68396,696
792.80304,667
792.92218,616
793.041199,582
793.160339,621
793.279419,627
793.398499,615
793.517578,611
793.636658,570
793.755737,617
793.874817,610
793.993896,621
794.112976,588
794.232056,580
794.351074,608
794.470215,588
794.589233,594
794.708313,577
794.827393,577
794.946411,593
795.065552,600
795.18457,571
795.303589,602
795.422668,594
795.541687,573
795.660767,600
795.779846,566
795.898865,574
796.017883,576
796.136963,588
796.255981,578
796.375061,568
796.49408,587
796.613037,582
796.732117,545
796.851135,589
796.970154,566
797.089233,564
797.208191,581
797.327271,579
797.446228,594
797.565186,555
797.684265,569
797.803223,578
797.922241,559
798.04126,583
798.160278,576
798.279297,574
798.398315,597
798.517273,569
798.636292,594
798.75531,575
798.874268,587
798.993286,544
799.112244,575
799.231323,573
799.350281,571
799.469238,570
799.588257,585
799.707153,594
799.826111,576
799.945129,568
800.064087,578
800.183044,567
800.302063,591
800.421021,571
800.539978,561
800.658936,588
800.777893,565
800.896912,589
801.015747,575
801.134705,575
801.253723,577
801.37262,577
801.491638,577
801.610535,584
801.729492,592
801.84845,602
801.967407,583
802.086243,596
802.205261,598
802.324158,593
802.443115,564
802.562073,611
802.680969,604
802.799927,606
802.918762,588
803.037659,614
803.156677,580
803.275574,600
803.39447,584
803.513428,615
803.632263,590
803.751221,599
803.870117,603
803.989014,601
804.107971,593
804.226746,587
804.345642,596
804.4646,612
804.583496,605
804.702393,589
804.821228,602
804.940125,615
805.059021,587
805.177917,598
805.296814,618
805.415649,607
805.534546,610
805.653442,627
805.772278,581
805.891113,618
806.01001,600
806.128906,620
806.247742,592
806.366577,615
806.485413,629
806.604309,591
806.723145,598
806.84198,592
806.960876,629
807.079712,623
807.198486,613
807.317383,597
807.436218,618
807.554993,641
807.673889,619
807.792725,614
807.91156,603
808.030396,608
808.14917,603
808.268005,593
808.386841,605
808.505676,621
808.624451,589
808.743286,620
808.862122,622
808.980896,602
809.099731,610
809.218506,647
809.337341,621
809.456116,625
809.57489,618
809.693726,650
809.8125,646
809.931274,647
810.050049,619
810.168884,613
810.287659,638
810.406372,625
810.525269,633
810.643982,620
810.762756,624
810.881531,629
811.000305,639
811.11908,630
811.237854,610
811.356567,631
811.475403,633
811.594116,642
811.71283,618
811.831604,641
811.950378,636
812.069153,604
812.187927,650
812.30658,629
812.425415,603
812.544128,635
812.662781,637
812.781616,625
812.900269,633
813.019043,619
813.137756,640
813.256531,640
813.375244,636
813.493896,653
813.612671,641
813.731384,642
813.850037,612
813.96875,616
814.087524,623
814.206238,634
814.324951,616
814.443604,626
814.562256,622
814.68103,637
814.799683,606
814.918335,612
815.037109,632
815.155762,625
815.274475,626
815.393188,613
815.511841,639
815.630554,609
815.749146,602
815.867859,612
815.986572,588
816.105164,618
816.223877,601
816.342529,598
816.461182,620
816.579895,600
816.698486,605
816.817139,608
816.935791,607
817.054504,640
817.173096,626
817.291748,617
817.4104,600
817.529053,613
817.647644,602
817.766235,582
817.884949,592
818.00354,558
818.122192,553
818.240845,575
818.359436,553
818.478088,542
818.59668,539
818.715271,541
818.833923,523
818.952515,520
819.071106,507
819.189758,512
819.30835,521
819.426941,494
819.545532,503
819.664124,499
819.782715,491
819.901306,499
820.019897,492
820.138489,501
820.25708,501
820.375671,484
820.494202,497
820.612732,483
820.731384,497
820.849915,479
820.968506,485
821.087097,483
821.205627,486
821.324158,494
821.442749,498
821.561279,479
821.679871,498
821.798401,492
821.916931,479
822.035461,492
822.154053,472
822.272583,479
822.391174,480
822.509583,473
822.628174,496
822.746704,497
822.865234,477
822.983765,486
823.102295,482
823.220825,466
823.339294,483
823.457825,466
823.576355,487
823.694824,485
823.813354,467
823.931885,485
824.050354,464
824.168884,460
824.287354,495
824.405823,490
824.524353,493
824.642822,484
824.761353,490
824.879822,499
824.998291,474
825.116699,487
825.235291,481
825.353699,484
825.472168,500
825.590637,460
825.709106,468
825.827576,483
825.946045,449
826.064453,474
826.182983,483
826.301392,467
826.4198,465
826.53833,477
826.656738,480
826.775208,459
826.893677,462
827.012024,474
827.130493,453
827.248962,463
827.36731,474
827.485779,472
827.604248,466
827.722595,465
827.841064,455
827.959412,472
828.077942,469
828.196289,464
828.314636,487
828.433105,444
828.551514,468
828.669861,450
828.78833,470
828.906677,450
829.025085,440
829.143433,475
829.261841,454
829.38031,456
829.498657,444
829.617004,451
829.735413,459
829.85376,464
829.972107,457
830.090515,460
830.208862,461
830.327209,451
830.445557,456
830.563904,451
830.682312,457
830.800659,469
830.919006,451
831.037354,472
831.155701,450
831.274048,459
831.392395,445
831.51062,459
831.629028,461
831.747314,465
831.865662,458
831.984009,463
832.102356,451
832.220642,465
832.338928,449
832.457275,460
832.575623,461
832.693909,451
832.812134,451
832.930481,467
833.048828,456
833.167114,459
833.2854,440
833.403687,457
833.521973,446
833.640259,469
833.758545,465
833.876831,456
833.995056,448
834.113281,467
834.231628,465
834.349915,460
834.468201,465
834.586426,443
834.704651,457
834.822998,468
834.941162,441
835.059448,470
835.177673,472
835.295959,471
835.414246,444
835.53241,459
835.650635,458
835.768921,454
835.887146,454
836.005371,462
836.123596,437
836.241821,449
836.360046,473
836.478271,475
836.596497,461
836.714722,454
836.832886,475
836.95105,470
837.069336,477
837.1875,485
837.305725,457
837.423889,478
837.542053,497
837.660339,475
837.778503,480
837.896667,479
838.014832,481
838.132996,469
838.25116,482
838.369385,474
838.487488,482
838.605713,456
838.723877,468
838.84198,484
838.960205,473
839.078308,485
839.196472,469
839.314636,454
839.4328,476
839.550964,472
839.669067,447
839.787231,472
839.905396,475
840.023499,472
840.141602,485
840.259766,474
840.377869,457
840.495972,458
840.614136,472
840.732239,469
840.850342,443
840.968445,462
841.086548,433
841.204651,464
841.322754,459
841.440918,454
841.55896,448
841.677002,458
841.795166,474
841.913208,460
842.031311,468
842.149353,466
842.267456,444
842.385498,453
842.503601,447
842.621643,462
842.739746,433
842.857788,450
842.97583,455
843.093933,459
843.211975,456
843.330017,437
843.44812,464
843.566101,431
843.684204,468
843.802246,442
843.920227,459
844.038269,452
844.156311,448
844.274292,442
844.392395,441
844.510376,438
844.628357,436
844.74646,440
844.864441,447
844.982422,443
845.100403,467
845.218384,457
845.336426,434
845.454468,461
845.572449,439
845.69043,434
845.808411,437
845.926453,450
846.044373,454
846.162354,449
846.280396,465
846.398315,439
846.516296,441
846.634216,439
846.752197,444
846.870178,460
846.988098,452
847.106079,452
847.22406,460
847.34198,449
847.4599,458
847.577881,444
847.695801,461
847.813782,443
847.931641,444
848.049561,460
848.167603,444
848.285461,450
848.403381,447
848.521362,451
848.639221,431
848.75708,443
848.875,447
848.99292,452
849.110901,467
849.22876,432
849.34668,441
849.464539,455
849.582458,466
849.700317,456
849.818176,441
849.936096,436
850.053955,465
850.171875,452
850.289673,434
850.407593,433
850.525452,452
850.643311,448
850.761169,441
850.878967,430
850.996887,451
851.114746,449
851.232544,466
851.350403,441
851.468262,452
851.58606,458
851.703979,445
851.821777,465
851.939636,460
852.057434,452
852.175232,460
852.293091,443
852.410889,448
852.528687,448
852.646545,449
852.764343,448
852.88208,453
852.999939,471
853.117676,472
853.235535,441
853.353271,462
853.471069,446
853.588928,435
853.706604,448
853.824402,452
853.9422,446
854.059998,444
854.177734,460
854.295532,449
854.413269,460
854.531006,433
854.648804,449
854.766541,458
854.884277,455
855.002014,438
855.119751,450
855.237549,457
855.355225,433
855.473022,446
855.590698,458
855.708435,465
855.826172,454
855.943848,468
856.061646,449
856.179321,457
856.296997,457
856.414795,448
856.53241,470
856.650085,470
856.767822,448
856.885559,470
857.003174,462
857.120911,458
857.238586,465
857.356201,453
857.473938,451
857.591614,466
857.709351,459
857.826965,456
857.944641,456
858.062317,436
858.179993,449
858.297668,443
858.415283,452
858.532959,451
858.650574,450
858.768188,451
858.885803,453
859.003479,454
859.121094,459
859.23877,435
859.356384,454
859.473999,456
859.591675,457
859.709229,466
859.826843,466
859.944458,447
860.062012,450
860.179626,454
860.297302,455
860.414856,467
860.532471,442
860.650024,448
860.767639,475
860.885193,427
861.002808,460
861.120361,446
861.237976,441
861.35553,453
861.473022,444
861.590698,474
861.708191,442
861.825745,462
861.943298,440
862.060852,432
862.178406,456
862.295959,456
862.413513,441
862.531006,454
862.64856,469
862.766113,455
862.883667,459
863.00116,448
863.118713,470
863.236206,439
863.353699,470
863.471252,455
863.588745,470
863.706177,462
863.82373,445
863.941162,423
864.058716,460
864.176208,454
864.29364,470
864.411194,424
864.528687,447
864.646118,451
864.763611,450
864.881042,449
864.998535,456
865.116028,441
865.233459,463
865.350891,440
865.468384,464
865.585754,453
865.703308,459
865.820679,460
865.938171,454
866.055542,438
866.173035,435
866.290466,465
866.407837,461
866.52533,484
866.6427,451
866.760071,462
866.877563,448
866.994934,458
867.112305,449
867.229736,472
867.347107,442
867.464539,440
867.58197,439
867.699341,457
867.81665,465
867.934082,455
868.051453,436
868.168823,470
868.286194,453
868.403564,467
868.520935,439
868.638306,483
868.755676,464
868.872986,460
868.990295,442
869.107727,445
869.225037,451
869.342346,454
869.459717,433
869.577026,464
869.694336,452
869.811707,469
869.929016,461
870.046326,446
870.163635,464
870.280945,426
870.398254,455
870.515564,446
870.632812,465
870.750183,448
870.867432,458
870.984741,459
871.102051,463
871.219299,453
871.336609,448
871.453918,433
871.571106,458
871.688416,468
871.805664,474
871.922852,447
872.040222,451
872.157471,456
872.274719,458
872.391968,454
872.509155,459
872.626465,448
872.743652,448
872.860962,446
872.978149,439
873.095337,452
873.212646,483
873.329834,441
873.44696,463
873.564209,451
873.681396,450
873.798645,450
873.915894,448
874.03302,433
874.150208,442
874.267456,474
874.384583,433
874.501831,461
874.618958,454
874.736145,450
874.853333,462
874.970459,457
875.087646,452
875.204834,446
875.32196,452
875.439148,458
875.556274,445
875.673401,469
875.790527,423
875.907715,467
876.024841,469
876.141968,445
876.259094,457
876.376282,442
876.493347,466
876.610474,455
876.7276,453
876.844727,436
876.961853,464
877.078918,460
877.195984,465
877.313171,465
877.430237,452
877.547302,456
877.664368,454
877.781433,450
877.898499,445
878.015625,450
878.13269,456
878.249695,452
878.366821,447
878.483887,446
878.600952,460
878.717957,464
878.834961,458
878.952087,454
879.069092,449
879.186157,441
879.303162,445
879.420227,466
879.537231,442
879.654236,428
879.77124,461
879.888306,452
880.005249,446
880.122314,445
880.239319,456
880.356323,447
880.473328,462
880.590271,453
880.707275,446
880.824341,446
880.941284,449
881.058228,456
881.175232,449
881.292236,463
881.40918,456
881.526123,443
881.643066,453
881.760071,462
881.877014,450
881.993958,442
882.11084,462
882.227783,466
882.344727,442
882.46167,460
882.578613,469
882.695618,439
882.812439,455
882.929382,463
883.046326,452
883.163208,457
883.280151,460
883.397034,452
883.513916,444
883.630798,482
883.747742,450
883.864563,450
883.981506,463
884.098389,435
884.21521,451
884.332153,461
884.448975,452
884.565796,460
884.682678,441
884.7995,440
884.916443,470
885.033264,439
885.150085,460
885.266968,439
885.383789,455
885.500671,472
885.617493,486
885.734314,447
885.851196,446
885.967896,483
886.084717,457
886.201599,464
886.318359,450
886.435181,450
886.552002,454
886.668762,434
886.785645,466
886.902344,455
887.019165,475
887.135925,457
887.252747,456
887.369446,450
887.486267,457
887.603027,459
887.719788,462
887.836548,469
887.953247,451
888.070068,460
888.186829,475
888.303528,448
888.420288,438
888.536987,454
888.653687,455
888.770447,458
888.887146,462
889.003967,451
889.120667,447
889.237305,454
889.354065,470
889.470703,467
889.587463,467
889.704163,461
889.820862,450
889.937561,454
890.054199,457
890.170837,462
890.287598,452
890.404236,452
890.520874,442
890.637634,466
890.754211,465
890.87085,452
890.987549,460
891.104187,457
891.220886,454
891.337463,446
891.454102,475
891.57074,475
891.687378,461
891.804077,454
891.920654,469
892.037231,450
892.15387,468
892.270447,460
892.387085,453
892.503723,458
892.6203,458
892.736877,458
892.853516,485
892.970032,452
893.08667,450
893.203186,444
893.319763,451
893.43634,460
893.552917,458
893.669556,465
893.786011,456
893.902588,461
894.019165,459
894.135681,443
894.252197,453
894.368835,468
894.485291,458
894.601868,469
894.718384,455
894.8349,457
894.951355,451
895.067932,458
895.184448,467
895.300964,475
895.417419,447
895.533936,481
895.650452,460
895.766907,472
895.883423,493
895.999878,443
896.116333,470
896.232849,466
896.349304,471
896.465759,441
896.582214,483
896.698669,476
896.815125,449
896.931641,457
897.048035,462
897.164551,462
897.280884,477
897.397339,452
897.513794,468
897.630249,463
897.746582,452
897.863098,460
897.979431,468
898.095886,455
898.212341,471
898.328674,468
898.445129,459
898.561462,475
898.677795,462
898.794312,456
898.910645,460
899.026978,474
899.143433,468
899.259766,461
899.37616,477
899.492493,456
899.608765,474
899.725159,456
899.841553,476
899.957947,475
900.07428,480
900.190552,444
900.306946,479
900.423157,463
900.53949,478
900.655884,464
900.772156,466
900.888489,453
901.004822,461
901.121033,460
901.237366,475
901.353699,463
901.46991,460
901.586304,468
901.702515,468
901.818787,470
901.93512,450
902.051331,468
902.167603,473
902.283875,467
902.400085,463
902.516418,466
902.632629,465
902.74884,479
902.865112,469
902.981384,465
903.097595,459
903.213867,468
903.330017,474
903.446289,469
903.5625,471
903.67865,448
903.794922,476
903.911072,465
904.027344,482
904.143494,457
904.259705,465
904.375916,460
904.492065,475
904.608215,455
904.724426,466
904.840576,478
904.956726,477
905.072876,474
905.189087,463
905.305176,463
905.421387,466
905.537537,468
905.653687,450
905.769775,465
905.885925,478
906.002014,487
906.118164,453
906.234314,477
906.350403,475
906.466492,458
906.582642,489
906.69873,446
906.814758,483
906.930908,458
907.046936,475
907.163086,479
907.279175,466
907.395264,478
907.511353,480
907.62738,478
907.743408,486
907.859497,464
907.975525,477
908.091553,476
908.207703,475
908.32373,463
908.439758,455
908.555786,467
908.671814,473
908.787842,472
908.90387,482
909.019775,473
909.135864,468
909.251892,455
909.367859,503
909.483826,476
909.599854,477
909.715881,470
909.831848,477
909.947815,478
910.063782,491
910.179749,462
910.295776,474
910.411743,465
910.527649,462
910.643616,450
910.759583,481
910.875488,463
910.991455,474
911.107361,483
911.223267,467
911.339294,459
911.4552,447
911.571106,457
911.687073,471
911.802979,488
911.918823,485
912.034729,481
912.150635,465
912.266602,492
912.382446,474
912.498352,471
912.614197,461
912.730103,468
912.846008,471
