792.44574,631
792.56488,649
792.68396,723
792.80304,650
792.92218,633
793.041199,616
793.160339,580
793.279419,623
793.398499,633
793.517578,577
793.636658,608
793.755737,605
793.874817,630
793.993896,629
794.112976,616
794.232056,596
794.351074,619
794.470215,607
794.589233,593
794.708313,572
794.827393,606
794.946411,594
795.065552,605
795.18457,600
795.303589,591
795.422668,605
795.541687,596
795.660767,579
795.779846,585
795.898865,584
796.017883,609
796.136963,588
796.255981,608
796.375061,597
796.49408,590
796.613037,598
796.732117,607
796.851135,583
796.970154,588
797.089233,585
797.208191,603
797.327271,576
797.446228,598
797.565186,577
797.684265,600
797.803223,576
797.922241,602
798.04126,580
798.160278,597
798.279297,580
798.398315,574
798.517273,581
798.636292,576
798.75531,586
798.874268,578
798.993286,581
799.112244,591
799.231323,588
799.350281,581
799.469238,582
799.588257,589
799.707153,577
799.826111,600
799.945129,561
800.064087,584
800.183044,593
800.302063,567
800.421021,581
800.539978,581
800.658936,582
800.777893,573
800.896912,560
801.015747,595
801.134705,599
801.253723,557
801.37262,600
801.491638,563
801.610535,582
801.729492,606
801.84845,585
801.967407,588
802.086243,559
802.205261,603
802.324158,585
802.443115,593
802.562073,588
802.680969,592
802.799927,599
802.918762,580
803.037659,589
803.156677,597
803.275574,583
803.39447,603
803.513428,577
803.632263,595
803.751221,589
803.870117,601
803.989014,576
804.107971,616
804.226746,611
804.345642,601
804.4646,582
804.583496,587
804.702393,596
804.821228,598
804.940125,600
805.059021,611
805.177917,610
805.296814,609
805.415649,629
805.534546,620
805.653442,603
805.772278,629
805.891113,600
806.01001,598
806.128906,621
806.247742,608
806.366577,611
806.485413,615
806.604309,595
806.723145,619
806.84198,603
806.960876,573
807.079712,592
807.198486,622
807.317383,626
807.436218,627
807.554993,613
807.673889,617
807.792725,605
807.91156,606
808.030396,634
808.14917,620
808.268005,606
808.386841,601
808.505676,612
808.624451,617
808.743286,605
808.862122,614
808.980896,607
809.099731,626
809.218506,628
809.337341,621
809.456116,626
809.57489,627
809.693726,643
809.8125,641
809.931274,614
810.050049,651
810.168884,634
810.287659,657
810.406372,602
810.525269,627
810.643982,605
810.762756,617
810.881531,631
811.000305,645
811.11908,611
811.237854,642
811.356567,627
811.475403,655
811.594116,628
811.71283,589
811.831604,601
811.950378,625
812.069153,633
812.187927,628
812.30658,634
812.425415,648
812.544128,627
812.662781,632
812.781616,632
812.900269,631
813.019043,628
813.137756,615
813.256531,637
813.375244,634
813.493896,602
813.612671,635
813.731384,619
813.850037,633
813.96875,636
814.087524,600
814.206238,617
814.324951,620
814.443604,612
814.562256,617
814.68103,628
814.799683,618
814.918335,604
815.037109,638
815.155762,612
815.274475,626
815.393188,609
815.511841,640
815.630554,609
815.749146,625
815.867859,585
815.986572,606
816.105164,593
816.223877,621
816.342529,581
816.461182,612
816.579895,608
816.698486,624
816.817139,631
816.935791,625
817.054504,629
817.173096,590
817.291748,633
817.4104,609
817.529053,593
817.647644,599
817.766235,574
817.884949,596
818.00354,587
818.122192,585
818.240845,549
818.359436,560
818.478088,548
818.59668,525
818.715271,529
818.833923,523
818.952515,525
819.071106,529
819.189758,507
819.30835,509
819.426941,487
819.545532,509
819.664124,490
819.782715,490
819.901306,513
820.019897,497
820.138489,495
820.25708,498
820.375671,508
820.494202,490
820.612732,517
820.731384,500
820.849915,497
820.968506,488
821.087097,490
821.205627,475
821.324158,474
821.442749,493
821.561279,504
821.679871,499
821.798401,477
821.916931,490
822.035461,476
822.154053,511
822.272583,499
822.391174,500
822.509583,469
822.628174,483
822.746704,491
822.865234,499
822.983765,472
823.102295,484
823.220825,477
823.339294,492
823.457825,474
823.576355,474
823.694824,477
823.813354,496
823.931885,493
824.050354,471
824.168884,494
824.287354,494
824.405823,477
824.524353,514
824.642822,487
824.761353,488
824.879822,490
824.998291,493
825.116699,495
825.235291,482
825.353699,482
825.472168,467
825.590637,467
825.709106,487
825.827576,480
825.946045,471
826.064453,485
826.182983,478
826.301392,460
826.4198,473
826.53833,472
826.656738,462
826.775208,468
826.893677,473
827.012024,472
827.130493,461
827.248962,454
827.36731,455
827.485779,482
827.604248,471
827.722595,445
827.841064,451
827.959412,462
828.077942,463
828.196289,475
828.314636,479
828.433105,466
828.551514,458
828.669861,458
828.78833,463
828.906677,457
829.025085,450
829.143433,451
829.261841,470
829.38031,452
829.498657,459
829.617004,460
829.735413,473
829.85376,446
829.972107,458
830.090515,463
830.208862,481
830.327209,461
830.445557,451
830.563904,455
830.682312,465
830.800659,454
830.919006,462
831.037354,445
831.155701,479
831.274048,438
831.392395,478
831.51062,458
831.629028,446
831.747314,455
831.865662,487
831.984009,460
832.102356,460
832.220642,466
832.338928,458
832.457275,445
832.575623,447
832.693909,458
832.812134,449
832.930481,436
833.048828,440
833.167114,451
833.2854,468
833.403687,457
833.521973,466
833.640259,444
833.758545,447
833.876831,457
833.995056,464
834.113281,463
834.231628,477
834.349915,455
834.468201,450
834.586426,440
834.704651,475
834.822998,462
834.941162,461
835.059448,450
835.177673,444
835.295959,482
835.414246,469
835.53241,460
835.650635,456
835.768921,453
835.887146,476
836.005371,458
836.123596,470
836.241821,468
836.360046,471
836.478271,466
836.596497,470
836.714722,475
836.832886,494
836.95105,480
837.069336,474
837.1875,469
837.305725,481
837.423889,460
837.542053,489
837.660339,492
837.778503,471
837.896667,473
838.014832,473
838.132996,471
838.25116,462
838.369385,460
838.487488,456
838.605713,466
838.723877,471
838.84198,483
838.960205,473
839.078308,476
839.196472,466
839.314636,471
839.4328,464
839.550964,456
839.669067,461
839.787231,468
839.905396,489
840.023499,472
840.141602,465
840.259766,467
840.377869,483
840.495972,471
840.614136,497
840.732239,463
840.850342,473
840.968445,457
841.086548,473
841.204651,460
841.322754,455
841.440918,472
841.55896,484
841.677002,459
841.795166,466
841.913208,461
842.031311,474
842.149353,435
842.267456,468
842.385498,475
842.503601,474
842.621643,442
842.739746,459
842.857788,463
842.97583,447
843.093933,455
843.211975,446
843.330017,448
843.44812,486
843.566101,456
843.684204,439
843.802246,454
843.920227,458
844.038269,455
844.156311,450
844.274292,449
844.392395,467
844.510376,444
844.628357,449
844.74646,423
844.864441,444
844.982422,447
845.100403,450
845.218384,437
845.336426,444
845.454468,455
845.572449,467
845.69043,461
845.808411,475
845.926453,459
846.044373,458
846.162354,450
846.280396,450
846.398315,438
846.516296,444
846.634216,454
846.752197,470
846.870178,456
846.988098,466
847.106079,443
847.22406,457
847.34198,449
847.4599,465
847.577881,442
847.695801,457
847.813782,445
847.931641,465
848.049561,466
848.167603,437
848.285461,464
848.403381,441
848.521362,449
848.639221,450
848.75708,456
848.875,443
848.99292,444
849.110901,438
849.22876,452
849.34668,438
849.464539,442
849.582458,458
849.700317,439
849.818176,460
849.936096,447
850.053955,459
850.171875,440
850.289673,448
850.407593,437
850.525452,452
850.643311,461
850.761169,441
850.878967,434
850.996887,441
851.114746,447
851.232544,446
851.350403,434
851.468262,446
851.58606,462
851.703979,470
851.821777,471
851.939636,440
852.057434,450
852.175232,442
852.293091,455
852.410889,461
852.528687,448
852.646545,487
852.764343,451
852.88208,473
852.999939,459
853.117676,461
853.235535,450
853.353271,467
853.471069,452
853.588928,431
853.706604,453
853.824402,460
853.9422,472
854.059998,452
854.177734,431
854.295532,444
854.413269,416
854.531006,468
854.648804,454
854.766541,437
854.884277,455
855.002014,442
855.119751,448
855.237549,477
855.355225,449
855.473022,460
855.590698,459
855.708435,442
855.826172,438
855.943848,475
856.061646,458
856.179321,459
856.296997,439
856.414795,480
856.53241,461
856.650085,453
856.767822,461
856.885559,465
857.003174,455
857.120911,456
857.238586,460
857.356201,462
857.473938,456
857.591614,444
857.709351,460
857.826965,476
857.944641,471
858.062317,455
858.179993,453
858.297668,448
858.415283,437
858.532959,467
858.650574,461
858.768188,480
858.885803,464
859.003479,454
859.121094,442
859.23877,452
859.356384,454
859.473999,447
859.591675,453
859.709229,452
859.826843,443
859.944458,485
860.062012,448
860.179626,446
860.297302,441
860.414856,436
860.532471,448
860.650024,446
860.767639,440
860.885193,450
861.002808,443
861.120361,468
861.237976,449
861.35553,464
861.473022,453
861.590698,452
861.708191,457
861.825745,439
861.943298,440
862.060852,449
862.178406,450
862.295959,444
862.413513,444
862.531006,441
862.64856,445
862.766113,448
862.883667,433
863.00116,424
863.118713,435
863.236206,453
863.353699,443
863.471252,466
863.588745,446
863.706177,442
863.82373,442
863.941162,474
864.058716,443
864.176208,459
864.29364,451
864.411194,452
864.528687,438
864.646118,474
864.763611,439
864.881042,451
864.998535,451
865.116028,451
865.233459,450
865.350891,457
865.468384,457
865.585754,468
865.703308,431
865.820679,447
865.938171,453
866.055542,444
866.173035,447
866.290466,471
866.407837,441
866.52533,450
866.6427,457
866.760071,451
866.877563,452
866.994934,460
867.112305,441
867.229736,448
867.347107,444
867.464539,447
867.58197,431
867.699341,464
867.81665,457
867.934082,459
868.051453,457
868.168823,453
868.286194,453
868.403564,446
868.520935,443
868.638306,454
868.755676,460
868.872986,476
868.990295,459
869.107727,443
869.225037,441
869.342346,476
869.459717,450
869.577026,445
869.694336,473
869.811707,474
869.929016,449
870.046326,476
870.163635,458
870.280945,455
870.398254,460
870.515564,453
870.632812,444
870.750183,455
870.867432,457
870.984741,466
871.102051,449
871.219299,466
871.336609,461
871.453918,460
871.571106,454
871.688416,468
871.805664,457
871.922852,474
872.040222,452
872.157471,462
872.274719,457
872.391968,476
872.509155,438
872.626465,430
872.743652,439
872.860962,460
872.978149,439
873.095337,461
873.212646,450
873.329834,451
873.44696,445
873.564209,443
873.681396,456
873.798645,463
873.915894,458
874.03302,470
874.150208,461
874.267456,460
874.384583,453
874.501831,461
874.618958,429
874.736145,447
874.853333,428
874.970459,462
875.087646,460
875.204834,461
875.32196,446
875.439148,449
875.556274,460
875.673401,451
875.790527,448
875.907715,451
876.024841,439
876.141968,456
876.259094,448
876.376282,445
876.493347,447
876.610474,465
876.7276,450
876.844727,449
876.961853,452
877.078918,460
877.195984,456
877.313171,454
877.430237,454
877.547302,464
877.664368,450
877.781433,455
877.898499,447
878.015625,438
878.13269,455
878.249695,464
878.366821,442
878.483887,457
878.600952,436
878.717957,449
878.834961,447
878.952087,474
879.069092,455
879.186157,458
879.303162,438
879.420227,462
879.537231,442
879.654236,444
879.77124,437
879.888306,447
880.005249,450
880.122314,455
880.239319,472
880.356323,447
880.473328,467
880.590271,454
880.707275,436
880.824341,457
880.941284,435
881.058228,459
881.175232,453
881.292236,447
881.40918,441
881.526123,463
881.643066,446
881.760071,462
881.877014,459
881.993958,449
882.11084,450
882.227783,438
882.344727,455
882.46167,444
882.578613,453
882.695618,443
882.812439,459
882.929382,468
883.046326,464
883.163208,451
883.280151,463
883.397034,447
883.513916,460
883.630798,473
883.747742,450
883.864563,449
883.981506,459
884.098389,448
884.21521,448
884.332153,454
884.448975,456
884.565796,451
884.682678,446
884.7995,454
884.916443,447
885.033264,458
885.150085,442
885.266968,456
885.383789,446
885.500671,464
885.617493,476
885.734314,471
885.851196,462
885.967896,430
886.084717,451
886.201599,459
886.318359,488
886.435181,481
886.552002,466
886.668762,462
886.785645,463
886.902344,459
887.019165,450
887.135925,454
887.252747,432
887.369446,463
887.486267,448
887.603027,461
887.719788,454
887.836548,453
887.953247,448
888.070068,451
888.186829,456
888.303528,452
888.420288,454
888.536987,454
888.653687,471
888.770447,472
888.887146,451
889.003967,453
889.120667,452
889.237305,445
889.354065,463
889.470703,472
889.587463,441
889.704163,454
889.820862,462
889.937561,459
890.054199,456
890.170837,457
890.287598,445
890.404236,464
890.520874,443
890.637634,479
890.754211,451
890.87085,472
890.987549,472
891.104187,484
891.220886,461
891.337463,466
891.454102,464
891.57074,451
891.687378,449
891.804077,469
891.920654,481
892.037231,464
892.15387,466
892.270447,467
892.387085,459
892.503723,453
892.6203,444
892.736877,460
892.853516,440
892.970032,444
893.08667,446
893.203186,463
893.319763,467
893.43634,478
893.552917,452
893.669556,452
893.786011,463
893.902588,461
894.019165,465
894.135681,461
894.252197,441
894.368835,450
894.485291,470
894.601868,446
894.718384,467
894.8349,464
894.951355,451
895.067932,461
895.184448,438
895.300964,464
895.417419,473
895.533936,458
895.650452,456
895.766907,453
895.883423,461
895.999878,465
896.116333,468
896.232849,484
896.349304,444
896.465759,458
896.582214,445
896.698669,479
896.815125,441
896.931641,449
897.048035,435
897.164551,457
897.280884,441
897.397339,469
897.513794,463
897.630249,472
897.746582,467
897.863098,473
897.979431,458
898.095886,456
898.212341,443
898.328674,476
898.445129,447
898.561462,469
898.677795,465
898.794312,449
898.910645,451
899.026978,468
899.143433,460
899.259766,465
899.37616,468
899.492493,459
899.608765,462
899.725159,460
899.841553,453
899.957947,472
900.07428,447
900.190552,459
900.306946,476
900.423157,455
900.53949,461
900.655884,466
900.772156,465
900.888489,482
901.004822,438
901.121033,470
901.237366,446
901.353699,462
901.46991,470
901.586304,473
901.702515,468
901.818787,458
901.93512,461
902.051331,477
902.167603,450
902.283875,460
902.400085,458
902.516418,456
902.632629,470
902.74884,453
902.865112,458
902.981384,466
903.097595,466
903.213867,475
903.330017,459
903.446289,485
903.5625,467
903.67865,457
903.794922,473
903.911072,479
904.027344,487
904.143494,461
904.259705,453
904.375916,477
904.492065,461
904.608215,468
904.724426,457
904.840576,466
904.956726,482
905.072876,463
905.189087,460
905.305176,464
905.421387,456
905.537537,466
905.653687,473
905.769775,436
905.885925,452
906.002014,441
906.118164,480
906.234314,472
906.350403,448
906.466492,485
906.582642,455
906.69873,472
906.814758,473
906.930908,470
907.046936,467
907.163086,474
907.279175,478
907.395264,484
907.511353,477
907.62738,455
907.743408,474
907.859497,485
907.975525,464
908.091553,468
908.207703,448
908.32373,476
908.439758,461
908.555786,471
908.671814,460
908.787842,483
908.90387,464
909.019775,470
909.135864,472
909.251892,474
909.367859,463
909.483826,476
909.599854,475
909.715881,465
909.831848,460
909.947815,474
910.063782,466
910.179749,458
910.295776,462
910.411743,457
910.527649,453
910.643616,468
910.759583,463
910.875488,466
910.991455,455
911.107361,471
911.223267,474
911.339294,465
911.4552,447
911.571106,464
911.687073,451
911.802979,471
911.918823,455
912.034729,466
912.150635,470
912.266602,462
912.382446,466
912.498352,457
912.614197,449
912.730103,467
912.846008,469
792.44574,609
792.56488,637
792.68396,689
792.80304,685
792.92218,650
793.041199,610
793.160339,614
793.279419,606
793.398499,646
793.517578,601
793.636658,624
793.755737,639
793.874817,641
793.993896,630
794.112976,587
794.232056,600
794.351074,614
794.470215,621
794.589233,612
794.708313,609
794.827393,598
794.946411,595
795.065552,612
795.18457,601
795.303589,575
795.422668,594
795.541687,590
795.660767,583
795.779846,601
795.898865,582
796.017883,594
796.136963,608
796.255981,597
796.375061,602
796.49408,601
796.613037,581
796.732117,563
796.851135,598
796.970154,590
797.089233,558
797.208191,574
797.327271,583
797.446228,558
797.565186,561
797.684265,577
797.803223,550
797.922241,578
798.04126,588
798.160278,583
798.279297,571
798.398315,565
798.517273,586
798.636292,578
798.75531,587
798.874268,560
798.993286,584
799.112244,575
799.231323,575
799.350281,572
799.469238,590
799.588257,561
799.707153,582
799.826111,594
799.945129,592
800.064087,604
800.183044,562
800.302063,588
800.421021,589
800.539978,584
800.658936,555
800.777893,576
800.896912,587
801.015747,583
801.134705,572
801.253723,579
801.37262,592
801.491638,576
801.610535,599
801.729492,600
801.84845,597
801.967407,580
802.086243,585
802.205261,586
802.324158,608
802.443115,585
802.562073,568
802.680969,596
802.799927,618
802.918762,603
803.037659,608
803.156677,593
803.275574,594
803.39447,576
803.513428,588
803.632263,593
803.751221,602
803.870117,591
803.989014,604
804.107971,598
804.226746,595
804.345642,630
804.4646,607
804.583496,625
804.702393,610
804.821228,594
804.940125,601
805.059021,598
805.177917,608
805.296814,609
805.415649,603
805.534546,618
805.653442,594
805.772278,595
805.891113,616
806.01001,597
806.128906,613
806.247742,630
806.366577,592
806.485413,633
806.604309,598
806.723145,590
806.84198,611
806.960876,612
807.079712,612
807.198486,627
807.317383,613
807.436218,613
807.554993,624
807.673889,634
807.792725,636
807.91156,590
808.030396,606
808.14917,634
808.268005,610
808.386841,625
808.505676,623
808.624451,634
808.743286,598
808.862122,607
808.980896,637
809.099731,624
809.218506,620
809.337341,628
809.456116,614
809.57489,633
809.693726,619
809.8125,630
809.931274,641
810.050049,631
810.168884,643
810.287659,613
810.406372,624
810.525269,638
810.643982,616
810.762756,631
810.881531,623
811.000305,613
811.11908,634
811.237854,619
811.356567,636
811.475403,645
811.594116,629
811.71283,648
811.831604,641
811.950378,646
812.069153,621
812.187927,633
812.30658,632
812.425415,632
812.544128,653
812.662781,617
812.781616,630
812.900269,630
813.019043,642
813.137756,620
813.256531,641
813.375244,632
813.493896,628
813.612671,626
813.731384,637
813.850037,617
813.96875,634
814.087524,616
814.206238,642
814.324951,640
814.443604,615
814.562256,617
814.68103,658
814.799683,634
814.918335,608
815.037109,632
815.155762,620
815.274475,619
815.393188,629
815.511841,621
815.630554,606
815.749146,603
815.867859,595
815.986572,606
816.105164,611
816.223877,617
816.342529,600
816.461182,605
816.579895,623
816.698486,643
816.817139,626
816.935791,611
817.054504,626
817.173096,625
817.291748,611
817.4104,606
817.529053,596
817.647644,595
817.766235,592
817.884949,591
818.00354,571
818.122192,569
818.240845,556
818.359436,559
818.478088,553
818.59668,556
818.715271,545
818.833923,530
818.952515,513
819.071106,511
819.189758,535
819.30835,495
819.426941,522
819.545532,506
819.664124,497
819.782715,505
819.901306,505
820.019897,510
820.138489,487
820.25708,523
820.375671,513
820.494202,511
820.612732,494
820.731384,496
820.849915,495
820.968506,476
821.087097,493
821.205627,496
821.324158,496
821.442749,498
821.561279,482
821.679871,478
821.798401,505
821.916931,482
822.035461,461
822.154053,494
822.272583,486
822.391174,480
822.509583,489
822.628174,504
822.746704,499
822.865234,482
822.983765,490
823.102295,494
823.220825,494
823.339294,501
823.457825,476
823.576355,485
823.694824,490
823.813354,502
823.931885,482
824.050354,478
824.168884,495
824.287354,493
824.405823,497
824.524353,510
824.642822,477
824.761353,496
824.879822,479
824.998291,476
825.116699,474
825.235291,491
825.353699,486
825.472168,479
825.590637,487
825.709106,486
825.827576,492
825.946045,487
826.064453,472
826.182983,474
826.301392,481
826.4198,479
826.53833,482
826.656738,463
826.775208,464
826.893677,483
827.012024,484
827.130493,474
827.248962,465
827.36731,454
827.485779,467
827.604248,477
827.722595,469
827.841064,466
827.959412,467
828.077942,461
828.196289,457
828.314636,476
828.433105,481
828.551514,476
828.669861,480
828.78833,478
828.906677,467
829.025085,476
829.143433,464
829.261841,459
829.38031,456
829.498657,464
829.617004,477
829.735413,478
829.85376,465
829.972107,461
830.090515,447
830.208862,469
830.327209,454
830.445557,459
830.563904,457
830.682312,471
830.800659,461
830.919006,466
831.037354,455
831.155701,444
831.274048,449
831.392395,481
831.51062,458
831.629028,472
831.747314,453
831.865662,474
831.984009,468
832.102356,474
832.220642,456
832.338928,459
832.457275,443
832.575623,451
832.693909,463
832.812134,448
832.930481,458
833.048828,452
833.167114,439
833.2854,453
833.403687,459
833.521973,467
833.640259,458
833.758545,448
833.876831,453
833.995056,466
834.113281,443
834.231628,456
834.349915,441
834.468201,463
834.586426,470
834.704651,451
834.822998,477
834.941162,475
835.059448,468
835.177673,455
835.295959,450
835.414246,454
835.53241,468
835.650635,451
835.768921,472
835.887146,452
836.005371,456
836.123596,459
836.241821,473
836.360046,470
836.478271,471
836.596497,463
836.714722,474
836.832886,468
836.95105,468
837.069336,477
837.1875,469
837.305725,489
837.423889,472
837.542053,483
837.660339,485
837.778503,478
837.896667,487
838.014832,472
838.132996,475
838.25116,489
838.369385,486
838.487488,491
838.605713,462
838.723877,476
838.84198,469
838.960205,463
839.078308,474
839.196472,462
839.314636,462
839.4328,470
839.550964,465
839.669067,481
839.787231,475
839.905396,465
840.023499,474
840.141602,444
840.259766,470
840.377869,470
840.495972,487
840.614136,456
840.732239,468
840.850342,462
840.968445,468
841.086548,461
841.204651,466
841.322754,463
841.440918,486
841.55896,465
841.677002,471
841.795166,482
841.913208,450
842.031311,453
842.149353,457
842.267456,453
842.385498,449
842.503601,456
842.621643,437
842.739746,470
842.857788,472
842.97583,459
843.093933,462
843.211975,437
843.330017,480
843.44812,448
843.566101,454
843.684204,465
843.802246,454
843.920227,471
844.038269,450
844.156311,455
844.274292,466
844.392395,456
844.510376,452
844.628357,438
844.74646,469
844.864441,451
844.982422,452
845.100403,466
845.218384,449
845.336426,461
845.454468,449
845.572449,462
845.69043,458
845.808411,429
845.926453,455
846.044373,452
846.162354,446
846.280396,457
846.398315,445
846.516296,439
846.634216,451
846.752197,456
846.870178,457
846.988098,463
847.106079,444
847.22406,451
847.34198,446
847.4599,438
847.577881,435
847.695801,446
847.813782,441
847.931641,448
848.049561,469
848.167603,461
848.285461,457
848.403381,456
848.521362,454
848.639221,467
848.75708,455
848.875,442
848.99292,452
849.110901,443
849.22876,456
849.34668,436
849.464539,452
849.582458,432
849.700317,442
849.818176,452
849.936096,453
850.053955,457
850.171875,447
850.289673,463
850.407593,444
850.525452,446
850.643311,466
850.761169,447
850.878967,447
850.996887,491
851.114746,452
851.232544,440
851.350403,436
851.468262,461
851.58606,461
851.703979,462
851.821777,448
851.939636,446
852.057434,463
852.175232,472
852.293091,455
852.410889,457
852.528687,475
852.646545,468
852.764343,448
852.88208,450
852.999939,459
853.117676,446
853.235535,446
853.353271,481
853.471069,450
853.588928,474
853.706604,455
853.824402,447
853.9422,457
854.059998,450
854.177734,460
854.295532,449
854.413269,446
854.531006,456
854.648804,473
854.766541,461
854.884277,444
855.002014,446
855.119751,451
855.237549,465
855.355225,461
855.473022,456
855.590698,445
855.708435,485
855.826172,452
855.943848,459
856.061646,456
856.179321,457
856.296997,477
856.414795,471
856.53241,459
856.650085,435
856.767822,465
856.885559,474
857.003174,454
857.120911,459
857.238586,456
857.356201,468
857.473938,491
857.591614,460
857.709351,440
857.826965,451
857.944641,472
858.062317,467
858.179993,455
858.297668,464
858.415283,470
858.532959,458
858.650574,438
858.768188,453
858.885803,453
859.003479,445
859.121094,460
859.23877,445
859.356384,453
859.473999,444
859.591675,469
859.709229,456
859.826843,465
859.944458,456
860.062012,442
860.179626,463
860.297302,465
860.414856,418
860.532471,450
860.650024,453
860.767639,449
860.885193,463
861.002808,447
861.120361,455
861.237976,467
861.35553,461
861.473022,441
861.590698,471
861.708191,447
861.825745,449
861.943298,469
862.060852,460
862.178406,454
862.295959,457
862.413513,477
862.531006,467
862.64856,450
862.766113,453
862.883667,448
863.00116,449
863.118713,456
863.236206,449
863.353699,446
863.471252,449
863.588745,454
863.706177,452
863.82373,458
863.941162,442
864.058716,448
864.176208,451
864.29364,445
864.411194,450
864.528687,472
864.646118,443
864.763611,466
864.881042,448
864.998535,473
865.116028,443
865.233459,466
865.350891,433
865.468384,451
865.585754,449
865.703308,451
865.820679,472
865.938171,461
866.055542,445
866.173035,459
866.290466,456
866.407837,446
866.52533,443
866.6427,462
866.760071,456
866.877563,443
866.994934,462
867.112305,456
867.229736,448
867.347107,461
867.464539,474
867.58197,451
867.699341,454
867.81665,468
867.934082,437
868.051453,458
868.168823,446
868.286194,461
868.403564,436
868.520935,457
868.638306,441
868.755676,468
868.872986,474
868.990295,454
869.107727,458
869.225037,443
869.342346,448
869.459717,458
869.577026,454
869.694336,446
869.811707,453
869.929016,447
870.046326,429
870.163635,454
870.280945,441
870.398254,454
870.515564,467
870.632812,454
870.750183,463
870.867432,455
870.984741,444
871.102051,454
871.219299,463
871.336609,452
871.453918,460
871.571106,454
871.688416,440
871.805664,469
871.922852,432
872.040222,458
872.157471,460
872.274719,464
872.391968,458
872.509155,457
872.626465,442
872.743652,456
872.860962,451
872.978149,453
873.095337,449
873.212646,463
873.329834,457
873.44696,456
873.564209,448
873.681396,458
873.798645,451
873.915894,448
874.03302,431
874.150208,443
874.267456,456
874.384583,461
874.501831,450
874.618958,473
874.736145,465
874.853333,460
874.970459,441
875.087646,445
875.204834,445
875.32196,458
875.439148,455
875.556274,457
875.673401,445
875.790527,447
875.907715,452
876.024841,465
876.141968,446
876.259094,464
876.376282,463
876.493347,464
876.610474,447
876.7276,460
876.844727,456
876.961853,441
877.078918,461
877.195984,472
877.313171,463
877.430237,459
877.547302,428
877.664368,458
877.781433,447
877.898499,465
878.015625,452
878.13269,450
878.249695,443
878.366821,457
878.483887,471
878.600952,452
878.717957,455
878.834961,469
878.952087,458
879.069092,457
879.186157,425
879.303162,450
879.420227,446
879.537231,452
879.654236,451
879.77124,464
879.888306,442
880.005249,446
880.122314,439
880.239319,453
880.356323,454
880.473328,466
880.590271,461
880.707275,453
880.824341,455
880.941284,477
881.058228,444
881.175232,455
881.292236,474
881.40918,479
881.526123,446
881.643066,438
881.760071,438
881.877014,457
881.993958,465
882.11084,468
882.227783,466
882.344727,435
882.46167,468
882.578613,456
882.695618,450
882.812439,459
882.929382,467
883.046326,471
883.163208,475
883.280151,466
883.397034,449
883.513916,453
883.630798,461
883.747742,450
883.864563,457
883.981506,457
884.098389,450
884.21521,482
884.332153,456
884.448975,466
884.565796,448
884.682678,457
884.7995,438
884.916443,462
885.033264,465
885.150085,463
885.266968,476
885.383789,447
885.500671,448
885.617493,459
885.734314,462
885.851196,464
885.967896,456
886.084717,451
886.201599,462
886.318359,468
886.435181,473
886.552002,443
886.668762,466
886.785645,457
886.902344,449
887.019165,475
887.135925,457
887.252747,467
887.369446,463
887.486267,457
887.603027,444
887.719788,469
887.836548,465
887.953247,446
888.070068,454
888.186829,455
888.303528,456
888.420288,460
888.536987,457
888.653687,471
888.770447,441
888.887146,460
889.003967,438
889.120667,473
889.237305,453
889.354065,460
889.470703,439
889.587463,451
889.704163,454
889.820862,468
889.937561,450
890.054199,476
890.170837,460
890.287598,460
890.404236,451
890.520874,457
890.637634,463
890.754211,456
890.87085,464
890.987549,452
891.104187,472
891.220886,460
891.337463,451
891.454102,469
891.57074,452
891.687378,463
891.804077,475
891.920654,452
892.037231,451
892.15387,462
892.270447,457
892.387085,443
892.503723,453
892.6203,469
892.736877,465
892.853516,465
892.970032,477
893.08667,461
893.203186,456
893.319763,459
893.43634,460
893.552917,453
893.669556,450
893.786011,478
893.902588,450
894.019165,456
894.135681,469
894.252197,477
894.368835,468
894.485291,470
894.601868,479
894.718384,457
894.8349,450
894.951355,446
895.067932,457
895.184448,461
895.300964,471
895.417419,477
895.533936,463
895.650452,442
895.766907,475
895.883423,485
895.999878,472
896.116333,476
896.232849,469
896.349304,449
896.465759,449
896.582214,453
896.698669,461
896.815125,470
896.931641,457
897.048035,447
897.164551,486
897.280884,472
897.397339,470
897.513794,481
897.630249,459
897.746582,466
897.863098,453
897.979431,470
898.095886,448
898.212341,463
898.328674,470
898.445129,463
898.561462,460
898.677795,468
898.794312,474
898.910645,463
899.026978,456
899.143433,473
899.259766,463
899.37616,469
899.492493,487
899.608765,473
899.725159,464
899.841553,458
899.957947,464
900.07428,486
900.190552,469
900.306946,468
900.423157,469
900.53949,476
900.655884,447
900.772156,466
900.888489,466
901.004822,450
901.121033,479
901.237366,477
901.353699,493
901.46991,460
901.586304,441
901.702515,463
901.818787,477
901.93512,473
902.051331,445
902.167603,462
902.283875,456
902.400085,476
902.516418,483
902.632629,459
902.74884,461
902.865112,469
902.981384,462
903.097595,476
903.213867,478
903.330017,458
903.446289,456
903.5625,455
903.67865,474
903.794922,461
903.911072,465
904.027344,470
904.143494,467
904.259705,470
904.375916,458
904.492065,485
904.608215,461
904.724426,491
904.840576,453
904.956726,467
905.072876,463
905.189087,473
905.305176,464
905.421387,458
905.537537,474
905.653687,458
905.769775,473
905.885925,485
906.002014,455
906.118164,479
906.234314,467
906.350403,471
906.466492,476
906.582642,478
906.69873,467
906.814758,476
906.930908,452
907.046936,467
907.163086,459
907.279175,479
907.395264,467
907.511353,475
907.62738,469
907.743408,473
907.859497,468
907.975525,477
908.091553,468
908.207703,470
908.32373,475
908.439758,467
908.555786,475
908.671814,458
908.787842,464
908.90387,477
909.019775,458
909.135864,477
909.251892,466
909.367859,476
909.483826,466
909.599854,479
909.715881,458
909.831848,473
909.947815,474
910.063782,476
910.179749,478
910.295776,443
910.411743,479
910.527649,452
910.643616,469
910.759583,470
910.875488,467
910.991455,488
911.107361,471
911.223267,475
911.339294,477
911.4552,497
911.571106,464
911.687073,463
911.802979,475
911.918823,452
912.034729,453
912.150635,475
912.266602,470
912.382446,468
912.498352,465
912.614197,463
912.730103,466
912.846008,467
792.44574,625
792.56488,655
792.68396,719
792.80304,674
792.92218,659
793.041199,631
793.160339,608
793.279419,621
793.398499,626
793.517578,601
793.636658,615
793.755737,609
793.874817,646
793.993896,624
794.112976,607
794.232056,616
794.351074,594
794.470215,606
794.589233,588
794.708313,578
794.827393,594
794.946411,609
795.065552,596
795.18457,608
795.303589,621
795.422668,606
795.541687,577
795.660767,583
795.779846,608
795.898865,593
796.017883,616
796.136963,590
796.255981,587
796.375061,595
796.49408,607
796.613037,584
796.732117,576
796.851135,597
796.970154,562
797.089233,578
797.208191,588
797.327271,588
797.446228,580
797.565186,583
797.684265,585
797.803223,593
797.922241,604
798.04126,592
798.160278,583
798.279297,599
798.398315,572
798.517273,588
798.636292,594
798.75531,582
798.874268,589
798.993286,578
799.112244,581
799.231323,598
799.350281,577
799.469238,585
799.588257,579
799.707153,578
799.826111,593
799.945129,591
800.064087,580
800.183044,597
800.302063,559
800.421021,597
800.539978,589
800.658936,596
800.777893,569
800.896912,573
801.015747,561
801.134705,574
801.253723,556
801.37262,580
801.491638,575
801.610535,602
801.729492,590
801.84845,582
801.967407,590
802.086243,584
802.205261,562
802.324158,569
802.443115,599
802.562073,577
802.680969,597
802.799927,588
802.918762,589
803.037659,605
803.156677,587
803.275574,577
803.39447,590
803.513428,592
803.632263,594
803.751221,597
803.870117,591
803.989014,616
804.107971,598
804.226746,593
804.345642,581
804.4646,597
804.583496,594
804.702393,591
804.821228,613
804.940125,609
805.059021,589
805.177917,610
805.296814,610
805.415649,619
805.534546,612
805.653442,630
805.772278,607
805.891113,605
806.01001,600
806.128906,619
806.247742,619
806.366577,613
806.485413,609
806.604309,617
806.723145,618
806.84198,606
806.960876,645
807.079712,604
807.198486,632
807.317383,624
807.436218,620
807.554993,626
807.673889,616
807.792725,630
807.91156,606
808.030396,615
808.14917,613
808.268005,636
808.386841,625
808.505676,632
808.624451,618
808.743286,645
808.862122,609
808.980896,613
809.099731,618
809.218506,616
809.337341,620
809.456116,612
809.57489,642
809.693726,624
809.8125,632
809.931274,649
810.050049,611
810.168884,608
810.287659,599
810.406372,642
810.525269,644
810.643982,628
810.762756,639
810.881531,636
811.000305,619
811.11908,627
811.237854,634
811.356567,627
811.475403,632
811.594116,604
811.71283,631
811.831604,613
811.950378,634
812.069153,633
812.187927,612
812.30658,639
812.425415,628
812.544128,634
812.662781,615
812.781616,616
812.900269,630
813.019043,631
813.137756,616
813.256531,641
813.375244,628
813.493896,606
813.612671,642
813.731384,622
813.850037,612
813.96875,598
814.087524,616
814.206238,615
814.324951,635
814.443604,631
814.562256,599
814.68103,624
814.799683,625
814.918335,631
815.037109,629
815.155762,620
815.274475,640
815.393188,619
815.511841,610
815.630554,614
815.749146,602
815.867859,608
815.986572,601
816.105164,629
816.223877,604
816.342529,603
816.461182,603
816.579895,615
816.698486,613
816.817139,632
816.935791,618
817.054504,602
817.173096,621
817.291748,595
817.4104,626
817.529053,605
817.647644,598
817.766235,571
817.884949,582
818.00354,578
818.122192,577
818.240845,573
818.359436,559
818.478088,550
818.59668,555
818.715271,536
818.833923,538
818.952515,530
819.071106,527
819.189758,522
819.30835,533
819.426941,510
819.545532,509
819.664124,514
819.782715,522
819.901306,500
820.019897,498
820.138489,520
820.25708,498
820.375671,477
820.494202,514
820.612732,518
820.731384,487
820.849915,504
820.968506,492
821.087097,497
821.205627,494
821.324158,482
821.442749,476
821.561279,495
821.679871,473
821.798401,494
821.916931,498
822.035461,505
822.154053,475
822.272583,493
822.391174,489
822.509583,512
822.628174,488
822.746704,510
822.865234,470
822.983765,480
823.102295,495
823.220825,502
823.339294,498
823.457825,479
823.576355,487
823.694824,473
823.813354,474
823.931885,477
824.050354,495
824.168884,488
824.287354,489
824.405823,477
824.524353,480
824.642822,488
824.761353,489
824.879822,492
824.998291,466
825.116699,496
825.235291,470
825.353699,499
825.472168,481
825.590637,496
825.709106,486
825.827576,477
825.946045,470
826.064453,474
826.182983,455
826.301392,472
826.4198,480
826.53833,463
826.656738,477
826.775208,468
826.893677,465
827.012024,469
827.130493,469
827.248962,465
827.36731,451
827.485779,466
827.604248,468
827.722595,472
827.841064,456
827.959412,480
828.077942,465
828.196289,445
828.314636,479
828.433105,459
828.551514,473
828.669861,456
828.78833,452
828.906677,488
829.025085,458
829.143433,472
829.261841,452
829.38031,459
829.498657,444
829.617004,499
829.735413,463
829.85376,452
829.972107,457
830.090515,468
830.208862,461
830.327209,493
830.445557,459
830.563904,448
830.682312,468
830.800659,462
830.919006,474
831.037354,457
831.155701,456
831.274048,480
831.392395,455
831.51062,471
831.629028,454
831.747314,465
831.865662,464
831.984009,496
832.102356,461
832.220642,462
832.338928,461
832.457275,461
832.575623,466
832.693909,484
832.812134,480
832.930481,460
833.048828,437
833.167114,458
833.2854,456
833.403687,464
833.521973,455
833.640259,442
833.758545,470
833.876831,448
833.995056,454
834.113281,446
834.231628,461
834.349915,463
834.468201,460
834.586426,461
834.704651,467
834.822998,473
834.941162,462
835.059448,456
835.177673,471
835.295959,477
835.414246,456
835.53241,458
835.650635,463
835.768921,477
835.887146,460
836.005371,468
836.123596,463
836.241821,477
836.360046,473
836.478271,466
836.596497,486
836.714722,472
836.832886,476
836.95105,472
837.069336,453
837.1875,478
837.305725,482
837.423889,484
837.542053,477
837.660339,471
837.778503,489
837.896667,479
838.014832,471
838.132996,472
838.25116,462
838.369385,474
838.487488,493
838.605713,489
838.723877,472
838.84198,479
838.960205,475
839.078308,462
839.196472,452
839.314636,466
839.4328,459
839.550964,474
839.669067,470
839.787231,491
839.905396,481
840.023499,455
840.141602,481
840.259766,480
840.377869,469
840.495972,482
840.614136,470
840.732239,464
840.850342,483
840.968445,455
841.086548,476
841.204651,477
841.322754,460
841.440918,469
841.55896,465
841.677002,500
841.795166,452
841.913208,470
842.031311,456
842.149353,456
842.267456,481
842.385498,476
842.503601,459
842.621643,464
842.739746,449
842.857788,451
842.97583,456
843.093933,463
843.211975,456
843.330017,453
843.44812,454
843.566101,447
843.684204,458
843.802246,457
843.920227,470
844.038269,445
844.156311,456
844.274292,468
844.392395,450
844.510376,466
844.628357,453
844.74646,452
844.864441,458
844.982422,443
845.100403,475
845.218384,463
845.336426,453
845.454468,461
845.572449,471
845.69043,453
845.808411,439
845.926453,457
846.044373,431
846.162354,464
846.280396,437
846.398315,470
846.516296,451
846.634216,453
846.752197,463
846.870178,461
846.988098,458
847.106079,448
847.22406,450
847.34198,437
847.4599,433
847.577881,444
847.695801,448
847.813782,464
847.931641,454
848.049561,453
848.167603,453
848.285461,466
848.403381,454
848.521362,459
848.639221,456
848.75708,430
848.875,442
848.99292,449
849.110901,455
849.22876,444
849.34668,447
849.464539,456
849.582458,452
849.700317,458
849.818176,439
849.936096,463
850.053955,444
850.171875,434
850.289673,443
850.407593,459
850.525452,448
850.643311,445
850.761169,435
850.878967,442
850.996887,452
851.114746,465
851.232544,442
851.350403,450
851.468262,440
851.58606,456
851.703979,463
851.821777,454
851.939636,449
852.057434,458
852.175232,470
852.293091,444
852.410889,439
852.528687,457
852.646545,454
852.764343,462
852.88208,434
852.999939,465
853.117676,454
853.235535,467
853.353271,446
853.471069,462
853.588928,433
853.706604,457
853.824402,448
853.9422,463
854.059998,451
854.177734,440
854.295532,440
854.413269,462
854.531006,474
854.648804,441
854.766541,461
854.884277,452
855.002014,451
855.119751,455
855.237549,474
855.355225,459
855.473022,456
855.590698,463
855.708435,471
855.826172,457
855.943848,456
856.061646,452
856.179321,455
856.296997,453
856.414795,462
856.53241,462
856.650085,449
856.767822,468
856.885559,473
857.003174,464
857.120911,449
857.238586,462
857.356201,447
857.473938,473
857.591614,445
857.709351,458
857.826965,456
857.944641,452
858.062317,445
858.179993,451
858.297668,431
858.415283,472
858.532959,440
858.650574,471
858.768188,440
858.885803,468
859.003479,457
859.121094,483
859.23877,448
859.356384,457
859.473999,470
859.591675,457
859.709229,461
859.826843,454
859.944458,452
860.062012,451
860.179626,460
860.297302,458
860.414856,455
860.532471,460
860.650024,451
860.767639,441
860.885193,441
861.002808,447
861.120361,463
861.237976,470
861.35553,454
861.473022,457
861.590698,453
861.708191,465
861.825745,450
861.943298,466
862.060852,449
862.178406,475
862.295959,466
862.413513,449
862.531006,446
862.64856,449
862.766113,455
862.883667,466
863.00116,456
863.118713,462
863.236206,463
863.353699,456
863.471252,446
863.588745,439
863.706177,445
863.82373,466
863.941162,463
864.058716,485
864.176208,471
864.29364,452
864.411194,474
864.528687,453
864.646118,448
864.763611,442
864.881042,431
864.998535,438
865.116028,453
865.233459,453
865.350891,453
865.468384,462
865.585754,438
865.703308,463
865.820679,452
865.938171,447
866.055542,439
866.173035,462
866.290466,454
866.407837,453
866.52533,451
866.6427,456
866.760071,459
866.877563,461
866.994934,475
867.112305,446
867.229736,456
867.347107,447
867.464539,440
867.58197,464
867.699341,448
867.81665,457
867.934082,459
868.051453,467
868.168823,455
868.286194,453
868.403564,456
868.520935,447
868.638306,438
868.755676,446
868.872986,450
868.990295,456
869.107727,439
869.225037,456
869.342346,471
869.459717,457
869.577026,438
869.694336,444
869.811707,468
869.929016,454
870.046326,435
870.163635,472
870.280945,467
870.398254,473
870.515564,458
870.632812,440
870.750183,472
870.867432,456
870.984741,469
871.102051,462
871.219299,452
871.336609,444
871.453918,460
871.571106,455
871.688416,467
871.805664,449
871.922852,457
872.040222,433
872.157471,459
872.274719,457
872.391968,468
872.509155,460
872.626465,456
872.743652,442
872.860962,462
872.978149,453
873.095337,459
873.212646,464
873.329834,444
873.44696,455
873.564209,459
873.681396,437
873.798645,462
873.915894,478
874.03302,442
874.150208,455
874.267456,460
874.384583,470
874.501831,446
874.618958,435
874.736145,457
874.853333,447
874.970459,445
875.087646,443
875.204834,450
875.32196,452
875.439148,453
875.556274,456
875.673401,461
875.790527,458
875.907715,468
876.024841,452
876.141968,451
876.259094,458
876.376282,463
876.493347,427
876.610474,456
876.7276,443
876.844727,462
876.961853,439
877.078918,436
877.195984,456
877.313171,449
877.430237,448
877.547302,464
877.664368,436
877.781433,445
877.898499,469
878.015625,444
878.13269,463
878.249695,448
878.366821,474
878.483887,447
878.600952,444
878.717957,467
878.834961,451
878.952087,478
879.069092,466
879.186157,443
879.303162,477
879.420227,468
879.537231,465
879.654236,455
879.77124,446
879.888306,469
880.005249,444
880.122314,462
880.239319,451
880.356323,443
880.473328,449
880.590271,439
880.707275,480
880.824341,441
880.941284,471
881.058228,448
881.175232,455
881.292236,468
881.40918,453
881.526123,451
881.643066,448
881.760071,453
881.877014,438
881.993958,466
882.11084,464
882.227783,475
882.344727,437
882.46167,463
882.578613,443
882.695618,460
882.812439,447
882.929382,446
883.046326,462
883.163208,446
883.280151,445
883.397034,449
883.513916,443
883.630798,442
883.747742,455
883.864563,457
883.981506,447
884.098389,446
884.21521,460
884.332153,460
884.448975,467
884.565796,460
884.682678,457
884.7995,467
884.916443,470
885.033264,466
885.150085,446
885.266968,471
885.383789,468
885.500671,446
885.617493,441
885.734314,447
885.851196,455
885.967896,459
886.084717,433
886.201599,482
886.318359,469
886.435181,458
886.552002,465
886.668762,449
886.785645,482
886.902344,462
887.019165,478
887.135925,459
887.252747,464
887.369446,459
887.486267,455
887.603027,444
887.719788,467
887.836548,450
887.953247,480
888.070068,464
888.186829,467
888.303528,451
888.420288,453
888.536987,460
888.653687,441
888.770447,455
888.887146,474
889.003967,484
889.120667,446
889.237305,459
889.354065,454
889.470703,458
889.587463,454
889.704163,466
889.820862,476
889.937561,454
890.054199,469
890.170837,447
890.287598,454
890.404236,455
890.520874,461
890.637634,454
890.754211,468
890.87085,451
890.987549,459
891.104187,460
891.220886,467
891.337463,439
891.454102,454
891.57074,446
891.687378,469
891.804077,466
891.920654,460
892.037231,456
892.15387,470
892.270447,440
892.387085,468
892.503723,456
892.6203,461
892.736877,441
892.853516,463
892.970032,466
893.08667,464
893.203186,467
893.319763,481
893.43634,464
893.552917,473
893.669556,451
893.786011,445
893.902588,459
894.019165,450
894.135681,472
894.252197,459
894.368835,462
894.485291,484
894.601868,463
894.718384,459
894.8349,476
894.951355,462
895.067932,467
895.184448,456
895.300964,464
895.417419,466
895.533936,458
895.650452,459
895.766907,455
895.883423,454
895.999878,455
896.116333,476
896.232849,457
896.349304,475
896.465759,460
896.582214,476
896.698669,457
896.815125,469
896.931641,452
897.048035,475
897.164551,472
897.280884,465
897.397339,466
897.513794,477
897.630249,477
897.746582,463
897.863098,457
897.979431,453
898.095886,452
898.212341,475
898.328674,464
898.445129,484
898.561462,462
898.677795,468
898.794312,470
898.910645,478
899.026978,464
899.143433,467
899.259766,456
899.37616,479
899.492493,462
899.608765,475
899.725159,459
899.841553,458
899.957947,480
900.07428,448
900.190552,475
900.306946,447
900.423157,457
900.53949,470
900.655884,459
900.772156,471
900.888489,447
901.004822,464
901.121033,472
901.237366,462
901.353699,455
901.46991,483
901.586304,449
901.702515,479
901.818787,465
901.93512,457
902.051331,465
902.167603,463
902.283875,486
902.400085,460
902.516418,480
902.632629,473
902.74884,469
902.865112,458
902.981384,470
903.097595,471
903.213867,470
903.330017,455
903.446289,462
903.5625,469
903.67865,474
903.794922,469
903.911072,462
904.027344,457
904.143494,473
904.259705,468
904.375916,453
904.492065,442
904.608215,445
904.724426,463
904.840576,455
904.956726,477
905.072876,466
905.189087,475
905.305176,486
905.421387,466
905.537537,468
905.653687,458
905.769775,491
905.885925,455
906.002014,489
906.118164,482
906.234314,468
906.350403,488
906.466492,456
906.582642,490
906.69873,460
906.814758,476
906.930908,462
907.046936,462
907.163086,467
907.279175,474
907.395264,467
907.511353,461
907.62738,462
907.743408,476
907.859497,483
907.975525,466
908.091553,468
908.207703,466
908.32373,498
908.439758,448
908.555786,449
908.671814,479
908.787842,476
908.90387,465
909.019775,457
909.135864,441
909.251892,462
909.367859,470
909.483826,481
909.599854,459
909.715881,461
909.831848,472
909.947815,467
910.063782,458
910.179749,464
910.295776,482
910.411743,469
910.527649,477
910.643616,477
910.759583,484
910.875488,440
910.991455,497
911.107361,441
911.223267,464
911.339294,489
911.4552,499
911.571106,461
911.687073,457
911.802979,473
911.918823,472
912.034729,465
912.150635,465
912.266602,459
912.382446,463
912.498352,465
912.614197,490
912.730103,461
912.846008,460
