792.44574,639
792.56488,627
792.68396,683
792.80304,653
792.92218,630
793.041199,566
793.160339,586
793.279419,609
793.398499,612
793.517578,567
793.636658,598
793.755737,589
793.874817,629
793.993896,618
794.112976,619
794.232056,584
794.351074,583
794.470215,593
794.589233,596
794.708313,579
794.827393,592
794.946411,582
795.065552,605
795.18457,579
795.303589,590
795.422668,577
795.541687,583
795.660767,579
795.779846,573
795.898865,567
796.017883,582
796.136963,562
796.255981,582
796.375061,595
796.49408,574
796.613037,560
796.732117,576
796.851135,555
796.970154,563
797.089233,594
797.208191,588
797.327271,576
797.446228,581
797.565186,567
797.684265,573
797.803223,561
797.922241,578
798.04126,571
798.160278,577
798.279297,570
798.398315,569
798.517273,579
798.636292,581
798.75531,576
798.874268,576
798.993286,572
799.112244,590
799.231323,593
799.350281,574
799.469238,574
799.588257,574
799.707153,564
799.826111,599
799.945129,575
800.064087,593
800.183044,558
800.302063,587
800.421021,581
800.539978,589
800.658936,578
800.777893,565
800.896912,570
801.015747,580
801.134705,559
801.253723,603
801.37262,565
801.491638,566
801.610535,574
801.729492,572
801.84845,576
801.967407,575
802.086243,593
802.205261,605
802.324158,575
802.443115,600
802.562073,588
802.680969,593
802.799927,574
802.918762,587
803.037659,591
803.156677,589
803.275574,586
803.39447,596
803.513428,593
803.632263,606
803.751221,570
803.870117,577
803.989014,588
804.107971,614
804.226746,610
804.345642,605
804.4646,611
804.583496,611
804.702393,592
804.821228,592
804.940125,599
805.059021,584
805.177917,605
805.296814,606
805.415649,592
805.534546,585
805.653442,601
805.772278,629
805.891113,589
806.01001,586
806.128906,628
806.247742,599
806.366577,603
806.485413,598
806.604309,624
806.723145,618
806.84198,609
806.960876,609
807.079712,613
807.198486,612
807.317383,617
807.436218,618
807.554993,583
807.673889,618
807.792725,591
807.91156,594
808.030396,623
808.14917,620
808.268005,606
808.386841,607
808.505676,617
808.624451,628
808.743286,615
808.862122,618
808.980896,612
809.099731,617
809.218506,622
809.337341,625
809.456116,605
809.57489,621
809.693726,611
809.8125,624
809.931274,615
810.050049,628
810.168884,622
810.287659,613
810.406372,630
810.525269,637
810.643982,610
810.762756,661
810.881531,629
811.000305,641
811.11908,608
811.237854,631
811.356567,618
811.475403,631
811.594116,593
811.71283,615
811.831604,650
811.950378,629
812.069153,648
812.187927,614
812.30658,604
812.425415,628
812.544128,629
812.662781,634
812.781616,623
812.900269,623
813.019043,636
813.137756,622
813.256531,634
813.375244,642
813.493896,620
813.612671,632
813.731384,644
813.850037,628
813.96875,634
814.087524,602
814.206238,613
814.324951,646
814.443604,640
814.562256,628
814.68103,637
814.799683,627
814.918335,612
815.037109,626
815.155762,599
815.274475,634
815.393188,625
815.511841,619
815.630554,627
815.749146,618
815.867859,617
815.986572,609
816.105164,600
816.223877,605
816.342529,586
816.461182,618
816.579895,594
816.698486,596
816.817139,585
816.935791,626
817.054504,611
817.173096,621
817.291748,596
817.4104,621
817.529053,587
817.647644,604
817.766235,589
817.884949,597
818.00354,596
818.122192,555
818.240845,554
818.359436,539
818.478088,556
818.59668,547
818.715271,535
818.833923,543
818.952515,516
819.071106,519
819.189758,501
819.30835,516
819.426941,505
819.545532,498
819.664124,515
819.782715,515
819.901306,491
820.019897,495
820.138489,482
820.25708,500
820.375671,497
820.494202,497
820.612732,484
820.731384,504
820.849915,494
820.968506,507
821.087097,498
821.205627,493
821.324158,474
821.442749,490
821.561279,483
821.679871,500
821.798401,506
821.916931,473
822.035461,481
822.154053,482
822.272583,474
822.391174,480
822.509583,479
822.628174,469
822.746704,483
822.865234,492
822.983765,473
823.102295,472
823.220825,469
823.339294,461
823.457825,466
823.576355,476
823.694824,481
823.813354,461
823.931885,480
824.050354,499
824.168884,482
824.287354,491
824.405823,489
824.524353,490
824.642822,483
824.761353,478
824.879822,488
824.998291,487
825.116699,482
825.235291,482
825.353699,461
825.472168,468
825.590637,467
825.709106,478
825.827576,495
825.946045,498
826.064453,487
826.182983,481
826.301392,478
826.4198,476
826.53833,472
826.656738,457
826.775208,466
826.893677,470
827.012024,449
827.130493,472
827.248962,459
827.36731,451
827.485779,454
827.604248,466
827.722595,455
827.841064,467
827.959412,477
828.077942,456
828.196289,455
828.314636,450
828.433105,461
828.551514,480
828.669861,472
828.78833,449
828.906677,451
829.025085,447
829.143433,446
829.261841,458
829.38031,458
829.498657,453
829.617004,452
829.735413,479
829.85376,446
829.972107,474
830.090515,444
830.208862,461
830.327209,446
830.445557,455
830.563904,455
830.682312,463
830.800659,479
830.919006,465
831.037354,423
831.155701,453
831.274048,461
831.392395,447
831.51062,436
831.629028,450
831.747314,451
831.865662,461
831.984009,451
832.102356,436
832.220642,473
832.338928,467
832.457275,455
832.575623,440
832.693909,447
832.812134,455
832.930481,443
833.048828,453
833.167114,436
833.2854,468
833.403687,465
833.521973,461
833.640259,451
833.758545,468
833.876831,452
833.995056,451
834.113281,445
834.231628,460
834.349915,455
834.468201,469
834.586426,439
834.704651,471
834.822998,461
834.941162,461
835.059448,441
835.177673,478
835.295959,443
835.414246,451
835.53241,434
835.650635,456
835.768921,462
835.887146,467
836.005371,452
836.123596,466
836.241821,446
836.360046,445
836.478271,460
836.596497,490
836.714722,475
836.832886,471
836.95105,456
837.069336,488
837.1875,458
837.305725,481
837.423889,471
837.542053,480
837.660339,468
837.778503,475
837.896667,467
838.014832,456
838.132996,457
838.25116,472
838.369385,476
838.487488,477
838.605713,469
838.723877,459
838.84198,473
838.960205,468
839.078308,478
839.196472,481
839.314636,478
839.4328,463
839.550964,473
839.669067,485
839.787231,474
839.905396,476
840.023499,454
840.141602,474
840.259766,455
840.377869,452
840.495972,462
840.614136,475
840.732239,446
840.850342,441
840.968445,455
841.086548,464
841.204651,456
841.322754,460
841.440918,450
841.55896,466
841.677002,463
841.795166,447
841.913208,447
842.031311,447
842.149353,477
842.267456,468
842.385498,451
842.503601,463
842.621643,442
842.739746,465
842.857788,440
842.97583,464
843.093933,455
843.211975,448
843.330017,425
843.44812,463
843.566101,456
843.684204,452
843.802246,460
843.920227,450
844.038269,427
844.156311,452
844.274292,421
844.392395,465
844.510376,442
844.628357,444
844.74646,447
844.864441,435
844.982422,441
845.100403,461
845.218384,450
845.336426,460
845.454468,454
845.572449,434
845.69043,452
845.808411,438
845.926453,436
846.044373,448
846.162354,438
846.280396,447
846.398315,431
846.516296,431
846.634216,430
846.752197,439
846.870178,445
846.988098,453
847.106079,450
847.22406,435
847.34198,431
847.4599,441
847.577881,460
847.695801,429
847.813782,440
847.931641,448
848.049561,454
848.167603,440
848.285461,461
848.403381,430
848.521362,447
848.639221,461
848.75708,448
848.875,430
848.99292,442
849.110901,437
849.22876,421
849.34668,440
849.464539,458
849.582458,436
849.700317,441
849.818176,453
849.936096,449
850.053955,437
850.171875,437
850.289673,449
850.407593,429
850.525452,437
850.643311,439
850.761169,439
850.878967,440
850.996887,430
851.114746,439
851.232544,440
851.350403,451
851.468262,450
851.58606,443
851.703979,445
851.821777,439
851.939636,448
852.057434,430
852.175232,436
852.293091,432
852.410889,447
852.528687,442
852.646545,430
852.764343,429
852.88208,437
852.999939,444
853.117676,458
853.235535,442
853.353271,444
853.471069,439
853.588928,445
853.706604,452
853.824402,434
853.9422,458
854.059998,445
854.177734,449
854.295532,432
854.413269,435
854.531006,465
854.648804,454
854.766541,444
854.884277,437
855.002014,462
855.119751,459
855.237549,458
855.355225,450
855.473022,451
855.590698,467
855.708435,446
855.826172,441
855.943848,455
856.061646,461
856.179321,458
856.296997,446
856.414795,460
856.53241,458
856.650085,450
856.767822,435
856.885559,446
857.003174,440
857.120911,478
857.238586,444
857.356201,449
857.473938,433
857.591614,455
857.709351,447
857.826965,464
857.944641,462
858.062317,453
858.179993,430
858.297668,458
858.415283,440
858.532959,450
858.650574,443
858.768188,450
858.885803,442
859.003479,459
859.121094,432
859.23877,447
859.356384,448
859.473999,460
859.591675,435
859.709229,425
859.826843,438
859.944458,452
860.062012,450
860.179626,458
860.297302,453
860.414856,454
860.532471,427
860.650024,457
860.767639,461
860.885193,444
861.002808,444
861.120361,464
861.237976,447
861.35553,438
861.473022,436
861.590698,421
861.708191,442
861.825745,458
861.943298,447
862.060852,466
862.178406,451
862.295959,449
862.413513,440
862.531006,443
862.64856,444
862.766113,443
862.883667,453
863.00116,445
863.118713,446
863.236206,451
863.353699,443
863.471252,433
863.588745,441
863.706177,451
863.82373,444
863.941162,423
864.058716,452
864.176208,457
864.29364,433
864.411194,422
864.528687,456
864.646118,464
864.763611,457
864.881042,455
864.998535,433
865.116028,452
865.233459,464
865.350891,459
865.468384,429
865.585754,453
865.703308,453
865.820679,450
865.938171,454
866.055542,467
866.173035,425
866.290466,449
866.407837,428
866.52533,444
866.6427,438
866.760071,457
866.877563,462
866.994934,455
867.112305,443
867.229736,456
867.347107,449
867.464539,442
867.58197,436
867.699341,458
867.81665,436
867.934082,446
868.051453,468
868.168823,443
868.286194,468
868.403564,464
868.520935,429
868.638306,457
868.755676,458
868.872986,453
868.990295,433
869.107727,445
869.225037,456
869.342346,456
869.459717,446
869.577026,441
869.694336,440
869.811707,446
869.929016,443
870.046326,436
870.163635,460
870.280945,450
870.398254,457
870.515564,438
870.632812,448
870.750183,451
870.867432,439
870.984741,448
871.102051,454
871.219299,442
871.336609,444
871.453918,448
871.571106,441
871.688416,445
871.805664,453
871.922852,463
872.040222,434
872.157471,457
872.274719,442
872.391968,472
872.509155,477
872.626465,444
872.743652,463
872.860962,454
872.978149,463
873.095337,456
873.212646,430
873.329834,441
873.44696,446
873.564209,477
873.681396,451
873.798645,473
873.915894,449
874.03302,464
874.150208,446
874.267456,462
874.384583,442
874.501831,459
874.618958,447
874.736145,454
874.853333,436
874.970459,448
875.087646,440
875.204834,449
875.32196,472
875.439148,467
875.556274,427
875.673401,450
875.790527,447
875.907715,456
876.024841,448
876.141968,442
876.259094,449
876.376282,449
876.493347,438
876.610474,434
876.7276,451
876.844727,436
876.961853,464
877.078918,455
877.195984,429
877.313171,459
877.430237,454
877.547302,456
877.664368,457
877.781433,464
877.898499,439
878.015625,459
878.13269,428
878.249695,475
878.366821,448
878.483887,452
878.600952,453
878.717957,446
878.834961,449
878.952087,456
879.069092,440
879.186157,454
879.303162,456
879.420227,453
879.537231,437
879.654236,449
879.77124,459
879.888306,460
880.005249,461
880.122314,455
880.239319,446
880.356323,437
880.473328,456
880.590271,443
880.707275,456
880.824341,456
880.941284,457
881.058228,450
881.175232,467
881.292236,446
881.40918,427
881.526123,444
881.643066,436
881.760071,476
881.877014,438
881.993958,453
882.11084,441
882.227783,455
882.344727,456
882.46167,453
882.578613,432
882.695618,454
882.812439,451
882.929382,461
883.046326,474
883.163208,457
883.280151,447
883.397034,464
883.513916,450
883.630798,457
883.747742,433
883.864563,434
883.981506,443
884.098389,424
884.21521,440
884.332153,457
884.448975,435
884.565796,457
884.682678,447
884.7995,455
884.916443,435
885.033264,464
885.150085,447
885.266968,449
885.383789,440
885.500671,468
885.617493,446
885.734314,462
885.851196,464
885.967896,457
886.084717,447
886.201599,458
886.318359,435
886.435181,448
886.552002,446
886.668762,462
886.785645,453
886.902344,478
887.019165,462
887.135925,463
887.252747,441
887.369446,467
887.486267,441
887.603027,447
887.719788,455
887.836548,453
887.953247,449
888.070068,451
888.186829,454
888.303528,450
888.420288,440
888.536987,462
888.653687,457
888.770447,458
888.887146,443
889.003967,442
889.120667,451
889.237305,465
889.354065,461
889.470703,473
889.587463,465
889.704163,461
889.820862,446
889.937561,458
890.054199,459
890.170837,451
890.287598,441
890.404236,463
890.520874,458
890.637634,445
890.754211,432
890.87085,458
890.987549,450
891.104187,461
891.220886,467
891.337463,451
891.454102,447
891.57074,449
891.687378,462
891.804077,449
891.920654,452
892.037231,460
892.15387,442
892.270447,456
892.387085,459
892.503723,450
892.6203,466
892.736877,476
892.853516,458
892.970032,466
893.08667,457
893.203186,464
893.319763,449
893.43634,455
893.552917,446
893.669556,452
893.786011,478
893.902588,460
894.019165,461
894.135681,463
894.252197,451
894.368835,459
894.485291,455
894.601868,459
894.718384,460
894.8349,464
894.951355,447
895.067932,468
895.184448,449
895.300964,480
895.417419,442
895.533936,448
895.650452,450
895.766907,460
895.883423,469
895.999878,458
896.116333,448
896.232849,458
896.349304,458
896.465759,462
896.582214,472
896.698669,436
896.815125,463
896.931641,471
897.048035,455
897.164551,451
897.280884,447
897.397339,467
897.513794,449
897.630249,451
897.746582,454
897.863098,454
897.979431,461
898.095886,473
898.212341,462
898.328674,466
898.445129,463
898.561462,456
898.677795,461
898.794312,467
898.910645,463
899.026978,459
899.143433,432
899.259766,478
899.37616,459
899.492493,468
899.608765,467
899.725159,456
899.841553,454
899.957947,468
900.07428,461
900.190552,453
900.306946,448
900.423157,452
900.53949,446
900.655884,450
900.772156,446
900.888489,460
901.004822,461
901.121033,480
901.237366,470
901.353699,457
901.46991,459
901.586304,457
901.702515,455
901.818787,455
901.93512,445
902.051331,476
902.167603,466
902.283875,474
902.400085,473
902.516418,460
902.632629,463
902.74884,493
902.865112,452
902.981384,475
903.097595,480
903.213867,458
903.330017,472
903.446289,476
903.5625,454
903.67865,469
903.794922,470
903.911072,471
904.027344,470
904.143494,462
904.259705,441
904.375916,452
904.492065,464
904.608215,460
904.724426,454
904.840576,461
904.956726,473
905.072876,467
905.189087,448
905.305176,471
905.421387,458
905.537537,470
905.653687,456
905.769775,465
905.885925,447
906.002014,455
906.118164,467
906.234314,461
906.350403,452
906.466492,466
906.582642,455
906.69873,468
906.814758,458
906.930908,481
907.046936,464
907.163086,470
907.279175,462
907.395264,473
907.511353,457
907.62738,481
907.743408,475
907.859497,464
907.975525,459
908.091553,471
908.207703,457
908.32373,454
908.439758,466
908.555786,485
908.671814,475
908.787842,454
908.90387,474
909.019775,451
909.135864,469
909.251892,459
909.367859,474
909.483826,469
909.599854,455
909.715881,479
909.831848,479
909.947815,469
910.063782,471
910.179749,465
910.295776,479
910.411743,472
910.527649,449
910.643616,477
910.759583,462
910.875488,458
910.991455,466
911.107361,451
911.223267,453
911.339294,469
911.4552,453
911.571106,480
911.687073,450
911.802979,477
911.918823,481
912.034729,462
912.150635,461
912.266602,472
912.382446,447
912.498352,470
912.614197,468
912.730103,464
912.846008,449
792.44574,621
792.56488,680
792.68396,696
792.80304,652
792.92218,615
793.041199,572
793.160339,582
793.279419,621
793.398499,582
793.517578,604
793.636658,617
793.755737,628
793.874817,609
793.993896,609
794.112976,588
794.232056,601
794.351074,586
794.470215,591
794.589233,598
794.708313,592
794.827393,583
794.946411,585
795.065552,596
795.18457,601
795.303589,583
795.422668,589
795.541687,587
795.660767,623
795.779846,578
795.898865,580
796.017883,582
796.136963,579
796.255981,585
796.375061,596
796.49408,581
796.613037,583
796.732117,576
796.851135,611
796.970154,602
797.089233,581
797.208191,582
797.327271,567
797.446228,566
797.565186,606
797.684265,569
797.803223,570
797.922241,580
798.04126,555
798.160278,571
798.279297,582
798.398315,556
798.517273,572
798.636292,586
798.75531,580
798.874268,562
798.993286,594
799.112244,583
799.231323,595
799.350281,581
799.469238,567
799.588257,594
799.707153,599
799.826111,597
799.945129,566
800.064087,576
800.183044,569
800.302063,557
800.421021,598
800.539978,570
800.658936,567
800.777893,584
800.896912,572
801.015747,584
801.134705,572
801.253723,587
801.37262,581
801.491638,584
801.610535,599
801.729492,575
801.84845,583
801.967407,598
802.086243,584
802.205261,588
802.324158,598
802.443115,586
802.562073,591
802.680969,583
802.799927,558
802.918762,594
803.037659,601
803.156677,581
803.275574,551
803.39447,601
803.513428,569
803.632263,599
803.751221,608
803.870117,596
803.989014,609
804.107971,591
804.226746,618
804.345642,608
804.4646,594
804.583496,589
804.702393,597
804.821228,602
804.940125,632
805.059021,601
805.177917,600
805.296814,616
805.415649,609
805.534546,629
805.653442,583
805.772278,637
805.891113,632
806.01001,632
806.128906,591
806.247742,586
806.366577,594
806.485413,625
806.604309,633
806.723145,617
806.84198,625
806.960876,610
807.079712,621
807.198486,611
807.317383,596
807.436218,615
807.554993,633
807.673889,610
807.792725,616
807.91156,594
808.030396,614
808.14917,617
808.268005,627
808.386841,601
808.505676,620
808.624451,630
808.743286,620
808.862122,612
808.980896,615
809.099731,628
809.218506,643
809.337341,639
809.456116,643
809.57489,629
809.693726,618
809.8125,627
809.931274,610
810.050049,623
810.168884,615
810.287659,611
810.406372,624
810.525269,623
810.643982,629
810.762756,604
810.881531,635
811.000305,622
811.11908,653
811.237854,625
811.356567,622
811.475403,637
811.594116,620
811.71283,628
811.831604,609
811.950378,640
812.069153,651
812.187927,633
812.30658,627
812.425415,641
812.544128,622
812.662781,607
812.781616,632
812.900269,612
813.019043,621
813.137756,625
813.256531,628
813.375244,629
813.493896,629
813.612671,633
813.731384,636
813.850037,612
813.96875,635
814.087524,638
814.206238,602
814.324951,616
814.443604,601
814.562256,638
814.68103,617
814.799683,629
814.918335,604
815.037109,595
815.155762,622
815.274475,636
815.393188,605
815.511841,586
815.630554,618
815.749146,611
815.867859,619
815.986572,601
816.105164,622
816.223877,630
816.342529,640
816.461182,600
816.579895,630
816.698486,608
816.817139,640
816.935791,610
817.054504,636
817.173096,619
817.291748,625
817.4104,577
817.529053,595
817.647644,589
817.766235,592
817.884949,583
818.00354,570
818.122192,579
818.240845,555
818.359436,537
818.478088,544
818.59668,542
818.715271,548
818.833923,540
818.952515,503
819.071106,521
819.189758,510
819.30835,501
819.426941,513
819.545532,502
819.664124,493
819.782715,499
819.901306,502
820.019897,504
820.138489,500
820.25708,513
820.375671,483
820.494202,499
820.612732,505
820.731384,490
820.849915,505
820.968506,485
821.087097,490
821.205627,478
821.324158,507
821.442749,497
821.561279,475
821.679871,484
821.798401,496
821.916931,484
822.035461,472
822.154053,481
822.272583,484
822.391174,513
822.509583,484
822.628174,466
822.746704,498
822.865234,461
822.983765,478
823.102295,495
823.220825,496
823.339294,461
823.457825,496
823.576355,450
823.694824,490
823.813354,484
823.931885,478
824.050354,481
824.168884,486
824.287354,483
824.405823,501
824.524353,473
824.642822,488
824.761353,509
824.879822,494
824.998291,475
825.116699,477
825.235291,475
825.353699,491
825.472168,498
825.590637,489
825.709106,474
825.827576,460
825.946045,483
826.064453,451
826.182983,458
826.301392,476
826.4198,447
826.53833,488
826.656738,471
826.775208,474
826.893677,463
827.012024,483
827.130493,456
827.248962,470
827.36731,447
827.485779,470
827.604248,471
827.722595,493
827.841064,459
827.959412,460
828.077942,462
828.196289,482
828.314636,459
828.433105,469
828.551514,461
828.669861,468
828.78833,458
828.906677,467
829.025085,465
829.143433,449
829.261841,458
829.38031,455
829.498657,449
829.617004,453
829.735413,456
829.85376,464
829.972107,441
830.090515,465
830.208862,451
830.327209,471
830.445557,457
830.563904,464
830.682312,458
830.800659,476
830.919006,446
831.037354,471
831.155701,455
831.274048,461
831.392395,458
831.51062,450
831.629028,462
831.747314,452
831.865662,459
831.984009,478
832.102356,449
832.220642,468
832.338928,464
832.457275,445
832.575623,454
832.693909,443
832.812134,441
832.930481,429
833.048828,437
833.167114,474
833.2854,431
833.403687,466
833.521973,443
833.640259,451
833.758545,439
833.876831,482
833.995056,467
834.113281,455
834.231628,450
834.349915,465
834.468201,444
834.586426,451
834.704651,473
834.822998,468
834.941162,466
835.059448,454
835.177673,447
835.295959,464
835.414246,452
835.53241,467
835.650635,461
835.768921,444
835.887146,463
836.005371,483
836.123596,452
836.241821,456
836.360046,474
836.478271,488
836.596497,472
836.714722,458
836.832886,474
836.95105,477
837.069336,468
837.1875,459
837.305725,497
837.423889,478
837.542053,468
837.660339,483
837.778503,473
837.896667,472
838.014832,477
838.132996,452
838.25116,463
838.369385,492
838.487488,468
838.605713,479
838.723877,471
838.84198,471
838.960205,494
839.078308,464
839.196472,467
839.314636,479
839.4328,476
839.550964,473
839.669067,483
839.787231,467
839.905396,485
840.023499,473
840.141602,472
840.259766,484
840.377869,452
840.495972,485
840.614136,460
840.732239,462
840.850342,451
840.968445,441
841.086548,458
841.204651,465
841.322754,454
841.440918,459
841.55896,457
841.677002,451
841.795166,472
841.913208,461
842.031311,446
842.149353,460
842.267456,454
842.385498,452
842.503601,448
842.621643,445
842.739746,451
842.857788,468
842.97583,463
843.093933,454
843.211975,440
843.330017,451
843.44812,457
843.566101,458
843.684204,452
843.802246,455
843.920227,460
844.038269,435
844.156311,451
844.274292,461
844.392395,437
844.510376,447
844.628357,445
844.74646,454
844.864441,474
844.982422,442
845.100403,442
845.218384,455
845.336426,449
845.454468,462
845.572449,468
845.69043,423
845.808411,444
845.926453,435
846.044373,442
846.162354,461
846.280396,437
846.398315,437
846.516296,434
846.634216,461
846.752197,458
846.870178,437
846.988098,425
847.106079,458
847.22406,445
847.34198,446
847.4599,435
847.577881,462
847.695801,434
847.813782,462
847.931641,444
848.049561,455
848.167603,439
848.285461,443
848.403381,441
848.521362,451
848.639221,455
848.75708,445
848.875,435
848.99292,439
849.110901,458
849.22876,451
849.34668,451
849.464539,437
849.582458,439
849.700317,465
849.818176,430
849.936096,434
850.053955,434
850.171875,445
850.289673,465
850.407593,436
850.525452,452
850.643311,434
850.761169,441
850.878967,449
850.996887,451
851.114746,437
851.232544,439
851.350403,449
851.468262,440
851.58606,449
851.703979,460
851.821777,441
851.939636,459
852.057434,453
852.175232,448
852.293091,441
852.410889,432
852.528687,440
852.646545,458
852.764343,467
852.88208,449
852.999939,456
853.117676,452
853.235535,434
853.353271,458
853.471069,441
853.588928,453
853.706604,451
853.824402,470
853.9422,465
854.059998,457
854.177734,439
854.295532,447
854.413269,462
854.531006,453
854.648804,440
854.766541,444
854.884277,445
855.002014,469
855.119751,439
855.237549,452
855.355225,464
855.473022,450
855.590698,471
855.708435,436
855.826172,450
855.943848,432
856.061646,460
856.179321,454
856.296997,458
856.414795,453
856.53241,455
856.650085,464
856.767822,458
856.885559,429
857.003174,465
857.120911,463
857.238586,465
857.356201,445
857.473938,455
857.591614,462
857.709351,461
857.826965,465
857.944641,468
858.062317,471
858.179993,443
858.297668,454
858.415283,468
858.532959,439
858.650574,450
858.768188,447
858.885803,441
859.003479,451
859.121094,457
859.23877,447
859.356384,445
859.473999,431
859.591675,454
859.709229,457
859.826843,445
859.944458,458
860.062012,432
860.179626,466
860.297302,449
860.414856,446
860.532471,450
860.650024,448
860.767639,457
860.885193,444
861.002808,457
861.120361,435
861.237976,444
861.35553,458
861.473022,454
861.590698,459
861.708191,452
861.825745,456
861.943298,446
862.060852,442
862.178406,475
862.295959,446
862.413513,454
862.531006,455
862.64856,458
862.766113,450
862.883667,462
863.00116,437
863.118713,448
863.236206,467
863.353699,431
863.471252,447
863.588745,439
863.706177,427
863.82373,451
863.941162,436
864.058716,445
864.176208,463
864.29364,450
864.411194,449
864.528687,437
864.646118,445
864.763611,450
864.881042,449
864.998535,469
865.116028,452
865.233459,463
865.350891,447
865.468384,461
865.585754,445
865.703308,442
865.820679,463
865.938171,441
866.055542,451
866.173035,450
866.290466,456
866.407837,444
866.52533,449
866.6427,445
866.760071,441
866.877563,447
866.994934,447
867.112305,432
867.229736,459
867.347107,445
867.464539,442
867.58197,445
867.699341,459
867.81665,461
867.934082,459
868.051453,454
868.168823,455
868.286194,438
868.403564,467
868.520935,448
868.638306,449
868.755676,459
868.872986,446
868.990295,480
869.107727,442
869.225037,451
869.342346,441
869.459717,436
869.577026,461
869.694336,469
869.811707,449
869.929016,443
870.046326,438
870.163635,466
870.280945,451
870.398254,449
870.515564,452
870.632812,470
870.750183,454
870.867432,467
870.984741,449
871.102051,446
871.219299,453
871.336609,459
871.453918,460
871.571106,453
871.688416,468
871.805664,453
871.922852,451
872.040222,484
872.157471,456
872.274719,455
872.391968,431
872.509155,455
872.626465,439
872.743652,470
872.860962,452
872.978149,456
873.095337,466
873.212646,458
873.329834,460
873.44696,453
873.564209,429
873.681396,460
873.798645,448
873.915894,431
874.03302,446
874.150208,445
874.267456,458
874.384583,441
874.501831,462
874.618958,456
874.736145,469
874.853333,461
874.970459,440
875.087646,434
875.204834,432
875.32196,433
875.439148,453
875.556274,448
875.673401,446
875.790527,446
875.907715,450
876.024841,439
876.141968,461
876.259094,472
876.376282,438
876.493347,455
876.610474,460
876.7276,439
876.844727,437
876.961853,461
877.078918,453
877.195984,450
877.313171,443
877.430237,461
877.547302,451
877.664368,443
877.781433,447
877.898499,455
878.015625,452
878.13269,455
878.249695,440
878.366821,442
878.483887,433
878.600952,444
878.717957,444
878.834961,456
878.952087,450
879.069092,445
879.186157,437
879.303162,462
879.420227,443
879.537231,448
879.654236,436
879.77124,428
879.888306,436
880.005249,438
880.122314,451
880.239319,475
880.356323,448
880.473328,459
880.590271,444
880.707275,479
880.824341,455
880.941284,441
881.058228,452
881.175232,463
881.292236,448
881.40918,448
881.526123,453
881.643066,453
881.760071,459
881.877014,463
881.993958,461
882.11084,454
882.227783,454
882.344727,459
882.46167,466
882.578613,446
882.695618,434
882.812439,459
882.929382,458
883.046326,460
883.163208,445
883.280151,467
883.397034,456
883.513916,465
883.630798,459
883.747742,461
883.864563,445
883.981506,444
884.098389,456
884.21521,438
884.332153,449
884.448975,450
884.565796,468
884.682678,445
884.7995,453
884.916443,462
885.033264,466
885.150085,450
885.266968,445
885.383789,452
885.500671,453
885.617493,438
885.734314,458
885.851196,465
885.967896,448
886.084717,447
886.201599,475
886.318359,460
886.435181,457
886.552002,444
886.668762,458
886.785645,453
886.902344,462
887.019165,455
887.135925,437
887.252747,466
887.369446,473
887.486267,461
887.603027,456
887.719788,476
887.836548,460
887.953247,478
888.070068,466
888.186829,453
888.303528,450
888.420288,455
888.536987,451
888.653687,451
888.770447,459
888.887146,466
889.003967,462
889.120667,445
889.237305,438
889.354065,442
889.470703,454
889.587463,456
889.704163,450
889.820862,437
889.937561,457
890.054199,470
890.170837,458
890.287598,447
890.404236,468
890.520874,473
890.637634,482
890.754211,437
890.87085,466
890.987549,462
891.104187,454
891.220886,456
891.337463,450
891.454102,475
891.57074,479
891.687378,473
891.804077,435
891.920654,455
892.037231,447
892.15387,466
892.270447,460
892.387085,476
892.503723,453
892.6203,464
892.736877,459
892.853516,472
892.970032,461
893.08667,443
893.203186,452
893.319763,468
893.43634,455
893.552917,440
893.669556,474
893.786011,460
893.902588,457
894.019165,443
894.135681,436
894.252197,466
894.368835,486
894.485291,463
894.601868,461
894.718384,488
894.8349,455
894.951355,458
895.067932,486
895.184448,468
895.300964,458
895.417419,468
895.533936,458
895.650452,474
895.766907,465
895.883423,478
895.999878,445
896.116333,457
896.232849,465
896.349304,466
896.465759,475
896.582214,483
896.698669,443
896.815125,459
896.931641,455
897.048035,469
897.164551,455
897.280884,454
897.397339,465
897.513794,469
897.630249,454
897.746582,471
897.863098,471
897.979431,466
898.095886,452
898.212341,490
898.328674,469
898.445129,479
898.561462,474
898.677795,473
898.794312,467
898.910645,448
899.026978,476
899.143433,444
899.259766,473
899.37616,481
899.492493,456
899.608765,459
899.725159,449
899.841553,456
899.957947,457
900.07428,455
900.190552,463
900.306946,454
900.423157,479
900.53949,474
900.655884,477
900.772156,488
900.888489,467
901.004822,469
901.121033,481
901.237366,491
901.353699,461
901.46991,479
901.586304,466
901.702515,473
901.818787,481
901.93512,461
902.051331,469
902.167603,457
902.283875,478
902.400085,443
902.516418,464
902.632629,445
902.74884,472
902.865112,479
902.981384,467
903.097595,466
903.213867,468
903.330017,468
903.446289,450
903.5625,482
903.67865,458
903.794922,482
903.911072,464
904.027344,482
904.143494,470
904.259705,468
904.375916,448
904.492065,464
904.608215,460
904.724426,459
904.840576,459
904.956726,473
905.072876,479
905.189087,475
905.305176,453
905.421387,464
905.537537,486
905.653687,461
905.769775,468
905.885925,486
906.002014,467
906.118164,474
906.234314,462
906.350403,439
906.466492,460
906.582642,475
906.69873,463
906.814758,462
906.930908,480
907.046936,482
907.163086,483
907.279175,464
907.395264,452
907.511353,488
907.62738,470
907.743408,454
907.859497,468
907.975525,465
908.091553,485
908.207703,451
908.32373,478
908.439758,479
908.555786,468
908.671814,460
908.787842,461
908.90387,462
909.019775,470
909.135864,470
909.251892,475
909.367859,453
909.483826,464
909.599854,478
909.715881,469
909.831848,467
909.947815,469
910.063782,476
910.179749,458
910.295776,471
910.411743,465
910.527649,492
910.643616,471
910.759583,481
910.875488,469
910.991455,474
911.107361,487
911.223267,484
911.339294,469
911.4552,467
911.571106,438
911.687073,485
911.802979,469
911.918823,466
912.034729,466
912.150635,449
912.266602,456
912.382446,469
912.498352,470
912.614197,457
912.730103,480
912.846008,469
792.44574,598
792.56488,623
792.68396,679
792.80304,659
792.92218,614
793.041199,603
793.160339,628
793.279419,628
793.398499,614
793.517578,581
793.636658,599
793.755737,604
793.874817,617
793.993896,597
794.112976,606
794.232056,597
794.351074,575
794.470215,565
794.589233,594
794.708313,607
794.827393,603
794.946411,604
795.065552,585
795.18457,605
795.303589,580
795.422668,568
795.541687,590
795.660767,607
795.779846,580
795.898865,607
796.017883,599
796.136963,571
796.255981,584
796.375061,582
796.49408,584
796.613037,585
796.732117,562
796.851135,596
796.970154,574
797.089233,571
797.208191,567
797.327271,562
797.446228,575
797.565186,577
797.684265,574
797.803223,580
797.922241,572
798.04126,587
798.160278,585
798.279297,588
798.398315,548
798.517273,580
798.636292,563
798.75531,573
798.874268,572
798.993286,571
799.112244,588
799.231323,569
799.350281,575
799.469238,573
799.588257,580
799.707153,575
799.826111,584
799.945129,569
800.064087,566
800.183044,580
800.302063,561
800.421021,589
800.539978,588
800.658936,607
800.777893,588
800.896912,586
801.015747,571
801.134705,573
801.253723,557
801.37262,560
801.491638,573
801.610535,567
801.729492,568
801.84845,596
801.967407,599
802.086243,569
802.205261,585
802.324158,598
802.443115,583
802.562073,585
802.680969,574
802.799927,589
802.918762,587
803.037659,578
803.156677,600
803.275574,612
803.39447,596
803.513428,602
803.632263,580
803.751221,575
803.870117,586
803.989014,587
804.107971,618
804.226746,589
804.345642,604
804.4646,601
804.583496,602
804.702393,620
804.821228,606
804.940125,602
805.059021,581
805.177917,591
805.296814,600
805.415649,610
805.534546,592
805.653442,610
805.772278,590
805.891113,603
806.01001,598
806.128906,624
806.247742,616
806.366577,608
806.485413,598
806.604309,606
806.723145,586
806.84198,598
806.960876,637
807.079712,629
807.198486,613
807.317383,608
807.436218,603
807.554993,606
807.673889,619
807.792725,614
807.91156,610
808.030396,647
808.14917,592
808.268005,614
808.386841,612
808.505676,602
808.624451,615
808.743286,619
808.862122,628
808.980896,635
809.099731,610
809.218506,635
809.337341,620
809.456116,650
809.57489,622
809.693726,626
809.8125,639
809.931274,614
810.050049,630
810.168884,632
810.287659,646
810.406372,638
810.525269,619
810.643982,632
810.762756,626
810.881531,642
811.000305,640
811.11908,650
811.237854,644
811.356567,629
811.475403,618
811.594116,639
811.71283,610
811.831604,623
811.950378,643
812.069153,601
812.187927,623
812.30658,633
812.425415,632
812.544128,617
812.662781,630
812.781616,626
812.900269,638
813.019043,621
813.137756,648
813.256531,624
813.375244,623
813.493896,623
813.612671,632
813.731384,630
813.850037,630
813.96875,612
814.087524,622
814.206238,640
814.324951,624
814.443604,625
814.562256,627
814.68103,619
814.799683,647
814.918335,630
815.037109,635
815.155762,615
815.274475,616
815.393188,619
815.511841,635
815.630554,635
815.749146,627
815.867859,622
815.986572,611
816.105164,599
816.223877,591
816.342529,630
816.461182,618
816.579895,617
816.698486,621
816.817139,620
816.935791,610
817.054504,620
817.173096,619
817.291748,625
817.4104,604
817.529053,594
817.647644,592
817.766235,592
817.884949,597
818.00354,595
818.122192,569
818.240845,575
818.359436,546
818.478088,536
818.59668,548
818.715271,530
818.833923,522
818.952515,527
819.071106,512
819.189758,539
819.30835,512
819.426941,495
819.545532,513
819.664124,508
819.782715,495
819.901306,497
820.019897,506
820.138489,519
820.25708,476
820.375671,509
820.494202,492
820.612732,499
820.731384,498
820.849915,504
820.968506,472
821.087097,481
821.205627,486
821.324158,480
821.442749,489
821.561279,491
821.679871,472
821.798401,488
821.916931,482
822.035461,479
822.154053,489
822.272583,510
822.391174,483
822.509583,488
822.628174,469
822.746704,477
822.865234,475
822.983765,478
823.102295,504
823.220825,478
823.339294,462
823.457825,477
823.576355,481
823.694824,497
823.813354,498
823.931885,479
824.050354,462
824.168884,499
824.287354,481
824.405823,491
824.524353,470
824.642822,498
824.761353,477
824.879822,482
824.998291,493
825.116699,490
825.235291,498
825.353699,455
825.472168,479
825.590637,483
825.709106,491
825.827576,486
825.946045,477
826.064453,479
826.182983,487
826.301392,458
826.4198,481
826.53833,489
826.656738,472
826.775208,480
826.893677,475
827.012024,469
827.130493,464
827.248962,467
827.36731,484
827.485779,460
827.604248,452
827.722595,461
827.841064,468
827.959412,478
828.077942,479
828.196289,454
828.314636,449
828.433105,455
828.551514,462
828.669861,449
828.78833,464
828.906677,467
829.025085,469
829.143433,475
829.261841,447
829.38031,454
829.498657,467
829.617004,472
829.735413,456
829.85376,427
829.972107,470
830.090515,468
830.208862,458
830.327209,470
830.445557,469
830.563904,446
830.682312,461
830.800659,464
830.919006,465
831.037354,462
831.155701,461
831.274048,448
831.392395,455
831.51062,457
831.629028,467
831.747314,472
831.865662,452
831.984009,445
832.102356,449
832.220642,457
832.338928,452
832.457275,436
832.575623,471
832.693909,458
832.812134,455
832.930481,461
833.048828,467
833.167114,470
833.2854,446
833.403687,466
833.521973,451
833.640259,447
833.758545,457
833.876831,462
833.995056,472
834.113281,456
834.231628,445
834.349915,469
834.468201,457
834.586426,454
834.704651,463
834.822998,462
834.941162,459
835.059448,451
835.177673,461
835.295959,456
835.414246,444
835.53241,472
835.650635,456
835.768921,459
835.887146,461
836.005371,474
836.123596,462
836.241821,446
836.360046,464
836.478271,466
836.596497,459
836.714722,468
836.832886,458
836.95105,478
837.069336,480
837.1875,466
837.305725,473
837.423889,482
837.542053,488
837.660339,484
837.778503,458
837.896667,479
838.014832,479
838.132996,481
838.25116,491
838.369385,470
838.487488,459
838.605713,480
838.723877,490
838.84198,480
838.960205,468
839.078308,498
839.196472,470
839.314636,464
839.4328,455
839.550964,463
839.669067,474
839.787231,487
839.905396,475
840.023499,470
840.141602,470
840.259766,469
840.377869,457
840.495972,480
840.614136,464
840.732239,473
840.850342,473
840.968445,460
841.086548,453
841.204651,478
841.322754,456
841.440918,477
841.55896,464
841.677002,467
841.795166,464
841.913208,464
842.031311,447
842.149353,456
842.267456,466
842.385498,454
842.503601,456
842.621643,454
842.739746,450
842.857788,432
842.97583,447
843.093933,457
843.211975,472
843.330017,461
843.44812,460
843.566101,440
843.684204,450
843.802246,464
843.920227,466
844.038269,439
844.156311,442
844.274292,461
844.392395,447
844.510376,461
844.628357,446
844.74646,435
844.864441,448
844.982422,450
845.100403,466
845.218384,444
845.336426,449
845.454468,459
845.572449,465
845.69043,458
845.808411,439
845.926453,440
846.044373,448
846.162354,432
846.280396,443
846.398315,460
846.516296,445
846.634216,442
846.752197,454
846.870178,454
846.988098,458
847.106079,443
847.22406,445
847.34198,452
847.4599,449
847.577881,435
847.695801,453
847.813782,456
847.931641,443
848.049561,457
848.167603,441
848.285461,466
848.403381,441
848.521362,445
848.639221,444
848.75708,428
848.875,460
848.99292,436
849.110901,432
849.22876,470
849.34668,450
849.464539,464
849.582458,452
849.700317,463
849.818176,457
849.936096,465
850.053955,439
850.171875,449
850.289673,465
850.407593,438
850.525452,433
850.643311,448
850.761169,439
850.878967,443
850.996887,454
851.114746,448
851.232544,459
851.350403,445
851.468262,455
851.58606,441
851.703979,432
851.821777,464
851.939636,446
852.057434,451
852.175232,451
852.293091,453
852.410889,468
852.528687,434
852.646545,456
852.764343,441
852.88208,442
852.999939,470
853.117676,438
853.235535,464
853.353271,434
853.471069,448
853.588928,452
853.706604,457
853.824402,465
853.9422,447
854.059998,463
854.177734,449
854.295532,447
854.413269,452
854.531006,463
854.648804,457
854.766541,462
854.884277,457
855.002014,454
855.119751,458
855.237549,469
855.355225,460
855.473022,444
855.590698,442
855.708435,462
855.826172,461
855.943848,429
856.061646,472
856.179321,460
856.296997,464
856.414795,451
856.53241,462
856.650085,444
856.767822,467
856.885559,448
857.003174,468
857.120911,443
857.238586,470
857.356201,463
857.473938,457
857.591614,452
857.709351,456
857.826965,456
857.944641,459
858.062317,458
858.179993,445
858.297668,448
858.415283,478
858.532959,458
858.650574,444
858.768188,456
858.885803,434
859.003479,454
859.121094,454
859.23877,448
859.356384,470
859.473999,445
859.591675,458
859.709229,445
859.826843,442
859.944458,443
860.062012,452
860.179626,448
860.297302,448
860.414856,456
860.532471,449
860.650024,468
860.767639,449
860.885193,435
861.002808,471
861.120361,421
861.237976,467
861.35553,434
861.473022,432
861.590698,457
861.708191,433
861.825745,450
861.943298,440
862.060852,457
862.178406,434
862.295959,446
862.413513,470
862.531006,459
862.64856,455
862.766113,442
862.883667,451
863.00116,453
863.118713,448
863.236206,451
863.353699,442
863.471252,450
863.588745,472
863.706177,426
863.82373,465
863.941162,444
864.058716,456
864.176208,463
864.29364,443
864.411194,460
864.528687,450
864.646118,449
864.763611,442
864.881042,439
864.998535,450
865.116028,458
865.233459,450
865.350891,431
865.468384,463
865.585754,464
865.703308,466
865.820679,450
865.938171,448
866.055542,465
866.173035,466
866.290466,456
866.407837,464
866.52533,453
866.6427,456
866.760071,458
866.877563,447
866.994934,458
867.112305,464
867.229736,458
867.347107,448
867.464539,464
867.58197,442
867.699341,446
867.81665,461
867.934082,454
868.051453,433
868.168823,460
868.286194,445
868.403564,464
868.520935,434
868.638306,454
868.755676,424
868.872986,448
868.990295,463
869.107727,438
869.225037,455
869.342346,443
869.459717,470
869.577026,468
869.694336,458
869.811707,443
869.929016,457
870.046326,445
870.163635,451
870.280945,440
870.398254,442
870.515564,462
870.632812,466
870.750183,447
870.867432,468
870.984741,441
871.102051,461
871.219299,447
871.336609,469
871.453918,439
871.571106,458
871.688416,441
871.805664,460
871.922852,459
872.040222,469
872.157471,452
872.274719,466
872.391968,452
872.509155,461
872.626465,448
872.743652,466
872.860962,430
872.978149,452
873.095337,451
873.212646,452
873.329834,449
873.44696,457
873.564209,449
873.681396,448
873.798645,451
873.915894,449
874.03302,445
874.150208,469
874.267456,460
874.384583,460
874.501831,459
874.618958,453
874.736145,448
874.853333,467
874.970459,443
875.087646,458
875.204834,460
875.32196,460
875.439148,458
875.556274,462
875.673401,454
875.790527,458
875.907715,443
876.024841,454
876.141968,459
876.259094,452
876.376282,442
876.493347,453
876.610474,439
876.7276,433
876.844727,466
876.961853,443
877.078918,459
877.195984,440
877.313171,451
877.430237,446
877.547302,453
877.664368,432
877.781433,435
877.898499,460
878.015625,438
878.13269,443
878.249695,465
878.366821,455
878.483887,441
878.600952,475
878.717957,452
878.834961,452
878.952087,461
879.069092,453
879.186157,456
879.303162,443
879.420227,447
879.537231,454
879.654236,433
879.77124,464
879.888306,440
880.005249,452
880.122314,454
880.239319,449
880.356323,458
880.473328,452
880.590271,467
880.707275,454
880.824341,456
880.941284,457
881.058228,450
881.175232,455
881.292236,467
881.40918,461
881.526123,437
881.643066,466
881.760071,443
881.877014,448
881.993958,456
882.11084,471
882.227783,447
882.344727,459
882.46167,451
882.578613,451
882.695618,446
882.812439,440
882.929382,435
883.046326,448
883.163208,481
883.280151,443
883.397034,440
883.513916,462
883.630798,434
883.747742,465
883.864563,451
883.981506,457
884.098389,440
884.21521,452
884.332153,454
884.448975,440
884.565796,459
884.682678,457
884.7995,452
884.916443,462
885.033264,437
885.150085,440
885.266968,477
885.383789,455
885.500671,450
885.617493,468
885.734314,451
885.851196,447
885.967896,456
886.084717,465
886.201599,452
886.318359,447
886.435181,463
886.552002,458
886.668762,462
886.785645,455
886.902344,460
887.019165,471
887.135925,452
887.252747,456
887.369446,453
887.486267,433
887.603027,462
887.719788,464
887.836548,473
887.953247,465
888.070068,461
888.186829,464
888.303528,447
888.420288,464
888.536987,453
888.653687,442
888.770447,467
888.887146,460
889.003967,468
889.120667,459
889.237305,451
889.354065,464
889.470703,462
889.587463,465
889.704163,454
889.820862,457
889.937561,457
890.054199,463
890.170837,462
890.287598,453
890.404236,451
890.520874,474
890.637634,469
890.754211,465
890.87085,487
890.987549,465
891.104187,456
891.220886,464
891.337463,460
891.454102,462
891.57074,468
891.687378,462
891.804077,447
891.920654,465
892.037231,462
892.15387,460
892.270447,470
892.387085,478
892.503723,466
892.6203,448
892.736877,451
892.853516,450
892.970032,450
893.08667,448
893.203186,474
893.319763,457
893.43634,482
893.552917,459
893.669556,447
893.786011,464
893.902588,453
894.019165,458
894.135681,452
894.252197,461
894.368835,481
894.485291,469
894.601868,472
894.718384,487
894.8349,456
894.951355,458
895.067932,458
895.184448,458
895.300964,460
895.417419,462
895.533936,462
895.650452,492
895.766907,450
895.883423,481
895.999878,463
896.116333,457
896.232849,493
896.349304,447
896.465759,478
896.582214,456
896.698669,466
896.815125,462
896.931641,478
897.048035,464
897.164551,476
897.280884,442
897.397339,464
897.513794,476
897.630249,469
897.746582,459
897.863098,462
897.979431,480
898.095886,453
898.212341,489
898.328674,465
898.445129,468
898.561462,454
898.677795,469
898.794312,446
898.910645,459
899.026978,448
899.143433,463
899.259766,461
899.37616,464
899.492493,466
899.608765,471
899.725159,455
899.841553,462
899.957947,478
900.07428,456
900.190552,462
900.306946,447
900.423157,472
900.53949,474
900.655884,475
900.772156,459
900.888489,481
901.004822,469
901.121033,464
901.237366,461
901.353699,476
901.46991,487
901.586304,464
901.702515,477
901.818787,453
901.93512,476
902.051331,451
902.167603,459
902.283875,463
902.400085,495
902.516418,466
902.632629,485
902.74884,475
902.865112,474
902.981384,459
903.097595,481
903.213867,480
903.330017,475
903.446289,475
903.5625,455
903.67865,469
903.794922,476
903.911072,480
904.027344,474
904.143494,462
904.259705,470
904.375916,481
904.492065,494
904.608215,450
904.724426,469
904.840576,460
904.956726,466
905.072876,470
905.189087,471
905.305176,465
905.421387,458
905.537537,455
905.653687,462
905.769775,458
905.885925,478
906.002014,468
906.118164,473
906.234314,456
906.350403,459
906.466492,488
906.582642,474
906.69873,471
906.814758,477
906.930908,477
907.046936,474
907.163086,469
907.279175,465
907.395264,490
907.511353,463
907.62738,472
907.743408,475
907.859497,468
907.975525,479
908.091553,465
908.207703,456
908.32373,462
908.439758,466
908.555786,480
908.671814,457
908.787842,466
908.90387,474
909.019775,481
909.135864,470
909.251892,470
909.367859,480
909.483826,465
909.599854,460
909.715881,463
909.831848,452
909.947815,458
910.063782,466
910.179749,485
910.295776,480
910.411743,468
910.527649,464
910.643616,479
910.759583,495
910.875488,469
910.991455,479
911.107361,470
911.223267,493
911.339294,465
911.4552,469
911.571106,457
911.687073,484
911.802979,477
911.918823,465
912.034729,487
912.150635,490
912.266602,466
912.382446,483
912.498352,465
912.614197,485
912.730103,464
912.846008,467
