792.44574,1146
792.56488,1228
792.68396,1177
792.80304,1153
792.92218,1091
793.041199,1050
793.160339,1035
793.279419,1005
793.398499,958
793.517578,965
793.636658,954
793.755737,964
793.874817,960
793.993896,922
794.112976,906
794.232056,827
794.351074,864
794.470215,894
794.589233,827
794.708313,830
794.827393,819
794.946411,823
795.065552,847
795.18457,798
795.303589,832
795.422668,783
795.541687,782
795.660767,786
795.779846,764
795.898865,762
796.017883,759
796.136963,726
796.255981,746
796.375061,756
796.49408,725
796.613037,730
796.732117,690
796.851135,728
796.970154,699
797.089233,738
797.208191,671
797.327271,678
797.446228,683
797.565186,666
797.684265,686
797.803223,660
797.922241,666
798.04126,678
798.160278,639
798.279297,688
798.398315,675
798.517273,681
798.636292,669
798.75531,664
798.874268,662
798.993286,655
799.112244,655
799.231323,652
799.350281,664
799.469238,633
799.588257,641
799.707153,649
799.826111,641
799.945129,631
800.064087,618
800.183044,638
800.302063,646
800.421021,615
800.539978,616
800.658936,639
800.777893,651
800.896912,642
801.015747,624
801.134705,618
801.253723,612
801.37262,632
801.491638,608
801.610535,603
801.729492,620
801.84845,619
801.967407,628
802.086243,616
802.205261,636
802.324158,598
802.443115,609
802.562073,616
802.680969,616
802.799927,586
802.918762,599
803.037659,596
803.156677,619
803.275574,623
803.39447,621
803.513428,614
803.632263,593
803.751221,598
803.870117,624
803.989014,575
804.107971,585
804.226746,592
804.345642,612
804.4646,589
804.583496,594
804.702393,563
804.821228,581
804.940125,575
805.059021,576
805.177917,579
805.296814,576
805.415649,590
805.534546,595
805.653442,550
805.772278,563
805.891113,581
806.01001,595
806.128906,569
806.247742,572
806.366577,575
806.485413,576
806.604309,577
806.723145,568
806.84198,573
806.960876,565
807.079712,560
807.198486,574
807.317383,580
807.436218,593
807.554993,561
807.673889,574
807.792725,570
807.91156,552
808.030396,536
808.14917,589
808.268005,570
808.386841,568
808.505676,574
808.624451,564
808.743286,556
808.862122,576
808.980896,561
809.099731,567
809.218506,555
809.337341,568
809.456116,597
809.57489,589
809.693726,573
809.8125,566
809.931274,567
810.050049,545
810.168884,557
810.287659,567
810.406372,571
810.525269,564
810.643982,579
810.762756,543
810.881531,551
811.000305,562
811.11908,561
811.237854,567
811.356567,577
811.475403,583
811.594116,590
811.71283,570
811.831604,546
811.950378,607
812.069153,579
812.187927,578
812.30658,573
812.425415,566
812.544128,571
812.662781,573
812.781616,564
812.900269,582
813.019043,573
813.137756,581
813.256531,570
813.375244,549
813.493896,578
813.612671,570
813.731384,560
813.850037,560
813.96875,551
814.087524,584
814.206238,550
814.324951,587
814.443604,565
814.562256,541
814.68103,559
814.799683,574
814.918335,556
815.037109,580
815.155762,556
815.274475,552
815.393188,555
815.511841,562
815.630554,569
815.749146,572
815.867859,527
815.986572,588
816.105164,536
816.223877,542
816.342529,565
816.461182,542
816.579895,552
816.698486,584
816.817139,558
816.935791,562
817.054504,560
817.173096,565
817.291748,570
817.4104,562
817.529053,550
817.647644,563
817.766235,547
817.884949,526
818.00354,537
818.122192,543
818.240845,563
818.359436,537
818.478088,525
818.59668,525
818.715271,531
818.833923,562
818.952515,527
819.071106,518
819.189758,538
819.30835,528
819.426941,508
819.545532,531
819.664124,531
819.782715,505
819.901306,512
820.019897,515
820.138489,513
820.25708,523
820.375671,506
820.494202,501
820.612732,499
820.731384,529
820.849915,499
820.968506,507
821.087097,511
821.205627,517
821.324158,500
821.442749,535
821.561279,509
821.679871,516
821.798401,496
821.916931,502
822.035461,516
822.154053,499
822.272583,483
822.391174,520
822.509583,509
822.628174,535
822.746704,487
822.865234,497
822.983765,514
823.102295,507
823.220825,493
823.339294,514
823.457825,505
823.576355,508
823.694824,492
823.813354,498
823.931885,492
824.050354,510
824.168884,519
824.287354,503
824.405823,498
824.524353,511
824.642822,500
824.761353,513
824.879822,486
824.998291,511
825.116699,474
825.235291,526
825.353699,512
825.472168,516
825.590637,483
825.709106,498
825.827576,519
825.946045,502
826.064453,517
826.182983,499
826.301392,502
826.4198,519
826.53833,509
826.656738,506
826.775208,505
826.893677,509
827.012024,497
827.130493,499
827.248962,499
827.36731,508
827.485779,502
827.604248,511
827.722595,478
827.841064,483
827.959412,488
828.077942,478
828.196289,496
828.314636,485
828.433105,476
828.551514,483
828.669861,487
828.78833,522
828.906677,486
829.025085,504
829.143433,507
829.261841,517
829.38031,472
829.498657,480
829.617004,513
829.735413,510
829.85376,489
829.972107,489
830.090515,495
830.208862,487
830.327209,481
830.445557,488
830.563904,498
830.682312,480
830.800659,494
830.919006,493
831.037354,492
831.155701,520
831.274048,519
831.392395,491
831.51062,508
831.629028,506
831.747314,486
831.865662,505
831.984009,498
832.102356,520
832.220642,496
832.338928,516
832.457275,480
832.575623,499
832.693909,507
832.812134,487
832.930481,510
833.048828,492
833.167114,482
833.2854,485
833.403687,474
833.521973,503
833.640259,487
833.758545,499
833.876831,492
833.995056,513
834.113281,503
834.231628,508
834.349915,493
834.468201,522
834.586426,484
834.704651,501
834.822998,489
834.941162,503
835.059448,487
835.177673,482
835.295959,490
835.414246,521
835.53241,492
835.650635,491
835.768921,497
835.887146,491
836.005371,486
836.123596,482
836.241821,508
836.360046,493
836.478271,500
836.596497,508
836.714722,486
836.832886,477
836.95105,484
837.069336,498
837.1875,499
837.305725,503
837.423889,493
837.542053,499
837.660339,490
837.778503,486
837.896667,486
838.014832,498
838.132996,482
838.25116,506
838.369385,504
838.487488,519
838.605713,492
838.723877,517
838.84198,486
838.960205,483
839.078308,513
839.196472,484
839.314636,505
839.4328,522
839.550964,498
839.669067,522
839.787231,500
839.905396,512
840.023499,516
840.141602,534
840.259766,561
840.377869,514
840.495972,529
840.614136,528
840.732239,537
840.850342,536
840.968445,531
841.086548,539
841.204651,540
841.322754,555
841.440918,518
841.55896,539
841.677002,548
841.795166,542
841.913208,555
842.031311,549
842.149353,541
842.267456,531
842.385498,522
842.503601,550
842.621643,505
842.739746,541
842.857788,523
842.97583,510
843.093933,540
843.211975,521
843.330017,535
843.44812,530
843.566101,527
843.684204,539
843.802246,528
843.920227,524
844.038269,531
844.156311,540
844.274292,531
844.392395,528
844.510376,532
844.628357,515
844.74646,524
844.864441,519
844.982422,504
845.100403,546
845.218384,523
845.336426,541
845.454468,503
845.572449,519
845.69043,511
845.808411,530
845.926453,511
846.044373,516
846.162354,527
846.280396,518
846.398315,537
846.516296,522
846.634216,511
846.752197,520
846.870178,532
846.988098,508
847.106079,530
847.22406,539
847.34198,513
847.4599,512
847.577881,534
847.695801,536
847.813782,538
847.931641,502
848.049561,504
848.167603,514
848.285461,530
848.403381,520
848.521362,502
848.639221,540
848.75708,509
848.875,543
848.99292,531
849.110901,535
849.22876,518
849.34668,514
849.464539,536
849.582458,530
849.700317,532
849.818176,519
849.936096,536
850.053955,516
850.171875,510
850.289673,540
850.407593,527
850.525452,518
850.643311,520
850.761169,532
850.878967,512
850.996887,520
851.114746,512
851.232544,515
851.350403,496
851.468262,516
851.58606,524
851.703979,518
851.821777,502
851.939636,531
852.057434,512
852.175232,524
852.293091,519
852.410889,547
852.528687,533
852.646545,597
852.764343,556
852.88208,565
852.999939,527
853.117676,559
853.235535,514
853.353271,532
853.471069,520
853.588928,538
853.706604,526
853.824402,547
853.9422,520
854.059998,524
854.177734,523
854.295532,539
854.413269,538
854.531006,542
854.648804,537
854.766541,540
854.884277,538
855.002014,553
855.119751,514
855.237549,516
855.355225,545
855.473022,529
855.590698,521
855.708435,529
855.826172,511
855.943848,532
856.061646,537
856.179321,530
856.296997,542
856.414795,560
856.53241,520
856.650085,529
856.767822,558
856.885559,536
857.003174,563
857.120911,551
857.238586,553
857.356201,532
857.473938,530
857.591614,544
857.709351,526
857.826965,526
857.944641,526
858.062317,543
858.179993,568
858.297668,554
858.415283,569
858.532959,533
858.650574,549
858.768188,538
858.885803,548
859.003479,547
859.121094,533
859.23877,519
859.356384,549
859.473999,520
859.591675,533
859.709229,543
859.826843,522
859.944458,522
860.062012,515
860.179626,510
860.297302,497
860.414856,536
860.532471,527
860.650024,528
860.767639,532
860.885193,530
861.002808,512
861.120361,537
861.237976,519
861.35553,516
861.473022,513
861.590698,523
861.708191,512
861.825745,539
861.943298,512
862.060852,512
862.178406,498
862.295959,506
862.413513,498
862.531006,499
862.64856,491
862.766113,496
862.883667,504
863.00116,528
863.118713,488
863.236206,514
863.353699,506
863.471252,487
863.588745,492
863.706177,509
863.82373,508
863.941162,511
864.058716,530
864.176208,521
864.29364,495
864.411194,502
864.528687,482
864.646118,507
864.763611,517
864.881042,495
864.998535,507
865.116028,495
865.233459,493
865.350891,472
865.468384,492
865.585754,488
865.703308,497
865.820679,523
865.938171,519
866.055542,496
866.173035,500
866.290466,524
866.407837,490
866.52533,511
866.6427,509
866.760071,494
866.877563,508
866.994934,518
867.112305,492
867.229736,503
867.347107,518
867.464539,512
867.58197,504
867.699341,517
867.81665,537
867.934082,506
868.051453,520
868.168823,515
868.286194,493
868.403564,520
868.520935,504
868.638306,516
868.755676,524
868.872986,511
868.990295,540
869.107727,522
869.225037,507
869.342346,543
869.459717,512
869.577026,531
869.694336,526
869.811707,538
869.929016,533
870.046326,538
870.163635,512
870.280945,526
870.398254,530
870.515564,539
870.632812,533
870.750183,551
870.867432,542
870.984741,551
871.102051,530
871.219299,539
871.336609,547
871.453918,548
871.571106,545
871.688416,579
871.805664,540
871.922852,555
872.040222,537
872.157471,547
872.274719,562
872.391968,551
872.509155,541
872.626465,540
872.743652,561
872.860962,550
872.978149,557
873.095337,560
873.212646,524
873.329834,551
873.44696,541
873.564209,550
873.681396,539
873.798645,534
873.915894,516
874.03302,545
874.150208,547
874.267456,559
874.384583,552
874.501831,563
874.618958,561
874.736145,541
874.853333,540
874.970459,574
875.087646,535
875.204834,545
875.32196,548
875.439148,556
875.556274,532
875.673401,559
875.790527,527
875.907715,542
876.024841,515
876.141968,537
876.259094,523
876.376282,531
876.493347,535
876.610474,516
876.7276,528
876.844727,521
876.961853,545
877.078918,534
877.195984,539
877.313171,527
877.430237,500
877.547302,515
877.664368,511
877.781433,505
877.898499,532
878.015625,506
878.13269,502
878.249695,530
878.366821,506
878.483887,497
878.600952,511
878.717957,518
878.834961,512
878.952087,514
879.069092,517
879.186157,525
879.303162,499
879.420227,500
879.537231,496
879.654236,523
879.77124,477
879.888306,519
880.005249,507
880.122314,477
880.239319,510
880.356323,499
880.473328,475
880.590271,493
880.707275,479
880.824341,474
880.941284,520
881.058228,489
881.175232,492
881.292236,484
881.40918,476
881.526123,498
881.643066,487
881.760071,505
881.877014,507
881.993958,507
882.11084,496
882.227783,496
882.344727,488
882.46167,501
882.578613,497
882.695618,495
882.812439,490
882.929382,511
883.046326,489
883.163208,496
883.280151,494
883.397034,489
883.513916,495
883.630798,504
883.747742,517
883.864563,506
883.981506,510
884.098389,512
884.21521,506
884.332153,508
884.448975,514
884.565796,538
884.682678,533
884.7995,565
884.916443,547
885.033264,593
885.150085,578
885.266968,592
885.383789,583
885.500671,604
885.617493,616
885.734314,617
885.851196,597
885.967896,612
886.084717,583
886.201599,608
886.318359,600
886.435181,568
886.552002,582
886.668762,580
886.785645,587
886.902344,603
887.019165,583
887.135925,557
887.252747,564
887.369446,546
887.486267,552
887.603027,536
887.719788,526
887.836548,531
887.953247,529
888.070068,506
888.186829,535
888.303528,506
888.420288,515
888.536987,496
888.653687,500
888.770447,504
888.887146,488
889.003967,487
889.120667,483
889.237305,486
889.354065,486
889.470703,491
889.587463,476
889.704163,504
889.820862,464
889.937561,472
890.054199,468
890.170837,488
890.287598,459
890.404236,492
890.520874,481
890.637634,483
890.754211,482
890.87085,483
890.987549,477
891.104187,482
891.220886,475
891.337463,483
891.454102,462
891.57074,499
891.687378,470
891.804077,493
891.920654,462
892.037231,489
892.15387,500
892.270447,501
892.387085,484
892.503723,479
892.6203,475
892.736877,493
892.853516,472
892.970032,480
893.08667,471
893.203186,466
893.319763,482
893.43634,485
893.552917,475
893.669556,485
893.786011,474
893.902588,467
894.019165,484
894.135681,486
894.252197,465
894.368835,497
894.485291,482
894.601868,478
894.718384,465
894.8349,490
894.951355,491
895.067932,466
895.184448,468
895.300964,471
895.417419,467
895.533936,472
895.650452,461
895.766907,459
895.883423,478
895.999878,481
896.116333,475
896.232849,476
896.349304,466
896.465759,500
896.582214,465
896.698669,474
896.815125,474
896.931641,482
897.048035,459
897.164551,488
897.280884,491
897.397339,475
897.513794,465
897.630249,474
897.746582,474
897.863098,488
897.979431,479
898.095886,468
898.212341,482
898.328674,447
898.445129,480
898.561462,473
898.677795,488
898.794312,476
898.910645,463
899.026978,467
899.143433,492
899.259766,491
899.37616,487
899.492493,488
899.608765,493
899.725159,488
899.841553,484
899.957947,487
900.07428,496
900.190552,496
900.306946,484
900.423157,481
900.53949,476
900.655884,495
900.772156,485
900.888489,476
901.004822,493
901.121033,477
901.237366,485
901.353699,482
901.46991,484
901.586304,507
901.702515,503
901.818787,509
901.93512,514
902.051331,526
902.167603,516
902.283875,509
902.400085,527
902.516418,532
902.632629,544
902.74884,543
902.865112,534
902.981384,549
903.097595,548
903.213867,544
903.330017,537
903.446289,548
903.5625,554
903.67865,530
903.794922,508
903.911072,549
904.027344,531
904.143494,521
904.259705,499
904.375916,493
904.492065,516
904.608215,518
904.724426,503
904.840576,496
904.956726,461
905.072876,499
905.189087,506
905.305176,498
905.421387,495
905.537537,482
905.653687,472
905.769775,495
905.885925,475
906.002014,492
906.118164,481
906.234314,466
906.350403,448
906.466492,480
906.582642,447
906.69873,480
906.814758,462
906.930908,461
907.046936,451
907.163086,485
907.279175,459
907.395264,482
907.511353,467
907.62738,485
907.743408,448
907.859497,480
907.975525,473
908.091553,458
908.207703,474
908.32373,470
908.439758,462
908.555786,469
908.671814,458
908.787842,462
908.90387,471
909.019775,455
909.135864,459
909.251892,488
909.367859,469
909.483826,471
909.599854,478
909.715881,496
909.831848,477
909.947815,470
910.063782,464
910.179749,480
910.295776,480
910.411743,482
910.527649,477
910.643616,484
910.759583,484
910.875488,470
910.991455,480
911.107361,489
911.223267,482
911.339294,458
911.4552,478
911.571106,475
911.687073,466
911.802979,469
911.918823,460
912.034729,464
912.150635,462
912.266602,461
912.382446,466
912.498352,460
912.614197,450
912.730103,482
912.846008,443
792.44574,1169
792.56488,1132
792.68396,1187
792.80304,1162
792.92218,1063
793.041199,1062
793.160339,1032
793.279419,1031
793.398499,1015
793.517578,931
793.636658,947
793.755737,958
793.874817,968
793.993896,937
794.112976,885
794.232056,909
794.351074,897
794.470215,862
794.589233,823
794.708313,802
794.827393,824
794.946411,820
795.065552,809
795.18457,806
795.303589,806
795.422668,809
795.541687,786
795.660767,785
795.779846,796
795.898865,743
796.017883,766
796.136963,773
796.255981,756
796.375061,748
796.49408,709
796.613037,747
796.732117,725
796.851135,725
796.970154,691
797.089233,711
797.208191,731
797.327271,707
797.446228,681
797.565186,681
797.684265,667
797.803223,685
797.922241,670
798.04126,666
798.160278,667
798.279297,664
798.398315,683
798.517273,676
798.636292,683
798.75531,683
798.874268,657
798.993286,681
799.112244,636
799.231323,666
799.350281,657
799.469238,652
799.588257,624
799.707153,619
799.826111,648
799.945129,628
800.064087,649
800.183044,637
800.302063,649
800.421021,606
800.539978,653
800.658936,611
800.777893,638
800.896912,627
801.015747,621
801.134705,632
801.253723,605
801.37262,641
801.491638,630
801.610535,615
801.729492,631
801.84845,618
801.967407,628
802.086243,616
802.205261,613
802.324158,610
802.443115,612
802.562073,619
802.680969,596
802.799927,616
802.918762,602
803.037659,579
803.156677,607
803.275574,608
803.39447,583
803.513428,604
803.632263,587
803.751221,597
803.870117,628
803.989014,588
804.107971,614
804.226746,607
804.345642,612
804.4646,579
804.583496,571
804.702393,587
804.821228,575
804.940125,602
805.059021,577
805.177917,584
805.296814,598
805.415649,584
805.534546,598
805.653442,592
805.772278,587
805.891113,582
806.01001,590
806.128906,571
806.247742,576
806.366577,564
806.485413,589
806.604309,594
806.723145,567
806.84198,576
806.960876,561
807.079712,583
807.198486,595
807.317383,570
807.436218,550
807.554993,558
807.673889,563
807.792725,560
807.91156,593
808.030396,564
808.14917,589
808.268005,571
808.386841,559
808.505676,583
808.624451,550
808.743286,572
808.862122,568
808.980896,544
809.099731,546
809.218506,572
809.337341,568
809.456116,595
809.57489,564
809.693726,562
809.8125,569
809.931274,562
810.050049,579
810.168884,572
810.287659,558
810.406372,571
810.525269,578
810.643982,597
810.762756,576
810.881531,575
811.000305,573
811.11908,576
811.237854,563
811.356567,547
811.475403,576
811.594116,566
811.71283,572
811.831604,596
811.950378,549
812.069153,584
812.187927,582
812.30658,576
812.425415,567
812.544128,575
812.662781,563
812.781616,588
812.900269,564
813.019043,565
813.137756,586
813.256531,576
813.375244,562
813.493896,570
813.612671,570
813.731384,559
813.850037,566
813.96875,548
814.087524,560
814.206238,525
814.324951,560
814.443604,564
814.562256,549
814.68103,556
814.799683,563
814.918335,563
815.037109,561
815.155762,572
815.274475,553
815.393188,560
815.511841,569
815.630554,559
815.749146,545
815.867859,547
815.986572,547
816.105164,556
816.223877,545
816.342529,551
816.461182,554
816.579895,557
816.698486,561
816.817139,568
816.935791,564
817.054504,577
817.173096,566
817.291748,555
817.4104,586
817.529053,558
817.647644,538
817.766235,543
817.884949,541
818.00354,560
818.122192,533
818.240845,571
818.359436,547
818.478088,554
818.59668,532
818.715271,545
818.833923,535
818.952515,514
819.071106,515
819.189758,521
819.30835,532
819.426941,526
819.545532,512
819.664124,506
819.782715,518
819.901306,519
820.019897,512
820.138489,506
820.25708,522
820.375671,545
820.494202,519
820.612732,538
820.731384,525
820.849915,521
820.968506,515
821.087097,512
821.205627,521
821.324158,512
821.442749,508
821.561279,511
821.679871,529
821.798401,518
821.916931,526
822.035461,502
822.154053,499
822.272583,491
822.391174,508
822.509583,503
822.628174,500
822.746704,516
822.865234,518
822.983765,518
823.102295,515
823.220825,491
823.339294,475
823.457825,513
823.576355,504
823.694824,495
823.813354,511
823.931885,513
824.050354,499
824.168884,515
824.287354,486
824.405823,501
824.524353,488
824.642822,505
824.761353,507
824.879822,518
824.998291,526
825.116699,536
825.235291,503
825.353699,493
825.472168,494
825.590637,495
825.709106,509
825.827576,504
825.946045,492
826.064453,511
826.182983,483
826.301392,483
826.4198,470
826.53833,508
826.656738,501
826.775208,487
826.893677,495
827.012024,493
827.130493,487
827.248962,490
827.36731,503
827.485779,496
827.604248,487
827.722595,491
827.841064,497
827.959412,490
828.077942,479
828.196289,519
828.314636,503
828.433105,488
828.551514,495
828.669861,507
828.78833,485
828.906677,492
829.025085,492
829.143433,499
829.261841,485
829.38031,516
829.498657,485
829.617004,498
829.735413,477
829.85376,501
829.972107,487
830.090515,508
830.208862,487
830.327209,503
830.445557,483
830.563904,500
830.682312,486
830.800659,486
830.919006,490
831.037354,478
831.155701,512
831.274048,512
831.392395,501
831.51062,498
831.629028,508
831.747314,506
831.865662,487
831.984009,516
832.102356,494
832.220642,503
832.338928,522
832.457275,490
832.575623,494
832.693909,495
832.812134,503
832.930481,507
833.048828,505
833.167114,510
833.2854,496
833.403687,502
833.521973,503
833.640259,488
833.758545,475
833.876831,497
833.995056,510
834.113281,481
834.231628,500
834.349915,487
834.468201,495
834.586426,490
834.704651,522
834.822998,499
834.941162,501
835.059448,526
835.177673,502
835.295959,490
835.414246,491
835.53241,514
835.650635,488
835.768921,483
835.887146,494
836.005371,489
836.123596,499
836.241821,484
836.360046,488
836.478271,505
836.596497,488
836.714722,475
836.832886,495
836.95105,505
837.069336,474
837.1875,489
837.305725,481
837.423889,500
837.542053,482
837.660339,506
837.778503,496
837.896667,507
838.014832,499
838.132996,512
838.25116,482
838.369385,509
838.487488,495
838.605713,510
838.723877,492
838.84198,483
838.960205,487
839.078308,494
839.196472,499
839.314636,518
839.4328,502
839.550964,512
839.669067,519
839.787231,506
839.905396,505
840.023499,513
840.141602,525
840.259766,536
840.377869,509
840.495972,537
840.614136,518
840.732239,516
840.850342,521
840.968445,516
841.086548,532
841.204651,529
841.322754,536
841.440918,540
841.55896,550
841.677002,516
841.795166,521
841.913208,540
842.031311,553
842.149353,545
842.267456,527
842.385498,552
842.503601,535
842.621643,533
842.739746,518
842.857788,519
842.97583,540
843.093933,539
843.211975,535
843.330017,540
843.44812,506
843.566101,552
843.684204,539
843.802246,523
843.920227,506
844.038269,540
844.156311,524
844.274292,522
844.392395,518
844.510376,534
844.628357,529
844.74646,531
844.864441,521
844.982422,500
845.100403,526
845.218384,532
845.336426,504
845.454468,517
845.572449,526
845.69043,521
845.808411,498
845.926453,510
846.044373,526
846.162354,509
846.280396,509
846.398315,542
846.516296,517
846.634216,505
846.752197,517
846.870178,534
846.988098,535
847.106079,526
847.22406,520
847.34198,520
847.4599,544
847.577881,517
847.695801,506
847.813782,531
847.931641,523
848.049561,530
848.167603,501
848.285461,528
848.403381,525
848.521362,535
848.639221,505
848.75708,522
848.875,534
848.99292,525
849.110901,531
849.22876,550
849.34668,517
849.464539,508
849.582458,511
849.700317,511
849.818176,513
849.936096,544
850.053955,526
850.171875,532
850.289673,530
850.407593,514
850.525452,539
850.643311,529
850.761169,520
850.878967,519
850.996887,518
851.114746,516
851.232544,492
851.350403,528
851.468262,520
851.58606,501
851.703979,520
851.821777,519
851.939636,534
852.057434,526
852.175232,477
852.293091,526
852.410889,531
852.528687,548
852.646545,553
852.764343,575
852.88208,541
852.999939,555
853.117676,542
853.235535,546
853.353271,533
853.471069,547
853.588928,534
853.706604,530
853.824402,523
853.9422,503
854.059998,511
854.177734,512
854.295532,554
854.413269,547
854.531006,521
854.648804,529
854.766541,541
854.884277,541
855.002014,534
855.119751,514
855.237549,530
855.355225,545
855.473022,519
855.590698,521
855.708435,516
855.826172,528
855.943848,532
856.061646,526
856.179321,531
856.296997,537
856.414795,534
856.53241,530
856.650085,535
856.767822,528
856.885559,539
857.003174,568
857.120911,562
857.238586,556
857.356201,566
857.473938,532
857.591614,537
857.709351,529
857.826965,543
857.944641,560
858.062317,541
858.179993,526
858.297668,546
858.415283,550
858.532959,527
858.650574,530
858.768188,552
858.885803,533
859.003479,540
859.121094,531
859.23877,540
859.356384,528
859.473999,540
859.591675,528
859.709229,534
859.826843,530
859.944458,520
860.062012,514
860.179626,529
860.297302,534
860.414856,500
860.532471,503
860.650024,508
860.767639,515
860.885193,521
861.002808,521
861.120361,519
861.237976,510
861.35553,525
861.473022,538
861.590698,548
861.708191,542
861.825745,505
861.943298,528
862.060852,520
862.178406,500
862.295959,478
862.413513,487
862.531006,486
862.64856,501
862.766113,490
862.883667,490
863.00116,480
863.118713,509
863.236206,500
863.353699,490
863.471252,506
863.588745,498
863.706177,516
863.82373,520
863.941162,522
864.058716,530
864.176208,505
864.29364,515
864.411194,515
864.528687,494
864.646118,515
864.763611,500
864.881042,484
864.998535,511
865.116028,505
865.233459,484
865.350891,508
865.468384,505
865.585754,498
865.703308,489
865.820679,499
865.938171,494
866.055542,504
866.173035,488
866.290466,488
866.407837,496
866.52533,487
866.6427,484
866.760071,483
866.877563,497
866.994934,490
867.112305,503
867.229736,489
867.347107,509
867.464539,504
867.58197,508
867.699341,525
867.81665,499
867.934082,507
868.051453,516
868.168823,513
868.286194,523
868.403564,504
868.520935,529
868.638306,528
868.755676,526
868.872986,496
868.990295,528
869.107727,500
869.225037,520
869.342346,536
869.459717,517
869.577026,505
869.694336,521
869.811707,524
869.929016,512
870.046326,516
870.163635,542
870.280945,531
870.398254,513
870.515564,536
870.632812,551
870.750183,555
870.867432,556
870.984741,542
871.102051,539
871.219299,548
871.336609,550
871.453918,533
871.571106,541
871.688416,539
871.805664,544
871.922852,559
872.040222,551
872.157471,545
872.274719,550
872.391968,545
872.509155,565
872.626465,542
872.743652,565
872.860962,562
872.978149,542
873.095337,568
873.212646,564
873.329834,548
873.44696,539
873.564209,531
873.681396,541
873.798645,531
873.915894,535
874.03302,546
874.150208,535
874.267456,551
874.384583,538
874.501831,550
874.618958,548
874.736145,564
874.853333,538
874.970459,557
875.087646,567
875.204834,551
875.32196,533
875.439148,553
875.556274,557
875.673401,522
875.790527,535
875.907715,523
876.024841,551
876.141968,518
876.259094,530
876.376282,519
876.493347,525
876.610474,546
876.7276,527
876.844727,527
876.961853,521
877.078918,519
877.195984,506
877.313171,515
877.430237,531
877.547302,523
877.664368,516
877.781433,521
877.898499,525
878.015625,535
878.13269,514
878.249695,522
878.366821,522
878.483887,504
878.600952,515
878.717957,520
878.834961,507
878.952087,512
879.069092,506
879.186157,523
879.303162,497
879.420227,527
879.537231,513
879.654236,480
879.77124,498
879.888306,502
880.005249,512
880.122314,508
880.239319,490
880.356323,494
880.473328,481
880.590271,476
880.707275,501
880.824341,503
880.941284,493
881.058228,484
881.175232,503
881.292236,505
881.40918,502
881.526123,478
881.643066,501
881.760071,511
881.877014,498
881.993958,501
882.11084,504
882.227783,490
882.344727,489
882.46167,501
882.578613,511
882.695618,516
882.812439,499
882.929382,485
883.046326,519
883.163208,513
883.280151,488
883.397034,503
883.513916,501
883.630798,472
883.747742,492
883.864563,476
883.981506,499
884.098389,514
884.21521,515
884.332153,503
884.448975,535
884.565796,534
884.682678,530
884.7995,571
884.916443,556
885.033264,548
885.150085,591
885.266968,593
885.383789,603
885.500671,589
885.617493,599
885.734314,600
885.851196,606
885.967896,593
886.084717,602
886.201599,620
886.318359,599
886.435181,603
886.552002,593
886.668762,593
886.785645,580
886.902344,590
887.019165,566
887.135925,605
887.252747,579
887.369446,556
887.486267,566
887.603027,536
887.719788,564
887.836548,542
887.953247,519
888.070068,529
888.186829,507
888.303528,512
888.420288,515
888.536987,479
888.653687,512
888.770447,476
888.887146,508
889.003967,484
889.120667,498
889.237305,475
889.354065,481
889.470703,506
889.587463,481
889.704163,471
889.820862,489
889.937561,464
890.054199,476
890.170837,467
890.287598,486
890.404236,476
890.520874,479
890.637634,477
890.754211,489
890.87085,461
890.987549,469
891.104187,479
891.220886,492
891.337463,486
891.454102,485
891.57074,485
891.687378,518
891.804077,470
891.920654,474
892.037231,491
892.15387,485
892.270447,477
892.387085,475
892.503723,479
892.6203,469
892.736877,496
892.853516,482
892.970032,475
893.08667,485
893.203186,452
893.319763,480
893.43634,480
893.552917,461
893.669556,461
893.786011,488
893.902588,484
894.019165,473
894.135681,477
894.252197,502
894.368835,485
894.485291,476
894.601868,488
894.718384,480
894.8349,458
894.951355,470
895.067932,471
895.184448,460
895.300964,492
895.417419,474
895.533936,447
895.650452,467
895.766907,500
895.883423,466
895.999878,451
896.116333,481
896.232849,483
896.349304,484
896.465759,458
896.582214,468
896.698669,478
896.815125,472
896.931641,465
897.048035,490
897.164551,468
897.280884,462
897.397339,484
897.513794,473
897.630249,478
897.746582,471
897.863098,472
897.979431,481
898.095886,482
898.212341,490
898.328674,477
898.445129,469
898.561462,478
898.677795,493
898.794312,480
898.910645,482
899.026978,478
899.143433,503
899.259766,462
899.37616,511
899.492493,482
899.608765,472
899.725159,498
899.841553,475
899.957947,477
900.07428,482
900.190552,472
900.306946,500
900.423157,464
900.53949,472
900.655884,473
900.772156,476
900.888489,472
901.004822,493
901.121033,492
901.237366,480
901.353699,482
901.46991,488
901.586304,516
901.702515,495
901.818787,499
901.93512,494
902.051331,521
902.167603,514
902.283875,526
902.400085,518
902.516418,536
902.632629,542
902.74884,542
902.865112,532
902.981384,541
903.097595,565
903.213867,532
903.330017,546
903.446289,541
903.5625,552
903.67865,535
903.794922,539
903.911072,526
904.027344,534
904.143494,521
904.259705,505
904.375916,508
904.492065,517
904.608215,506
904.724426,493
904.840576,496
904.956726,501
905.072876,503
905.189087,498
905.305176,498
905.421387,479
905.537537,495
905.653687,503
905.769775,465
905.885925,488
906.002014,485
906.118164,485
906.234314,475
906.350403,477
906.466492,481
906.582642,486
906.69873,456
906.814758,464
906.930908,474
907.046936,454
907.163086,465
907.279175,474
907.395264,476
907.511353,486
907.62738,448
907.743408,469
907.859497,468
907.975525,473
908.091553,466
908.207703,500
908.32373,467
908.439758,462
908.555786,487
908.671814,479
908.787842,484
908.90387,472
909.019775,480
909.135864,455
909.251892,466
909.367859,495
909.483826,461
909.599854,468
909.715881,463
909.831848,496
909.947815,469
910.063782,493
910.179749,483
910.295776,478
910.411743,477
910.527649,488
910.643616,474
910.759583,479
910.875488,456
910.991455,469
911.107361,452
911.223267,470
911.339294,452
911.4552,477
911.571106,489
911.687073,456
911.802979,483
911.918823,480
912.034729,453
912.150635,473
912.266602,457
912.382446,474
912.498352,462
912.614197,469
912.730103,443
912.846008,467
792.44574,1172
792.56488,1176
792.68396,1191
792.80304,1186
792.92218,1067
793.041199,1054
793.160339,1012
793.279419,1008
793.398499,983
793.517578,946
793.636658,958
793.755737,957
793.874817,932
793.993896,925
794.112976,877
794.232056,902
794.351074,862
794.470215,881
794.589233,826
794.708313,844
794.827393,827
794.946411,825
795.065552,814
795.18457,790
795.303589,792
795.422668,795
795.541687,756
795.660767,774
795.779846,749
795.898865,751
796.017883,770
796.136963,737
796.255981,746
796.375061,722
796.49408,724
796.613037,730
796.732117,696
796.851135,737
796.970154,701
797.089233,702
797.208191,709
797.327271,701
797.446228,699
797.565186,722
797.684265,675
797.803223,691
797.922241,675
798.04126,681
798.160278,673
798.279297,676
798.398315,667
798.517273,657
798.636292,652
798.75531,673
798.874268,648
798.993286,659
799.112244,668
799.231323,658
799.350281,657
799.469238,645
799.588257,632
799.707153,649
799.826111,638
799.945129,653
800.064087,623
800.183044,657
800.302063,626
800.421021,643
800.539978,667
800.658936,613
800.777893,633
800.896912,624
801.015747,621
801.134705,616
801.253723,658
801.37262,625
801.491638,607
801.610535,634
801.729492,619
801.84845,609
801.967407,617
802.086243,609
802.205261,644
802.324158,609
802.443115,615
802.562073,614
802.680969,596
802.799927,602
802.918762,588
803.037659,580
803.156677,600
803.275574,587
803.39447,600
803.513428,613
803.632263,585
803.751221,609
803.870117,592
803.989014,597
804.107971,585
804.226746,592
804.345642,583
804.4646,579
804.583496,584
804.702393,606
804.821228,590
804.940125,577
805.059021,596
805.177917,587
805.296814,575
805.415649,588
805.534546,584
805.653442,589
805.772278,593
805.891113,594
806.01001,593
806.128906,581
806.247742,583
806.366577,572
806.485413,596
806.604309,592
806.723145,573
806.84198,579
806.960876,597
807.079712,578
807.198486,582
807.317383,570
807.436218,577
807.554993,582
807.673889,579
807.792725,573
807.91156,589
808.030396,585
808.14917,562
808.268005,556
808.386841,570
808.505676,566
808.624451,589
808.743286,561
808.862122,567
808.980896,560
809.099731,552
809.218506,559
809.337341,570
809.456116,573
809.57489,570
809.693726,565
809.8125,555
809.931274,589
810.050049,586
810.168884,563
810.287659,581
810.406372,589
810.525269,559
810.643982,582
810.762756,581
810.881531,571
811.000305,566
811.11908,581
811.237854,581
811.356567,568
811.475403,567
811.594116,560
811.71283,567
811.831604,574
811.950378,571
812.069153,556
812.187927,554
812.30658,574
812.425415,568
812.544128,574
812.662781,564
812.781616,585
812.900269,581
813.019043,566
813.137756,572
813.256531,579
813.375244,559
813.493896,585
813.612671,579
813.731384,567
813.850037,553
813.96875,565
814.087524,565
814.206238,556
814.324951,563
814.443604,561
814.562256,540
814.68103,567
814.799683,569
814.918335,540
815.037109,560
815.155762,553
815.274475,563
815.393188,565
815.511841,558
815.630554,553
815.749146,544
815.867859,556
815.986572,536
816.105164,555
816.223877,561
816.342529,550
816.461182,556
816.579895,559
816.698486,559
816.817139,571
816.935791,566
817.054504,557
817.173096,551
817.291748,563
817.4104,570
817.529053,563
817.647644,555
817.766235,564
817.884949,555
818.00354,554
818.122192,540
818.240845,537
818.359436,556
818.478088,530
818.59668,548
818.715271,534
818.833923,520
818.952515,527
819.071106,527
819.189758,515
819.30835,530
819.426941,538
819.545532,507
819.664124,518
819.782715,509
819.901306,543
820.019897,509
820.138489,518
820.25708,514
820.375671,524
820.494202,510
820.612732,495
820.731384,539
820.849915,508
820.968506,514
821.087097,503
821.205627,527
821.324158,504
821.442749,508
821.561279,507
821.679871,501
821.798401,500
821.916931,512
822.035461,501
822.154053,514
822.272583,502
822.391174,495
822.509583,497
822.628174,510
822.746704,513
822.865234,529
822.983765,484
823.102295,513
823.220825,501
823.339294,491
823.457825,520
823.576355,503
823.694824,502
823.813354,503
823.931885,523
824.050354,508
824.168884,527
824.287354,498
824.405823,503
824.524353,522
824.642822,504
824.761353,520
824.879822,506
824.998291,504
825.116699,503
825.235291,527
825.353699,499
825.472168,499
825.590637,482
825.709106,527
825.827576,486
825.946045,518
826.064453,519
826.182983,491
826.301392,488
826.4198,491
826.53833,507
826.656738,486
826.775208,488
826.893677,492
827.012024,479
827.130493,487
827.248962,512
827.36731,501
827.485779,502
827.604248,474
827.722595,508
827.841064,480
827.959412,474
828.077942,467
828.196289,489
828.314636,463
828.433105,494
828.551514,496
828.669861,505
828.78833,497
828.906677,497
829.025085,477
829.143433,497
829.261841,476
829.38031,490
829.498657,491
829.617004,483
829.735413,463
829.85376,512
829.972107,487
830.090515,469
830.208862,488
830.327209,501
830.445557,487
830.563904,483
830.682312,512
830.800659,484
830.919006,491
831.037354,495
831.155701,508
831.274048,505
831.392395,515
831.51062,501
831.629028,526
831.747314,496
831.865662,495
831.984009,483
832.102356,493
832.220642,490
832.338928,501
832.457275,511
832.575623,507
832.693909,498
832.812134,482
832.930481,504
833.048828,477
833.167114,499
833.2854,499
833.403687,492
833.521973,488
833.640259,510
833.758545,486
833.876831,503
833.995056,483
834.113281,496
834.231628,492
834.349915,502
834.468201,507
834.586426,517
834.704651,502
834.822998,506
834.941162,521
835.059448,502
835.177673,501
835.295959,517
835.414246,492
835.53241,503
835.650635,500
835.768921,500
835.887146,486
836.005371,502
836.123596,476
836.241821,462
836.360046,479
836.478271,498
836.596497,495
836.714722,477
836.832886,480
836.95105,495
837.069336,495
837.1875,481
837.305725,487
837.423889,501
837.542053,499
837.660339,485
837.778503,485
837.896667,501
838.014832,499
838.132996,491
838.25116,503
838.369385,500
838.487488,509
838.605713,498
838.723877,505
838.84198,516
838.960205,501
839.078308,490
839.196472,500
839.314636,497
839.4328,501
839.550964,516
839.669067,518
839.787231,512
839.905396,519
840.023499,544
840.141602,531
840.259766,517
840.377869,545
840.495972,514
840.614136,504
840.732239,521
840.850342,530
840.968445,523
841.086548,539
841.204651,526
841.322754,529
841.440918,544
841.55896,535
841.677002,541
841.795166,536
841.913208,549
842.031311,536
842.149353,544
842.267456,538
842.385498,537
842.503601,535
842.621643,527
842.739746,536
842.857788,525
842.97583,531
843.093933,525
843.211975,554
843.330017,541
843.44812,552
843.566101,524
843.684204,518
843.802246,533
843.920227,512
844.038269,550
844.156311,516
844.274292,524
844.392395,537
844.510376,515
844.628357,524
844.74646,546
844.864441,510
844.982422,501
845.100403,508
845.218384,544
845.336426,516
845.454468,523
845.572449,512
845.69043,526
845.808411,504
845.926453,550
846.044373,524
846.162354,504
846.280396,534
846.398315,513
846.516296,507
846.634216,531
846.752197,533
846.870178,509
846.988098,510
847.106079,541
847.22406,533
847.34198,532
847.4599,534
847.577881,537
847.695801,517
847.813782,538
847.931641,521
848.049561,531
848.167603,542
848.285461,508
848.403381,525
848.521362,538
848.639221,520
848.75708,512
848.875,540
848.99292,529
849.110901,533
849.22876,507
849.34668,535
849.464539,516
849.582458,518
849.700317,524
849.818176,506
849.936096,562
850.053955,517
850.171875,542
850.289673,510
850.407593,535
850.525452,505
850.643311,495
850.761169,521
850.878967,539
850.996887,523
851.114746,519
851.232544,534
851.350403,524
851.468262,510
851.58606,528
851.703979,507
851.821777,516
851.939636,504
852.057434,521
852.175232,517
852.293091,546
852.410889,533
852.528687,551
852.646545,546
852.764343,564
852.88208,540
852.999939,553
853.117676,536
853.235535,555
853.353271,551
853.471069,525
853.588928,521
853.706604,535
853.824402,520
853.9422,526
854.059998,530
854.177734,537
854.295532,530
854.413269,537
854.531006,525
854.648804,554
854.766541,545
854.884277,532
855.002014,536
855.119751,518
855.237549,529
855.355225,534
855.473022,527
855.590698,529
855.708435,522
855.826172,533
855.943848,527
856.061646,537
856.179321,543
856.296997,525
856.414795,526
856.53241,547
856.650085,550
856.767822,538
856.885559,534
857.003174,527
857.120911,551
857.238586,554
857.356201,550
857.473938,522
857.591614,509
857.709351,529
857.826965,549
857.944641,543
858.062317,528
858.179993,533
858.297668,543
858.415283,526
858.532959,548
858.650574,543
858.768188,564
858.885803,529
859.003479,539
859.121094,541
859.23877,540
859.356384,537
859.473999,512
859.591675,509
859.709229,527
859.826843,527
859.944458,522
860.062012,532
860.179626,528
860.297302,536
860.414856,519
860.532471,523
860.650024,525
860.767639,511
860.885193,521
861.002808,519
861.120361,495
861.237976,513
861.35553,528
861.473022,534
861.590698,504
861.708191,508
861.825745,528
861.943298,528
862.060852,525
862.178406,532
862.295959,517
862.413513,500
862.531006,490
862.64856,501
862.766113,494
862.883667,507
863.00116,489
863.118713,519
863.236206,528
863.353699,509
863.471252,523
863.588745,507
863.706177,516
863.82373,527
863.941162,513
864.058716,503
864.176208,531
864.29364,517
864.411194,498
864.528687,489
864.646118,510
864.763611,490
864.881042,498
864.998535,495
865.116028,503
865.233459,511
865.350891,493
865.468384,503
865.585754,504
865.703308,515
865.820679,494
865.938171,510
866.055542,502
866.173035,490
866.290466,478
866.407837,496
866.52533,479
866.6427,507
866.760071,495
866.877563,500
866.994934,517
867.112305,500
867.229736,495
867.347107,500
867.464539,502
867.58197,521
867.699341,518
867.81665,520
867.934082,508
868.051453,528
868.168823,506
868.286194,494
868.403564,511
868.520935,493
868.638306,508
868.755676,494
868.872986,534
868.990295,537
869.107727,521
869.225037,528
869.342346,539
869.459717,536
869.577026,531
869.694336,551
869.811707,506
869.929016,547
870.046326,529
870.163635,517
870.280945,545
870.398254,523
870.515564,538
870.632812,529
870.750183,527
870.867432,561
870.984741,547
871.102051,536
871.219299,560
871.336609,560
871.453918,557
871.571106,557
871.688416,538
871.805664,556
871.922852,548
872.040222,565
872.157471,552
872.274719,568
872.391968,560
872.509155,542
872.626465,546
872.743652,541
872.860962,549
872.978149,554
873.095337,561
873.212646,540
873.329834,538
873.44696,520
873.564209,525
873.681396,555
873.798645,526
873.915894,544
874.03302,545
874.150208,560
874.267456,543
874.384583,552
874.501831,547
874.618958,576
874.736145,538
874.853333,531
874.970459,535
875.087646,544
875.204834,548
875.32196,529
875.439148,533
875.556274,533
875.673401,568
875.790527,535
875.907715,538
876.024841,557
876.141968,540
876.259094,536
876.376282,533
876.493347,518
876.610474,522
876.7276,536
876.844727,548
876.961853,525
877.078918,524
877.195984,537
877.313171,515
877.430237,514
877.547302,526
877.664368,508
877.781433,523
877.898499,535
878.015625,501
878.13269,519
878.249695,524
878.366821,543
878.483887,499
878.600952,522
878.717957,528
878.834961,515
878.952087,526
879.069092,517
879.186157,499
879.303162,495
879.420227,496
879.537231,511
879.654236,501
879.77124,484
879.888306,483
880.005249,496
880.122314,506
880.239319,485
880.356323,485
880.473328,483
880.590271,500
880.707275,505
880.824341,485
880.941284,480
881.058228,521
881.175232,484
881.292236,468
881.40918,503
881.526123,500
881.643066,486
881.760071,477
881.877014,489
881.993958,497
882.11084,495
882.227783,478
882.344727,495
882.46167,496
882.578613,482
882.695618,478
882.812439,487
882.929382,480
883.046326,516
883.163208,496
883.280151,495
883.397034,500
883.513916,498
883.630798,493
883.747742,495
883.864563,506
883.981506,521
884.098389,522
884.21521,499
884.332153,522
884.448975,517
884.565796,514
884.682678,530
884.7995,541
884.916443,551
885.033264,574
885.150085,592
885.266968,596
885.383789,610
885.500671,597
885.617493,617
885.734314,605
885.851196,610
885.967896,578
886.084717,602
886.201599,585
886.318359,618
886.435181,562
886.552002,594
886.668762,574
886.785645,577
886.902344,597
887.019165,573
887.135925,574
887.252747,550
887.369446,536
887.486267,557
887.603027,537
887.719788,568
887.836548,522
887.953247,526
888.070068,505
888.186829,530
888.303528,519
888.420288,490
888.536987,521
888.653687,500
888.770447,506
888.887146,508
889.003967,486
889.120667,501
889.237305,488
889.354065,494
889.470703,494
889.587463,485
889.704163,480
889.820862,489
889.937561,463
890.054199,472
890.170837,486
890.287598,477
890.404236,468
890.520874,479
890.637634,482
890.754211,469
890.87085,494
890.987549,493
891.104187,477
891.220886,464
891.337463,484
891.454102,464
891.57074,486
891.687378,491
891.804077,469
891.920654,469
892.037231,463
892.15387,479
892.270447,491
892.387085,495
892.503723,491
892.6203,479
892.736877,496
892.853516,475
892.970032,461
893.08667,482
893.203186,462
893.319763,476
893.43634,465
893.552917,486
893.669556,469
893.786011,463
893.902588,464
894.019165,486
894.135681,479
894.252197,483
894.368835,467
894.485291,509
894.601868,470
894.718384,477
894.8349,459
894.951355,472
895.067932,479
895.184448,481
895.300964,485
895.417419,480
895.533936,477
895.650452,470
895.766907,456
895.883423,448
895.999878,492
896.116333,483
896.232849,483
896.349304,456
896.465759,461
896.582214,482
896.698669,453
896.815125,480
896.931641,488
897.048035,479
897.164551,487
897.280884,482
897.397339,499
897.513794,485
897.630249,471
897.746582,483
897.863098,465
897.979431,478
898.095886,467
898.212341,481
898.328674,466
898.445129,472
898.561462,488
898.677795,493
898.794312,483
898.910645,469
899.026978,485
899.143433,494
899.259766,488
899.37616,480
899.492493,494
899.608765,467
899.725159,494
899.841553,490
899.957947,473
900.07428,481
900.190552,477
900.306946,482
900.423157,479
900.53949,484
900.655884,479
900.772156,497
900.888489,481
901.004822,469
901.121033,500
901.237366,480
901.353699,489
901.46991,501
901.586304,492
901.702515,488
901.818787,496
901.93512,502
902.051331,516
902.167603,525
902.283875,507
902.400085,542
902.516418,530
902.632629,563
902.74884,551
902.865112,558
902.981384,549
903.097595,532
903.213867,543
903.330017,537
903.446289,533
903.5625,543
903.67865,524
903.794922,513
903.911072,539
904.027344,518
904.143494,516
904.259705,537
904.375916,500
904.492065,495
904.608215,515
904.724426,513
904.840576,482
904.956726,502
905.072876,501
905.189087,503
905.305176,480
905.421387,504
905.537537,489
905.653687,511
905.769775,508
905.885925,484
906.002014,485
906.118164,467
906.234314,476
906.350403,492
906.466492,461
906.582642,476
906.69873,478
906.814758,459
906.930908,477
907.046936,454
907.163086,470
907.279175,473
907.395264,478
907.511353,487
907.62738,475
907.743408,474
907.859497,471
907.975525,473
908.091553,451
908.207703,478
908.32373,464
908.439758,492
908.555786,487
908.671814,478
908.787842,473
908.90387,480
909.019775,468
909.135864,485
909.251892,477
909.367859,467
909.483826,486
909.599854,492
909.715881,454
909.831848,490
909.947815,465
910.063782,477
910.179749,477
910.295776,466
910.411743,475
910.527649,471
910.643616,476
910.759583,480
910.875488,474
910.991455,476
911.107361,476
911.223267,487
911.339294,483
911.4552,465
911.571106,479
911.687073,499
911.802979,468
911.918823,451
912.034729,476
912.150635,463
912.266602,457
912.382446,460
912.498352,453
912.614197,458
912.730103,467
912.846008,482
