792.44574,1213
792.56488,1226
792.68396,1220
792.80304,1184
792.92218,1118
793.041199,1072
793.160339,1053
793.279419,1084
793.398499,1033
793.517578,983
793.636658,950
793.755737,977
793.874817,941
793.993896,934
794.112976,915
794.232056,935
794.351074,873
794.470215,877
794.589233,852
794.708313,847
794.827393,854
794.946411,863
795.065552,852
795.18457,807
795.303589,818
795.422668,815
795.541687,785
795.660767,811
795.779846,774
795.898865,734
796.017883,768
796.136963,767
796.255981,757
796.375061,778
796.49408,747
796.613037,741
796.732117,732
796.851135,725
796.970154,736
797.089233,712
797.208191,732
797.327271,702
797.446228,710
797.565186,700
797.684265,675
797.803223,707
797.922241,686
798.04126,686
798.160278,664
798.279297,667
798.398315,696
798.517273,684
798.636292,692
798.75531,658
798.874268,655
798.993286,661
799.112244,659
799.231323,649
799.350281,672
799.469238,654
799.588257,637
799.707153,677
799.826111,647
799.945129,658
800.064087,638
800.183044,622
800.302063,653
800.421021,658
800.539978,617
800.658936,631
800.777893,620
800.896912,642
801.015747,643
801.134705,646
801.253723,624
801.37262,662
801.491638,618
801.610535,634
801.729492,619
801.84845,630
801.967407,640
802.086243,620
802.205261,628
802.324158,625
802.443115,601
802.562073,619
802.680969,602
802.799927,634
802.918762,615
803.037659,620
803.156677,602
803.275574,608
803.39447,603
803.513428,601
803.632263,588
803.751221,598
803.870117,616
803.989014,612
804.107971,610
804.226746,585
804.345642,594
804.4646,619
804.583496,598
804.702393,599
804.821228,598
804.940125,583
805.059021,578
805.177917,604
805.296814,605
805.415649,601
805.534546,604
805.653442,600
805.772278,576
805.891113,598
806.01001,599
806.128906,590
806.247742,585
806.366577,595
806.485413,588
806.604309,594
806.723145,605
806.84198,577
806.960876,568
807.079712,583
807.198486,604
807.317383,571
807.436218,563
807.554993,576
807.673889,568
807.792725,596
807.91156,589
808.030396,577
808.14917,571
808.268005,561
808.386841,565
808.505676,611
808.624451,575
808.743286,561
808.862122,568
808.980896,551
809.099731,579
809.218506,578
809.337341,586
809.456116,566
809.57489,560
809.693726,589
809.8125,560
809.931274,582
810.050049,560
810.168884,575
810.287659,582
810.406372,570
810.525269,578
810.643982,576
810.762756,563
810.881531,595
811.000305,580
811.11908,565
811.237854,589
811.356567,569
811.475403,576
811.594116,597
811.71283,569
811.831604,584
811.950378,578
812.069153,600
812.187927,570
812.30658,590
812.425415,567
812.544128,595
812.662781,598
812.781616,580
812.900269,578
813.019043,601
813.137756,568
813.256531,566
813.375244,560
813.493896,563
813.612671,569
813.731384,572
813.850037,561
813.96875,591
814.087524,554
814.206238,581
814.324951,566
814.443604,569
814.562256,562
814.68103,580
814.799683,559
814.918335,585
815.037109,576
815.155762,575
815.274475,555
815.393188,584
815.511841,557
815.630554,557
815.749146,561
815.867859,580
815.986572,563
816.105164,551
816.223877,592
816.342529,568
816.461182,562
816.579895,548
816.698486,570
816.817139,568
816.935791,574
817.054504,586
817.173096,592
817.291748,573
817.4104,584
817.529053,564
817.647644,585
817.766235,566
817.884949,572
818.00354,547
818.122192,568
818.240845,562
818.359436,542
818.478088,545
818.59668,554
818.715271,554
818.833923,535
818.952515,528
819.071106,514
819.189758,535
819.30835,542
819.426941,520
819.545532,506
819.664124,536
819.782715,496
819.901306,522
820.019897,518
820.138489,551
820.25708,518
820.375671,528
820.494202,534
820.612732,540
820.731384,538
820.849915,520
820.968506,524
821.087097,518
821.205627,518
821.324158,537
821.442749,500
821.561279,515
821.679871,513
821.798401,504
821.916931,499
822.035461,523
822.154053,510
822.272583,506
822.391174,539
822.509583,540
822.628174,510
822.746704,511
822.865234,508
822.983765,527
823.102295,514
823.220825,514
823.339294,504
823.457825,514
823.576355,515
823.694824,525
823.813354,503
823.931885,496
824.050354,494
824.168884,502
824.287354,515
824.405823,503
824.524353,533
824.642822,515
824.761353,518
824.879822,523
824.998291,502
825.116699,508
825.235291,518
825.353699,497
825.472168,531
825.590637,503
825.709106,518
825.827576,525
825.946045,500
826.064453,508
826.182983,506
826.301392,507
826.4198,496
826.53833,506
826.656738,508
826.775208,514
826.893677,497
827.012024,525
827.130493,502
827.248962,498
827.36731,517
827.485779,509
827.604248,515
827.722595,507
827.841064,496
827.959412,491
828.077942,490
828.196289,496
828.314636,482
828.433105,489
828.551514,484
828.669861,497
828.78833,484
828.906677,502
829.025085,492
829.143433,500
829.261841,508
829.38031,487
829.498657,479
829.617004,516
829.735413,505
829.85376,509
829.972107,491
830.090515,496
830.208862,479
830.327209,499
830.445557,502
830.563904,499
830.682312,506
830.800659,519
830.919006,494
831.037354,522
831.155701,495
831.274048,512
831.392395,500
831.51062,511
831.629028,497
831.747314,518
831.865662,485
831.984009,526
832.102356,486
832.220642,504
832.338928,512
832.457275,508
832.575623,504
832.693909,503
832.812134,513
832.930481,509
833.048828,503
833.167114,484
833.2854,512
833.403687,505
833.521973,503
833.640259,499
833.758545,507
833.876831,500
833.995056,506
834.113281,514
834.231628,499
834.349915,514
834.468201,504
834.586426,526
834.704651,517
834.822998,504
834.941162,490
835.059448,510
835.177673,521
835.295959,496
835.414246,521
835.53241,534
835.650635,506
835.768921,512
835.887146,501
836.005371,496
836.123596,483
836.241821,477
836.360046,493
836.478271,505
836.596497,471
836.714722,496
836.832886,496
836.95105,483
837.069336,491
837.1875,495
837.305725,490
837.423889,506
837.542053,484
837.660339,493
837.778503,510
837.896667,494
838.014832,495
838.132996,496
838.25116,507
838.369385,484
838.487488,511
838.605713,493
838.723877,506
838.84198,517
838.960205,506
839.078308,504
839.196472,505
839.314636,514
839.4328,500
839.550964,510
839.669067,501
839.787231,518
839.905396,534
840.023499,528
840.141602,514
840.259766,528
840.377869,510
840.495972,523
840.614136,533
840.732239,545
840.850342,540
840.968445,514
841.086548,518
841.204651,540
841.322754,559
841.440918,553
841.55896,552
841.677002,563
841.795166,547
841.913208,559
842.031311,531
842.149353,526
842.267456,525
842.385498,547
842.503601,527
842.621643,538
842.739746,534
842.857788,535
842.97583,545
843.093933,537
843.211975,537
843.330017,555
843.44812,539
843.566101,545
843.684204,527
843.802246,532
843.920227,518
844.038269,516
844.156311,540
844.274292,541
844.392395,519
844.510376,527
844.628357,524
844.74646,526
844.864441,521
844.982422,534
845.100403,544
845.218384,534
845.336426,514
845.454468,504
845.572449,522
845.69043,531
845.808411,532
845.926453,534
846.044373,526
846.162354,519
846.280396,537
846.398315,523
846.516296,523
846.634216,530
846.752197,531
846.870178,549
846.988098,524
847.106079,544
847.22406,512
847.34198,544
847.4599,536
847.577881,533
847.695801,552
847.813782,534
847.931641,538
848.049561,526
848.167603,531
848.285461,522
848.403381,543
848.521362,547
848.639221,517
848.75708,546
848.875,532
848.99292,521
849.110901,535
849.22876,515
849.34668,528
849.464539,550
849.582458,543
849.700317,554
849.818176,518
849.936096,534
850.053955,547
850.171875,518
850.289673,529
850.407593,542
850.525452,540
850.643311,552
850.761169,548
850.878967,530
850.996887,528
851.114746,545
851.232544,530
851.350403,539
851.468262,523
851.58606,538
851.703979,525
851.821777,529
851.939636,537
852.057434,514
852.175232,539
852.293091,533
852.410889,520
852.528687,554
852.646545,576
852.764343,581
852.88208,555
852.999939,562
853.117676,524
853.235535,561
853.353271,545
853.471069,519
853.588928,559
853.706604,526
853.824402,513
853.9422,521
854.059998,526
854.177734,528
854.295532,530
854.413269,554
854.531006,533
854.648804,547
854.766541,529
854.884277,549
855.002014,530
855.119751,539
855.237549,543
855.355225,524
855.473022,539
855.590698,562
855.708435,537
855.826172,546
855.943848,529
856.061646,517
856.179321,548
856.296997,545
856.414795,538
856.53241,556
856.650085,539
856.767822,567
856.885559,551
857.003174,579
857.120911,553
857.238586,538
857.356201,550
857.473938,551
857.591614,544
857.709351,551
857.826965,526
857.944641,555
858.062317,547
858.179993,555
858.297668,522
858.415283,556
858.532959,561
858.650574,550
858.768188,545
858.885803,559
859.003479,531
859.121094,534
859.23877,531
859.356384,555
859.473999,540
859.591675,531
859.709229,535
859.826843,519
859.944458,542
860.062012,527
860.179626,513
860.297302,529
860.414856,526
860.532471,529
860.650024,522
860.767639,519
860.885193,543
861.002808,539
861.120361,510
861.237976,535
861.35553,527
861.473022,550
861.590698,522
861.708191,539
861.825745,531
861.943298,538
862.060852,508
862.178406,518
862.295959,518
862.413513,529
862.531006,498
862.64856,494
862.766113,497
862.883667,505
863.00116,502
863.118713,489
863.236206,498
863.353699,497
863.471252,508
863.588745,505
863.706177,530
863.82373,522
863.941162,536
864.058716,531
864.176208,508
864.29364,525
864.411194,526
864.528687,507
864.646118,521
864.763611,520
864.881042,506
864.998535,500
865.116028,499
865.233459,504
865.350891,497
865.468384,514
865.585754,514
865.703308,511
865.820679,501
865.938171,500
866.055542,518
866.173035,493
866.290466,496
866.407837,512
866.52533,509
866.6427,521
866.760071,500
866.877563,527
866.994934,529
867.112305,504
867.229736,533
867.347107,536
867.464539,517
867.58197,536
867.699341,520
867.81665,529
867.934082,521
868.051453,514
868.168823,523
868.286194,497
868.403564,506
868.520935,525
868.638306,519
868.755676,508
868.872986,527
868.990295,522
869.107727,509
869.225037,530
869.342346,526
869.459717,517
869.577026,544
869.694336,537
869.811707,552
869.929016,536
870.046326,506
870.163635,526
870.280945,547
870.398254,560
870.515564,550
870.632812,548
870.750183,544
870.867432,574
870.984741,550
871.102051,546
871.219299,540
871.336609,543
871.453918,553
871.571106,536
871.688416,549
871.805664,574
871.922852,543
872.040222,582
872.157471,562
872.274719,545
872.391968,564
872.509155,549
872.626465,570
872.743652,559
872.860962,556
872.978149,571
873.095337,530
873.212646,534
873.329834,540
873.44696,553
873.564209,549
873.681396,531
873.798645,529
873.915894,550
874.03302,547
874.150208,534
874.267456,543
874.384583,557
874.501831,552
874.618958,552
874.736145,547
874.853333,562
874.970459,561
875.087646,557
875.204834,554
875.32196,556
875.439148,539
875.556274,547
875.673401,551
875.790527,542
875.907715,572
876.024841,538
876.141968,529
876.259094,541
876.376282,549
876.493347,532
876.610474,538
876.7276,529
876.844727,537
876.961853,534
877.078918,550
877.195984,521
877.313171,552
877.430237,519
877.547302,543
877.664368,536
877.781433,535
877.898499,540
878.015625,511
878.13269,531
878.249695,528
878.366821,543
878.483887,508
878.600952,514
878.717957,516
878.834961,522
878.952087,530
879.069092,507
879.186157,499
879.303162,494
879.420227,492
879.537231,495
879.654236,513
879.77124,509
879.888306,521
880.005249,496
880.122314,498
880.239319,508
880.356323,478
880.473328,520
880.590271,493
880.707275,505
880.824341,509
880.941284,500
881.058228,505
881.175232,515
881.292236,488
881.40918,510
881.526123,500
881.643066,491
881.760071,504
881.877014,489
881.993958,494
882.11084,503
882.227783,490
882.344727,523
882.46167,474
882.578613,490
882.695618,485
882.812439,516
882.929382,499
883.046326,486
883.163208,508
883.280151,483
883.397034,516
883.513916,500
883.630798,493
883.747742,520
883.864563,503
883.981506,497
884.098389,485
884.21521,528
884.332153,518
884.448975,514
884.565796,536
884.682678,534
884.7995,545
884.916443,566
885.033264,566
885.150085,613
885.266968,582
885.383789,615
885.500671,623
885.617493,613
885.734314,608
885.851196,600
885.967896,611
886.084717,628
886.201599,597
886.318359,604
886.435181,587
886.552002,586
886.668762,607
886.785645,588
886.902344,578
887.019165,595
887.135925,564
887.252747,561
887.369446,554
887.486267,578
887.603027,547
887.719788,547
887.836548,540
887.953247,542
888.070068,547
888.186829,527
888.303528,532
888.420288,529
888.536987,532
888.653687,489
888.770447,499
888.887146,500
889.003967,496
889.120667,486
889.237305,496
889.354065,494
889.470703,463
889.587463,471
889.704163,496
889.820862,493
889.937561,450
890.054199,470
890.170837,467
890.287598,486
890.404236,480
890.520874,486
890.637634,479
890.754211,481
890.87085,477
890.987549,475
891.104187,497
891.220886,482
891.337463,502
891.454102,486
891.57074,490
891.687378,490
891.804077,496
891.920654,514
892.037231,471
892.15387,501
892.270447,474
892.387085,483
892.503723,493
892.6203,494
892.736877,482
892.853516,475
892.970032,472
893.08667,485
893.203186,489
893.319763,495
893.43634,476
893.552917,483
893.669556,493
893.786011,514
893.902588,461
894.019165,482
894.135681,498
894.252197,491
894.368835,487
894.485291,490
894.601868,476
894.718384,479
894.8349,484
894.951355,491
895.067932,475
895.184448,477
895.300964,458
895.417419,461
895.533936,476
895.650452,466
895.766907,486
895.883423,499
895.999878,486
896.116333,469
896.232849,495
896.349304,492
896.465759,459
896.582214,450
896.698669,482
896.815125,479
896.931641,471
897.048035,468
897.164551,491
897.280884,470
897.397339,463
897.513794,476
897.630249,502
897.746582,499
897.863098,500
897.979431,459
898.095886,484
898.212341,480
898.328674,491
898.445129,464
898.561462,499
898.677795,495
898.794312,494
898.910645,488
899.026978,469
899.143433,508
899.259766,477
899.37616,491
899.492493,494
899.608765,500
899.725159,502
899.841553,484
899.957947,498
900.07428,467
900.190552,482
900.306946,492
900.423157,473
900.53949,489
900.655884,489
900.772156,463
900.888489,478
901.004822,484
901.121033,480
901.237366,500
901.353699,512
901.46991,494
901.586304,501
901.702515,494
901.818787,515
901.93512,496
902.051331,535
902.167603,513
902.283875,532
902.400085,542
902.516418,517
902.632629,534
902.74884,538
902.865112,561
902.981384,546
903.097595,524
903.213867,561
903.330017,533
903.446289,533
903.5625,526
903.67865,506
903.794922,550
903.911072,529
904.027344,533
904.143494,524
904.259705,518
904.375916,506
904.492065,499
904.608215,500
904.724426,514
904.840576,471
904.956726,484
905.072876,497
905.189087,490
905.305176,479
905.421387,466
905.537537,482
905.653687,483
905.769775,491
905.885925,485
906.002014,490
906.118164,482
906.234314,481
906.350403,466
906.466492,483
906.582642,478
906.69873,469
906.814758,487
906.930908,474
907.046936,468
907.163086,470
907.279175,490
907.395264,492
907.511353,461
907.62738,469
907.743408,461
907.859497,453
907.975525,478
908.091553,474
908.207703,464
908.32373,476
908.439758,481
908.555786,481
908.671814,474
908.787842,453
908.90387,475
909.019775,468
909.135864,486
909.251892,458
909.367859,466
909.483826,467
909.599854,475
909.715881,472
909.831848,465
909.947815,500
910.063782,464
910.179749,489
910.295776,468
910.411743,481
910.527649,468
910.643616,474
910.759583,484
910.875488,479
910.991455,468
911.107361,473
911.223267,460
911.339294,493
911.4552,475
911.571106,471
911.687073,485
911.802979,467
911.918823,481
912.034729,469
912.150635,470
912.266602,484
912.382446,466
912.498352,450
912.614197,473
912.730103,457
912.846008,468
792.44574,1207
792.56488,1204
792.68396,1216
792.80304,1188
792.92218,1151
793.041199,1058
793.160339,1087
793.279419,1038
793.398499,1044
793.517578,1001
793.636658,974
793.755737,942
793.874817,969
793.993896,926
794.112976,892
794.232056,880
794.351074,897
794.470215,857
794.589233,860
794.708313,849
794.827393,842
794.946411,847
795.065552,853
795.18457,824
795.303589,872
795.422668,833
795.541687,809
795.660767,808
795.779846,796
795.898865,758
796.017883,754
796.136963,769
796.255981,733
796.375061,781
796.49408,722
796.613037,742
796.732117,733
796.851135,727
796.970154,734
797.089233,697
797.208191,702
797.327271,706
797.446228,692
797.565186,694
797.684265,705
797.803223,674
797.922241,698
798.04126,707
798.160278,680
798.279297,712
798.398315,682
798.517273,657
798.636292,657
798.75531,662
798.874268,670
798.993286,638
799.112244,691
799.231323,653
799.350281,668
799.469238,673
799.588257,659
799.707153,672
799.826111,626
799.945129,662
800.064087,629
800.183044,644
800.302063,659
800.421021,643
800.539978,633
800.658936,659
800.777893,654
800.896912,605
801.015747,647
801.134705,620
801.253723,627
801.37262,618
801.491638,592
801.610535,612
801.729492,632
801.84845,610
801.967407,622
802.086243,606
802.205261,598
802.324158,635
802.443115,633
802.562073,624
802.680969,613
802.799927,626
802.918762,622
803.037659,626
803.156677,604
803.275574,622
803.39447,597
803.513428,616
803.632263,610
803.751221,608
803.870117,613
803.989014,613
804.107971,597
804.226746,609
804.345642,616
804.4646,596
804.583496,592
804.702393,616
804.821228,598
804.940125,603
805.059021,564
805.177917,572
805.296814,622
805.415649,594
805.534546,596
805.653442,605
805.772278,587
805.891113,589
806.01001,601
806.128906,591
806.247742,586
806.366577,594
806.485413,603
806.604309,582
806.723145,566
806.84198,571
806.960876,590
807.079712,588
807.198486,588
807.317383,564
807.436218,585
807.554993,589
807.673889,561
807.792725,584
807.91156,584
808.030396,600
808.14917,578
808.268005,589
808.386841,566
808.505676,587
808.624451,569
808.743286,567
808.862122,564
808.980896,591
809.099731,560
809.218506,567
809.337341,562
809.456116,590
809.57489,574
809.693726,554
809.8125,563
809.931274,571
810.050049,593
810.168884,563
810.287659,594
810.406372,576
810.525269,581
810.643982,567
810.762756,600
810.881531,588
811.000305,596
811.11908,572
811.237854,588
811.356567,570
811.475403,580
811.594116,564
811.71283,560
811.831604,607
811.950378,597
812.069153,582
812.187927,590
812.30658,581
812.425415,575
812.544128,592
812.662781,609
812.781616,569
812.900269,578
813.019043,588
813.137756,597
813.256531,581
813.375244,571
813.493896,577
813.612671,562
813.731384,560
813.850037,570
813.96875,561
814.087524,581
814.206238,568
814.324951,571
814.443604,579
814.562256,567
814.68103,579
814.799683,557
814.918335,564
815.037109,558
815.155762,536
815.274475,567
815.393188,548
815.511841,594
815.630554,564
815.749146,580
815.867859,561
815.986572,565
816.105164,591
816.223877,561
816.342529,567
816.461182,576
816.579895,553
816.698486,565
816.817139,557
816.935791,565
817.054504,573
817.173096,565
817.291748,566
817.4104,575
817.529053,534
817.647644,583
817.766235,537
817.884949,557
818.00354,553
818.122192,549
818.240845,542
818.359436,542
818.478088,552
818.59668,533
818.715271,540
818.833923,571
818.952515,548
819.071106,530
819.189758,543
819.30835,553
819.426941,531
819.545532,545
819.664124,527
819.782715,523
819.901306,516
820.019897,530
820.138489,510
820.25708,524
820.375671,545
820.494202,530
820.612732,501
820.731384,541
820.849915,509
820.968506,535
821.087097,510
821.205627,527
821.324158,523
821.442749,511
821.561279,506
821.679871,497
821.798401,536
821.916931,544
822.035461,531
822.154053,523
822.272583,524
822.391174,508
822.509583,527
822.628174,522
822.746704,507
822.865234,505
822.983765,488
823.102295,479
823.220825,503
823.339294,510
823.457825,519
823.576355,507
823.694824,523
823.813354,506
823.931885,501
824.050354,515
824.168884,520
824.287354,517
824.405823,508
824.524353,515
824.642822,507
824.761353,515
824.879822,490
824.998291,519
825.116699,518
825.235291,509
825.353699,513
825.472168,520
825.590637,491
825.709106,503
825.827576,506
825.946045,503
826.064453,517
826.182983,516
826.301392,522
826.4198,494
826.53833,497
826.656738,509
826.775208,501
826.893677,485
827.012024,500
827.130493,492
827.248962,526
827.36731,518
827.485779,524
827.604248,501
827.722595,489
827.841064,496
827.959412,478
828.077942,490
828.196289,497
828.314636,506
828.433105,520
828.551514,505
828.669861,513
828.78833,507
828.906677,502
829.025085,513
829.143433,482
829.261841,495
829.38031,480
829.498657,488
829.617004,483
829.735413,516
829.85376,492
829.972107,487
830.090515,484
830.208862,505
830.327209,498
830.445557,499
830.563904,510
830.682312,494
830.800659,490
830.919006,500
831.037354,509
831.155701,502
831.274048,503
831.392395,493
831.51062,527
831.629028,495
831.747314,500
831.865662,489
831.984009,486
832.102356,506
832.220642,508
832.338928,510
832.457275,525
832.575623,501
832.693909,513
832.812134,502
832.930481,497
833.048828,515
833.167114,503
833.2854,494
833.403687,505
833.521973,525
833.640259,510
833.758545,511
833.876831,496
833.995056,491
834.113281,523
834.231628,521
834.349915,498
834.468201,509
834.586426,506
834.704651,524
834.822998,496
834.941162,516
835.059448,490
835.177673,519
835.295959,494
835.414246,535
835.53241,505
835.650635,504
835.768921,504
835.887146,507
836.005371,491
836.123596,482
836.241821,506
836.360046,507
836.478271,496
836.596497,510
836.714722,513
836.832886,500
836.95105,486
837.069336,493
837.1875,494
837.305725,497
837.423889,485
837.542053,505
837.660339,493
837.778503,501
837.896667,492
838.014832,491
838.132996,521
838.25116,537
838.369385,506
838.487488,491
838.605713,507
838.723877,521
838.84198,527
838.960205,493
839.078308,486
839.196472,520
839.314636,513
839.4328,523
839.550964,525
839.669067,527
839.787231,515
839.905396,511
840.023499,523
840.141602,535
840.259766,540
840.377869,512
840.495972,535
840.614136,544
840.732239,512
840.850342,515
840.968445,530
841.086548,523
841.204651,556
841.322754,550
841.440918,525
841.55896,552
841.677002,529
841.795166,570
841.913208,541
842.031311,563
842.149353,527
842.267456,512
842.385498,537
842.503601,563
842.621643,536
842.739746,551
842.857788,533
842.97583,521
843.093933,522
843.211975,534
843.330017,548
843.44812,566
843.566101,531
843.684204,534
843.802246,535
843.920227,557
844.038269,507
844.156311,551
844.274292,533
844.392395,578
844.510376,539
844.628357,530
844.74646,511
844.864441,537
844.982422,566
845.100403,528
845.218384,529
845.336426,522
845.454468,517
845.572449,534
845.69043,516
845.808411,538
845.926453,528
846.044373,521
846.162354,520
846.280396,516
846.398315,526
846.516296,532
846.634216,513
846.752197,524
846.870178,543
846.988098,518
847.106079,560
847.22406,519
847.34198,531
847.4599,519
847.577881,529
847.695801,528
847.813782,545
847.931641,542
848.049561,539
848.167603,536
848.285461,527
848.403381,521
848.521362,540
848.639221,544
848.75708,519
848.875,537
848.99292,526
849.110901,517
849.22876,532
849.34668,552
849.464539,518
849.582458,531
849.700317,517
849.818176,534
849.936096,556
850.053955,517
850.171875,529
850.289673,544
850.407593,537
850.525452,540
850.643311,541
850.761169,537
850.878967,508
850.996887,534
851.114746,533
851.232544,530
851.350403,529
851.468262,539
851.58606,498
851.703979,545
851.821777,534
851.939636,537
852.057434,527
852.175232,527
852.293091,532
852.410889,559
852.528687,565
852.646545,571
852.764343,564
852.88208,560
852.999939,574
853.117676,574
853.235535,542
853.353271,522
853.471069,540
853.588928,547
853.706604,521
853.824402,526
853.9422,539
854.059998,543
854.177734,536
854.295532,520
854.413269,543
854.531006,542
854.648804,525
854.766541,543
854.884277,517
855.002014,543
855.119751,523
855.237549,533
855.355225,547
855.473022,543
855.590698,551
855.708435,541
855.826172,542
855.943848,554
856.061646,547
856.179321,550
856.296997,541
856.414795,542
856.53241,532
856.650085,547
856.767822,529
856.885559,554
857.003174,546
857.120911,559
857.238586,560
857.356201,547
857.473938,556
857.591614,543
857.709351,544
857.826965,556
857.944641,544
858.062317,563
858.179993,546
858.297668,570
858.415283,548
858.532959,563
858.650574,546
858.768188,532
858.885803,569
859.003479,543
859.121094,543
859.23877,535
859.356384,534
859.473999,542
859.591675,538
859.709229,541
859.826843,561
859.944458,522
860.062012,519
860.179626,552
860.297302,531
860.414856,527
860.532471,501
860.650024,529
860.767639,501
860.885193,538
861.002808,538
861.120361,548
861.237976,525
861.35553,515
861.473022,511
861.590698,532
861.708191,542
861.825745,525
861.943298,518
862.060852,527
862.178406,522
862.295959,528
862.413513,516
862.531006,493
862.64856,512
862.766113,484
862.883667,491
863.00116,521
863.118713,510
863.236206,512
863.353699,510
863.471252,508
863.588745,519
863.706177,530
863.82373,515
863.941162,530
864.058716,514
864.176208,523
864.29364,502
864.411194,504
864.528687,522
864.646118,514
864.763611,518
864.881042,502
864.998535,494
865.116028,526
865.233459,502
865.350891,500
865.468384,519
865.585754,514
865.703308,516
865.820679,499
865.938171,498
866.055542,501
866.173035,505
866.290466,499
866.407837,496
866.52533,516
866.6427,508
866.760071,509
866.877563,505
866.994934,520
867.112305,519
867.229736,511
867.347107,517
867.464539,533
867.58197,536
867.699341,513
867.81665,514
867.934082,509
868.051453,515
868.168823,522
868.286194,513
868.403564,499
868.520935,524
868.638306,512
868.755676,521
868.872986,517
868.990295,509
869.107727,517
869.225037,536
869.342346,518
869.459717,556
869.577026,522
869.694336,535
869.811707,528
869.929016,517
870.046326,569
870.163635,534
870.280945,522
870.398254,546
870.515564,551
870.632812,548
870.750183,549
870.867432,533
870.984741,567
871.102051,556
871.219299,564
871.336609,553
871.453918,548
871.571106,556
871.688416,564
871.805664,563
871.922852,560
872.040222,541
872.157471,551
872.274719,579
872.391968,555
872.509155,587
872.626465,540
872.743652,551
872.860962,565
872.978149,546
873.095337,557
873.212646,550
873.329834,547
873.44696,537
873.564209,556
873.681396,567
873.798645,555
873.915894,532
874.03302,547
874.150208,551
874.267456,562
874.384583,529
874.501831,549
874.618958,577
874.736145,574
874.853333,552
874.970459,576
875.087646,553
875.204834,547
875.32196,550
875.439148,565
875.556274,550
875.673401,543
875.790527,524
875.907715,539
876.024841,547
876.141968,550
876.259094,537
876.376282,524
876.493347,512
876.610474,539
876.7276,516
876.844727,541
876.961853,539
877.078918,542
877.195984,524
877.313171,526
877.430237,519
877.547302,526
877.664368,565
877.781433,521
877.898499,525
878.015625,511
878.13269,522
878.249695,548
878.366821,516
878.483887,532
878.600952,524
878.717957,514
878.834961,513
878.952087,511
879.069092,509
879.186157,498
879.303162,497
879.420227,517
879.537231,511
879.654236,507
879.77124,500
879.888306,503
880.005249,511
880.122314,507
880.239319,513
880.356323,512
880.473328,514
880.590271,488
880.707275,504
880.824341,518
880.941284,482
881.058228,506
881.175232,499
881.292236,501
881.40918,502
881.526123,499
881.643066,481
881.760071,498
881.877014,480
881.993958,511
882.11084,502
882.227783,510
882.344727,484
882.46167,513
882.578613,488
882.695618,490
882.812439,495
882.929382,500
883.046326,500
883.163208,505
883.280151,512
883.397034,487
883.513916,499
883.630798,492
883.747742,503
883.864563,503
883.981506,503
884.098389,535
884.21521,520
884.332153,533
884.448975,530
884.565796,517
884.682678,549
884.7995,551
884.916443,553
885.033264,560
885.150085,579
885.266968,589
885.383789,630
885.500671,589
885.617493,607
885.734314,615
885.851196,628
885.967896,615
886.084717,600
886.201599,590
886.318359,584
886.435181,608
886.552002,601
886.668762,592
886.785645,588
886.902344,598
887.019165,568
887.135925,585
887.252747,577
887.369446,576
887.486267,567
887.603027,575
887.719788,539
887.836548,551
887.953247,521
888.070068,524
888.186829,523
888.303528,509
888.420288,505
888.536987,480
888.653687,470
888.770447,520
888.887146,459
889.003967,495
889.120667,499
889.237305,490
889.354065,494
889.470703,470
889.587463,481
889.704163,480
889.820862,496
889.937561,476
890.054199,466
890.170837,468
890.287598,474
890.404236,495
890.520874,471
890.637634,471
890.754211,487
890.87085,481
890.987549,478
891.104187,500
891.220886,484
891.337463,486
891.454102,488
891.57074,469
891.687378,471
891.804077,488
891.920654,486
892.037231,486
892.15387,494
892.270447,493
892.387085,473
892.503723,495
892.6203,478
892.736877,488
892.853516,479
892.970032,485
893.08667,458
893.203186,475
893.319763,458
893.43634,468
893.552917,478
893.669556,493
893.786011,482
893.902588,478
894.019165,461
894.135681,496
894.252197,492
894.368835,473
894.485291,478
894.601868,482
894.718384,467
894.8349,504
894.951355,479
895.067932,475
895.184448,459
895.300964,490
895.417419,490
895.533936,489
895.650452,485
895.766907,471
895.883423,474
895.999878,486
896.116333,485
896.232849,482
896.349304,477
896.465759,476
896.582214,481
896.698669,494
896.815125,456
896.931641,493
897.048035,473
897.164551,507
897.280884,460
897.397339,491
897.513794,469
897.630249,501
897.746582,482
897.863098,481
897.979431,496
898.095886,481
898.212341,472
898.328674,494
898.445129,483
898.561462,490
898.677795,490
898.794312,483
898.910645,481
899.026978,489
899.143433,478
899.259766,494
899.37616,484
899.492493,480
899.608765,496
899.725159,488
899.841553,481
899.957947,482
900.07428,472
900.190552,509
900.306946,462
900.423157,480
900.53949,503
900.655884,489
900.772156,486
900.888489,499
901.004822,487
901.121033,491
901.237366,494
901.353699,488
901.46991,498
901.586304,515
901.702515,492
901.818787,537
901.93512,496
902.051331,523
902.167603,520
902.283875,539
902.400085,533
902.516418,539
902.632629,516
902.74884,523
902.865112,566
902.981384,555
903.097595,537
903.213867,553
903.330017,545
903.446289,540
903.5625,536
903.67865,534
903.794922,524
903.911072,522
904.027344,514
904.143494,504
904.259705,518
904.375916,503
904.492065,534
904.608215,516
904.724426,532
904.840576,504
904.956726,473
905.072876,497
905.189087,481
905.305176,482
905.421387,483
905.537537,497
905.653687,493
905.769775,490
905.885925,498
906.002014,491
906.118164,467
906.234314,490
906.350403,468
906.466492,463
906.582642,476
906.69873,455
906.814758,462
906.930908,473
907.046936,467
907.163086,481
907.279175,463
907.395264,473
907.511353,472
907.62738,466
907.743408,478
907.859497,483
907.975525,470
908.091553,456
908.207703,475
908.32373,484
908.439758,485
908.555786,468
908.671814,491
908.787842,477
908.90387,464
909.019775,472
909.135864,475
909.251892,476
909.367859,480
909.483826,496
909.599854,488
909.715881,500
909.831848,469
909.947815,495
910.063782,479
910.179749,481
910.295776,484
910.411743,480
910.527649,456
910.643616,476
910.759583,478
910.875488,476
910.991455,472
911.107361,493
911.223267,475
911.339294,482
911.4552,504
911.571106,477
911.687073,465
911.802979,482
911.918823,481
912.034729,485
912.150635,460
912.266602,486
912.382446,467
912.498352,466
912.614197,472
912.730103,465
912.846008,444
792.44574,1168
792.56488,1223
792.68396,1220
792.80304,1170
792.92218,1075
793.041199,1059
793.160339,1074
793.279419,1010
793.398499,1037
793.517578,1018
793.636658,975
793.755737,974
793.874817,969
793.993896,963
794.112976,939
794.232056,877
794.351074,889
794.470215,855
794.589233,902
794.708313,843
794.827393,860
794.946411,839
795.065552,815
795.18457,831
795.303589,817
795.422668,804
795.541687,835
795.660767,808
795.779846,790
795.898865,763
796.017883,757
796.136963,760
796.255981,752
796.375061,747
796.49408,735
796.613037,759
796.732117,714
796.851135,730
796.970154,722
797.089233,737
797.208191,725
797.327271,712
797.446228,713
797.565186,712
797.684265,731
797.803223,697
797.922241,691
798.04126,677
798.160278,679
798.279297,659
798.398315,671
798.517273,667
798.636292,661
798.75531,695
798.874268,687
798.993286,680
799.112244,695
799.231323,667
799.350281,653
799.469238,670
799.588257,650
799.707153,662
799.826111,651
799.945129,653
800.064087,669
800.183044,639
800.302063,635
800.421021,639
800.539978,642
800.658936,636
800.777893,646
800.896912,626
801.015747,625
801.134705,640
801.253723,626
801.37262,638
801.491638,625
801.610535,603
801.729492,622
801.84845,605
801.967407,630
802.086243,602
802.205261,623
802.324158,623
802.443115,611
802.562073,628
802.680969,623
802.799927,625
802.918762,619
803.037659,604
803.156677,615
803.275574,599
803.39447,596
803.513428,595
803.632263,594
803.751221,624
803.870117,619
803.989014,601
804.107971,611
804.226746,581
804.345642,605
804.4646,614
804.583496,602
804.702393,586
804.821228,588
804.940125,590
805.059021,582
805.177917,596
805.296814,582
805.415649,606
805.534546,614
805.653442,592
805.772278,582
805.891113,600
806.01001,594
806.128906,606
806.247742,579
806.366577,593
806.485413,568
806.604309,582
806.723145,594
806.84198,585
806.960876,613
807.079712,611
807.198486,573
807.317383,572
807.436218,570
807.554993,588
807.673889,573
807.792725,564
807.91156,562
808.030396,578
808.14917,570
808.268005,571
808.386841,580
808.505676,565
808.624451,566
808.743286,573
808.862122,570
808.980896,565
809.099731,580
809.218506,577
809.337341,585
809.456116,551
809.57489,581
809.693726,610
809.8125,567
809.931274,580
810.050049,586
810.168884,574
810.287659,585
810.406372,566
810.525269,563
810.643982,576
810.762756,555
810.881531,588
811.000305,601
811.11908,580
811.237854,571
811.356567,603
811.475403,571
811.594116,572
811.71283,591
811.831604,595
811.950378,571
812.069153,573
812.187927,577
812.30658,591
812.425415,598
812.544128,597
812.662781,586
812.781616,579
812.900269,594
813.019043,583
813.137756,579
813.256531,593
813.375244,591
813.493896,550
813.612671,571
813.731384,574
813.850037,588
813.96875,570
814.087524,591
814.206238,560
814.324951,581
814.443604,561
814.562256,570
814.68103,559
814.799683,571
814.918335,563
815.037109,557
815.155762,583
815.274475,570
815.393188,564
815.511841,547
815.630554,544
815.749146,543
815.867859,556
815.986572,570
816.105164,553
816.223877,583
816.342529,552
816.461182,560
816.579895,553
816.698486,559
816.817139,564
816.935791,573
817.054504,586
817.173096,572
817.291748,577
817.4104,564
817.529053,555
817.647644,552
817.766235,545
817.884949,576
818.00354,543
818.122192,555
818.240845,540
818.359436,540
818.478088,545
818.59668,551
818.715271,528
818.833923,562
818.952515,512
819.071106,538
819.189758,530
819.30835,517
819.426941,527
819.545532,529
819.664124,512
819.782715,541
819.901306,527
820.019897,514
820.138489,525
820.25708,529
820.375671,544
820.494202,520
820.612732,516
820.731384,531
820.849915,508
820.968506,534
821.087097,538
821.205627,515
821.324158,513
821.442749,532
821.561279,495
821.679871,511
821.798401,522
821.916931,529
822.035461,508
822.154053,527
822.272583,507
822.391174,513
822.509583,508
822.628174,497
822.746704,504
822.865234,503
822.983765,512
823.102295,508
823.220825,488
823.339294,508
823.457825,510
823.576355,514
823.694824,495
823.813354,494
823.931885,499
824.050354,509
824.168884,477
824.287354,499
824.405823,502
824.524353,522
824.642822,546
824.761353,512
824.879822,505
824.998291,498
825.116699,495
825.235291,521
825.353699,516
825.472168,493
825.590637,519
825.709106,505
825.827576,500
825.946045,491
826.064453,488
826.182983,520
826.301392,504
826.4198,505
826.53833,507
826.656738,489
826.775208,514
826.893677,507
827.012024,508
827.130493,515
827.248962,485
827.36731,490
827.485779,492
827.604248,511
827.722595,515
827.841064,497
827.959412,487
828.077942,514
828.196289,491
828.314636,484
828.433105,492
828.551514,478
828.669861,502
828.78833,498
828.906677,496
829.025085,507
829.143433,491
829.261841,499
829.38031,502
829.498657,511
829.617004,501
829.735413,489
829.85376,484
829.972107,494
830.090515,495
830.208862,495
830.327209,503
830.445557,501
830.563904,507
830.682312,501
830.800659,488
830.919006,497
831.037354,502
831.155701,526
831.274048,502
831.392395,485
831.51062,497
831.629028,518
831.747314,490
831.865662,501
831.984009,488
832.102356,502
832.220642,507
832.338928,489
832.457275,505
832.575623,513
832.693909,499
832.812134,504
832.930481,515
833.048828,519
833.167114,508
833.2854,501
833.403687,501
833.521973,500
833.640259,485
833.758545,510
833.876831,505
833.995056,526
834.113281,504
834.231628,503
834.349915,500
834.468201,509
834.586426,502
834.704651,502
834.822998,512
834.941162,504
835.059448,508
835.177673,524
835.295959,530
835.414246,528
835.53241,506
835.650635,512
835.768921,502
835.887146,515
836.005371,496
836.123596,494
836.241821,516
836.360046,499
836.478271,500
836.596497,501
836.714722,497
836.832886,502
836.95105,516
837.069336,487
837.1875,477
837.305725,505
837.423889,476
837.542053,508
837.660339,499
837.778503,471
837.896667,493
838.014832,498
838.132996,508
838.25116,502
838.369385,503
838.487488,507
838.605713,502
838.723877,505
838.84198,515
838.960205,511
839.078308,530
839.196472,492
839.314636,523
839.4328,530
839.550964,499
839.669067,512
839.787231,524
839.905396,533
840.023499,522
840.141602,529
840.259766,532
840.377869,526
840.495972,548
840.614136,544
840.732239,540
840.850342,538
840.968445,527
841.086548,544
841.204651,521
841.322754,560
841.440918,542
841.55896,535
841.677002,558
841.795166,573
841.913208,555
842.031311,558
842.149353,538
842.267456,545
842.385498,551
842.503601,567
842.621643,531
842.739746,559
842.857788,561
842.97583,532
843.093933,501
843.211975,554
843.330017,543
843.44812,521
843.566101,520
843.684204,525
843.802246,530
843.920227,536
844.038269,536
844.156311,543
844.274292,538
844.392395,549
844.510376,528
844.628357,529
844.74646,520
844.864441,510
844.982422,525
845.100403,535
845.218384,526
845.336426,513
845.454468,528
845.572449,515
845.69043,517
845.808411,511
845.926453,516
846.044373,525
846.162354,529
846.280396,568
846.398315,512
846.516296,539
846.634216,517
846.752197,547
846.870178,536
846.988098,537
847.106079,541
847.22406,534
847.34198,540
847.4599,531
847.577881,533
847.695801,539
847.813782,537
847.931641,558
848.049561,532
848.167603,539
848.285461,530
848.403381,536
848.521362,534
848.639221,528
848.75708,514
848.875,513
848.99292,533
849.110901,552
849.22876,527
849.34668,540
849.464539,534
849.582458,539
849.700317,516
849.818176,542
849.936096,536
850.053955,519
850.171875,539
850.289673,558
850.407593,513
850.525452,533
850.643311,525
850.761169,529
850.878967,546
850.996887,531
851.114746,515
851.232544,530
851.350403,515
851.468262,516
851.58606,518
851.703979,534
851.821777,521
851.939636,523
852.057434,510
852.175232,524
852.293091,546
852.410889,546
852.528687,572
852.646545,567
852.764343,568
852.88208,586
852.999939,551
853.117676,565
853.235535,545
853.353271,535
853.471069,530
853.588928,548
853.706604,526
853.824402,538
853.9422,535
854.059998,539
854.177734,521
854.295532,527
854.413269,549
854.531006,525
854.648804,540
854.766541,545
854.884277,555
855.002014,545
855.119751,543
855.237549,542
855.355225,514
855.473022,528
855.590698,520
855.708435,534
855.826172,522
855.943848,542
856.061646,545
856.179321,541
856.296997,534
856.414795,540
856.53241,540
856.650085,530
856.767822,557
856.885559,555
857.003174,539
857.120911,573
857.238586,519
857.356201,555
857.473938,548
857.591614,545
857.709351,605
857.826965,576
857.944641,540
858.062317,532
858.179993,561
858.297668,548
858.415283,533
858.532959,552
858.650574,543
858.768188,539
858.885803,536
859.003479,536
859.121094,543
859.23877,540
859.356384,555
859.473999,538
859.591675,529
859.709229,536
859.826843,527
859.944458,558
860.062012,517
860.179626,517
860.297302,542
860.414856,513
860.532471,519
860.650024,544
860.767639,526
860.885193,530
861.002808,535
861.120361,517
861.237976,519
861.35553,538
861.473022,520
861.590698,541
861.708191,532
861.825745,520
861.943298,498
862.060852,499
862.178406,514
862.295959,511
862.413513,510
862.531006,479
862.64856,493
862.766113,521
862.883667,515
863.00116,512
863.118713,490
863.236206,530
863.353699,508
863.471252,523
863.588745,492
863.706177,521
863.82373,549
863.941162,506
864.058716,546
864.176208,516
864.29364,504
864.411194,508
864.528687,509
864.646118,497
864.763611,498
864.881042,506
864.998535,521
865.116028,509
865.233459,503
865.350891,525
865.468384,506
865.585754,502
865.703308,500
865.820679,505
865.938171,514
866.055542,512
866.173035,484
866.290466,504
866.407837,496
866.52533,501
866.6427,492
866.760071,520
866.877563,495
866.994934,535
867.112305,519
867.229736,502
867.347107,502
867.464539,527
867.58197,510
867.699341,539
867.81665,499
867.934082,548
868.051453,497
868.168823,540
868.286194,511
868.403564,525
868.520935,519
868.638306,525
868.755676,530
868.872986,517
868.990295,527
869.107727,522
869.225037,530
869.342346,553
869.459717,510
869.577026,551
869.694336,518
869.811707,536
869.929016,543
870.046326,524
870.163635,538
870.280945,541
870.398254,545
870.515564,555
870.632812,532
870.750183,555
870.867432,543
870.984741,548
871.102051,548
871.219299,562
871.336609,564
871.453918,554
871.571106,546
871.688416,558
871.805664,563
871.922852,570
872.040222,547
872.157471,571
872.274719,570
872.391968,552
872.509155,552
872.626465,561
872.743652,576
872.860962,541
872.978149,553
873.095337,522
873.212646,534
873.329834,541
873.44696,556
873.564209,545
873.681396,523
873.798645,543
873.915894,545
874.03302,570
874.150208,536
874.267456,546
874.384583,566
874.501831,538
874.618958,559
874.736145,564
874.853333,554
874.970459,563
875.087646,545
875.204834,559
875.32196,554
875.439148,556
875.556274,552
875.673401,544
875.790527,528
875.907715,555
876.024841,561
876.141968,542
876.259094,543
876.376282,533
876.493347,537
876.610474,543
876.7276,538
876.844727,516
876.961853,537
877.078918,530
877.195984,530
877.313171,523
877.430237,533
877.547302,550
877.664368,547
877.781433,519
877.898499,513
878.015625,552
878.13269,538
878.249695,528
878.366821,522
878.483887,512
878.600952,530
878.717957,522
878.834961,554
878.952087,508
879.069092,519
879.186157,504
879.303162,533
879.420227,490
879.537231,467
879.654236,526
879.77124,495
879.888306,516
880.005249,529
880.122314,500
880.239319,518
880.356323,512
880.473328,493
880.590271,486
880.707275,494
880.824341,498
880.941284,492
881.058228,501
881.175232,492
881.292236,495
881.40918,497
881.526123,505
881.643066,489
881.760071,501
881.877014,509
881.993958,509
882.11084,502
882.227783,522
882.344727,483
882.46167,500
882.578613,520
882.695618,484
882.812439,491
882.929382,517
883.046326,500
883.163208,522
883.280151,496
883.397034,495
883.513916,504
883.630798,506
883.747742,481
883.864563,504
883.981506,511
884.098389,538
884.21521,528
884.332153,543
884.448975,513
884.565796,523
884.682678,540
884.7995,533
884.916443,548
885.033264,579
885.150085,563
885.266968,603
885.383789,588
885.500671,619
885.617493,609
885.734314,606
885.851196,588
885.967896,591
886.084717,612
886.201599,602
886.318359,593
886.435181,599
886.552002,578
886.668762,601
886.785645,580
886.902344,608
887.019165,592
887.135925,592
887.252747,575
887.369446,574
887.486267,583
887.603027,562
887.719788,536
887.836548,574
887.953247,541
888.070068,510
888.186829,514
888.303528,510
888.420288,506
888.536987,506
888.653687,496
888.770447,508
888.887146,497
889.003967,478
889.120667,502
889.237305,505
889.354065,494
889.470703,485
889.587463,487
889.704163,464
889.820862,490
889.937561,487
890.054199,487
890.170837,474
890.287598,478
890.404236,476
890.520874,477
890.637634,490
890.754211,470
890.87085,483
890.987549,477
891.104187,491
891.220886,496
891.337463,509
891.454102,482
891.57074,493
891.687378,498
891.804077,491
891.920654,471
892.037231,482
892.15387,498
892.270447,499
892.387085,488
892.503723,496
892.6203,476
892.736877,480
892.853516,495
892.970032,494
893.08667,476
893.203186,496
893.319763,478
893.43634,475
893.552917,478
893.669556,504
893.786011,440
893.902588,487
894.019165,468
894.135681,475
894.252197,474
894.368835,485
894.485291,482
894.601868,487
894.718384,471
894.8349,477
894.951355,481
895.067932,505
895.184448,487
895.300964,485
895.417419,475
895.533936,477
895.650452,477
895.766907,479
895.883423,472
895.999878,479
896.116333,472
896.232849,494
896.349304,471
896.465759,466
896.582214,485
896.698669,487
896.815125,485
896.931641,475
897.048035,488
897.164551,501
897.280884,466
897.397339,494
897.513794,499
897.630249,490
897.746582,470
897.863098,449
897.979431,493
898.095886,496
898.212341,477
898.328674,474
898.445129,476
898.561462,497
898.677795,472
898.794312,502
898.910645,486
899.026978,505
899.143433,490
899.259766,488
899.37616,488
899.492493,471
899.608765,482
899.725159,501
899.841553,492
899.957947,480
900.07428,492
900.190552,483
900.306946,490
900.423157,487
900.53949,485
900.655884,486
900.772156,483
900.888489,491
901.004822,493
901.121033,505
901.237366,494
901.353699,516
901.46991,492
901.586304,481
901.702515,504
901.818787,524
901.93512,498
902.051331,512
902.167603,520
902.283875,520
902.400085,528
902.516418,516
902.632629,562
902.74884,563
902.865112,541
902.981384,558
903.097595,524
903.213867,556
903.330017,547
903.446289,546
903.5625,548
903.67865,517
903.794922,515
903.911072,518
904.027344,533
904.143494,526
904.259705,519
904.375916,524
904.492065,503
904.608215,485
904.724426,504
904.840576,513
904.956726,507
905.072876,502
905.189087,486
905.305176,488
905.421387,484
905.537537,477
905.653687,479
905.769775,494
905.885925,470
906.002014,494
906.118164,459
906.234314,492
906.350403,478
906.466492,508
906.582642,466
906.69873,494
906.814758,481
906.930908,490
907.046936,486
907.163086,480
907.279175,463
907.395264,481
907.511353,491
907.62738,469
907.743408,464
907.859497,488
907.975525,468
908.091553,488
908.207703,477
908.32373,470
908.439758,449
908.555786,486
908.671814,463
908.787842,484
908.90387,476
909.019775,492
909.135864,476
909.251892,461
909.367859,479
909.483826,461
909.599854,469
909.715881,465
909.831848,475
909.947815,464
910.063782,486
910.179749,482
910.295776,478
910.411743,486
910.527649,481
910.643616,493
910.759583,478
910.875488,497
910.991455,453
911.107361,494
911.223267,470
911.339294,470
911.4552,457
911.571106,464
911.687073,463
911.802979,473
911.918823,465
912.034729,484
912.150635,464
912.266602,479
912.382446,471
912.498352,484
912.614197,466
912.730103,465
912.846008,480
