792.44574,1042
792.56488,994
792.68396,1036
792.80304,1011
792.92218,920
793.041199,903
793.160339,916
793.279419,933
793.398499,857
793.517578,833
793.636658,837
793.755737,858
793.874817,835
793.993896,845
794.112976,822
794.232056,788
794.351074,810
794.470215,782
794.589233,781
794.708313,766
794.827393,762
794.946411,767
795.065552,746
795.18457,751
795.303589,749
795.422668,702
795.541687,723
795.660767,724
795.779846,690
795.898865,696
796.017883,703
796.136963,675
796.255981,681
796.375061,678
796.49408,691
796.613037,652
796.732117,686
796.851135,680
796.970154,678
797.089233,674
797.208191,632
797.327271,667
797.446228,647
797.565186,636
797.684265,665
797.803223,646
797.922241,626
798.04126,650
798.160278,620
798.279297,661
798.398315,621
798.517273,666
798.636292,627
798.75531,614
798.874268,625
798.993286,631
799.112244,612
799.231323,600
799.350281,592
799.469238,606
799.588257,607
799.707153,606
799.826111,589
799.945129,620
800.064087,591
800.183044,598
800.302063,621
800.421021,593
800.539978,596
800.658936,588
800.777893,596
800.896912,598
801.015747,602
801.134705,601
801.253723,578
801.37262,582
801.491638,585
801.610535,574
801.729492,584
801.84845,607
801.967407,581
802.086243,560
802.205261,580
802.324158,571
802.443115,575
802.562073,583
802.680969,584
802.799927,574
802.918762,568
803.037659,543
803.156677,567
803.275574,570
803.39447,594
803.513428,556
803.632263,557
803.751221,567
803.870117,561
803.989014,571
804.107971,563
804.226746,586
804.345642,544
804.4646,577
804.583496,542
804.702393,559
804.821228,568
804.940125,550
805.059021,546
805.177917,578
805.296814,560
805.415649,553
805.534546,569
805.653442,557
805.772278,560
805.891113,569
806.01001,562
806.128906,539
806.247742,563
806.366577,567
806.485413,549
806.604309,547
806.723145,553
806.84198,554
806.960876,537
807.079712,534
807.198486,548
807.317383,538
807.436218,512
807.554993,541
807.673889,539
807.792725,570
807.91156,547
808.030396,564
808.14917,549
808.268005,545
808.386841,554
808.505676,539
808.624451,548
808.743286,502
808.862122,550
808.980896,530
809.099731,542
809.218506,507
809.337341,546
809.456116,537
809.57489,542
809.693726,546
809.8125,538
809.931274,544
810.050049,534
810.168884,529
810.287659,538
810.406372,526
810.525269,521
810.643982,536
810.762756,541
810.881531,553
811.000305,531
811.11908,533
811.237854,562
811.356567,576
811.475403,557
811.594116,550
811.71283,555
811.831604,549
811.950378,544
812.069153,555
812.187927,549
812.30658,544
812.425415,564
812.544128,554
812.662781,565
812.781616,556
812.900269,559
813.019043,558
813.137756,540
813.256531,567
813.375244,524
813.493896,565
813.612671,533
813.731384,533
813.850037,552
813.96875,554
814.087524,533
814.206238,546
814.324951,537
814.443604,544
814.562256,527
814.68103,551
814.799683,531
814.918335,568
815.037109,535
815.155762,522
815.274475,550
815.393188,509
815.511841,546
815.630554,521
815.749146,529
815.867859,511
815.986572,548
816.105164,549
816.223877,508
816.342529,530
816.461182,537
816.579895,520
816.698486,522
816.817139,538
816.935791,551
817.054504,541
817.173096,548
817.291748,519
817.4104,536
817.529053,528
817.647644,533
817.766235,558
817.884949,491
818.00354,507
818.122192,506
818.240845,519
818.359436,524
818.478088,503
818.59668,520
818.715271,525
818.833923,510
818.952515,511
819.071106,493
819.189758,510
819.30835,510
819.426941,505
819.545532,507
819.664124,517
819.782715,504
819.901306,484
820.019897,514
820.138489,531
820.25708,512
820.375671,514
820.494202,528
820.612732,497
820.731384,529
820.849915,526
820.968506,514
821.087097,523
821.205627,496
821.324158,502
821.442749,506
821.561279,498
821.679871,514
821.798401,516
821.916931,503
822.035461,500
822.154053,491
822.272583,502
822.391174,506
822.509583,501
822.628174,483
822.746704,515
822.865234,513
822.983765,520
823.102295,484
823.220825,491
823.339294,487
823.457825,487
823.576355,491
823.694824,492
823.813354,505
823.931885,484
824.050354,512
824.168884,500
824.287354,494
824.405823,505
824.524353,493
824.642822,515
824.761353,505
824.879822,498
824.998291,497
825.116699,507
825.235291,504
825.353699,518
825.472168,509
825.590637,504
825.709106,499
825.827576,494
825.946045,483
826.064453,481
826.182983,483
826.301392,489
826.4198,474
826.53833,499
826.656738,481
826.775208,490
826.893677,512
827.012024,475
827.130493,497
827.248962,494
827.36731,498
827.485779,486
827.604248,497
827.722595,482
827.841064,503
827.959412,491
828.077942,489
828.196289,496
828.314636,490
828.433105,467
828.551514,478
828.669861,472
828.78833,465
828.906677,489
829.025085,480
829.143433,458
829.261841,498
829.38031,483
829.498657,473
829.617004,465
829.735413,489
829.85376,475
829.972107,489
830.090515,481
830.208862,493
830.327209,472
830.445557,489
830.563904,489
830.682312,490
830.800659,486
830.919006,493
831.037354,501
831.155701,503
831.274048,513
831.392395,502
831.51062,493
831.629028,485
831.747314,493
831.865662,501
831.984009,487
832.102356,479
832.220642,490
832.338928,510
832.457275,497
832.575623,501
832.693909,495
832.812134,489
832.930481,508
833.048828,502
833.167114,481
833.2854,502
833.403687,467
833.521973,491
833.640259,487
833.758545,464
833.876831,491
833.995056,492
834.113281,493
834.231628,490
834.349915,501
834.468201,479
834.586426,485
834.704651,494
834.822998,479
834.941162,484
835.059448,508
835.177673,468
835.295959,505
835.414246,504
835.53241,486
835.650635,501
835.768921,486
835.887146,476
836.005371,474
836.123596,479
836.241821,488
836.360046,498
836.478271,507
836.596497,473
836.714722,486
836.832886,491
836.95105,480
837.069336,489
837.1875,481
837.305725,483
837.423889,503
837.542053,473
837.660339,485
837.778503,473
837.896667,478
838.014832,499
838.132996,480
838.25116,482
838.369385,498
838.487488,480
838.605713,476
838.723877,501
838.84198,498
838.960205,481
839.078308,496
839.196472,501
839.314636,481
839.4328,517
839.550964,504
839.669067,486
839.787231,503
839.905396,490
840.023499,518
840.141602,500
840.259766,507
840.377869,518
840.495972,536
840.614136,510
840.732239,524
840.850342,508
840.968445,513
841.086548,519
841.204651,527
841.322754,507
841.440918,522
841.55896,542
841.677002,546
841.795166,541
841.913208,517
842.031311,535
842.149353,529
842.267456,539
842.385498,515
842.503601,545
842.621643,533
842.739746,521
842.857788,533
842.97583,528
843.093933,516
843.211975,526
843.330017,546
843.44812,528
843.566101,537
843.684204,516
843.802246,529
843.920227,524
844.038269,520
844.156311,534
844.274292,530
844.392395,520
844.510376,528
844.628357,515
844.74646,501
844.864441,495
844.982422,509
845.100403,512
845.218384,505
845.336426,514
845.454468,502
845.572449,510
845.69043,524
845.808411,521
845.926453,502
846.044373,502
846.162354,509
846.280396,498
846.398315,531
846.516296,520
846.634216,512
846.752197,514
846.870178,538
846.988098,525
847.106079,537
847.22406,507
847.34198,524
847.4599,540
847.577881,533
847.695801,499
847.813782,510
847.931641,499
848.049561,527
848.167603,521
848.285461,503
848.403381,528
848.521362,510
848.639221,525
848.75708,501
848.875,515
848.99292,522
849.110901,518
849.22876,526
849.34668,528
849.464539,534
849.582458,517
849.700317,526
849.818176,531
849.936096,512
850.053955,512
850.171875,518
850.289673,509
850.407593,504
850.525452,525
850.643311,532
850.761169,521
850.878967,513
850.996887,503
851.114746,511
851.232544,524
851.350403,491
851.468262,514
851.58606,501
851.703979,519
851.821777,542
851.939636,525
852.057434,490
852.175232,521
852.293091,513
852.410889,528
852.528687,518
852.646545,533
852.764343,553
852.88208,526
852.999939,552
853.117676,524
853.235535,524
853.353271,500
853.471069,520
853.588928,510
853.706604,544
853.824402,502
853.9422,507
854.059998,509
854.177734,507
854.295532,513
854.413269,520
854.531006,537
854.648804,533
854.766541,521
854.884277,489
855.002014,511
855.119751,552
855.237549,539
855.355225,516
855.473022,509
855.590698,509
855.708435,515
855.826172,504
855.943848,503
856.061646,556
856.179321,524
856.296997,521
856.414795,546
856.53241,551
856.650085,525
856.767822,523
856.885559,539
857.003174,531
857.120911,538
857.238586,542
857.356201,536
857.473938,528
857.591614,533
857.709351,521
857.826965,543
857.944641,544
858.062317,518
858.179993,529
858.297668,516
858.415283,534
858.532959,508
858.650574,535
858.768188,529
858.885803,542
859.003479,555
859.121094,525
859.23877,524
859.356384,536
859.473999,535
859.591675,522
859.709229,511
859.826843,540
859.944458,496
860.062012,525
860.179626,512
860.297302,535
860.414856,497
860.532471,541
860.650024,540
860.767639,510
860.885193,519
861.002808,511
861.120361,499
861.237976,521
861.35553,516
861.473022,521
861.590698,508
861.708191,522
861.825745,517
861.943298,510
862.060852,514
862.178406,500
862.295959,506
862.413513,491
862.531006,498
862.64856,475
862.766113,481
862.883667,504
863.00116,490
863.118713,500
863.236206,481
863.353699,484
863.471252,478
863.588745,490
863.706177,481
863.82373,515
863.941162,502
864.058716,497
864.176208,511
864.29364,496
864.411194,498
864.528687,488
864.646118,490
864.763611,485
864.881042,509
864.998535,503
865.116028,491
865.233459,492
865.350891,500
865.468384,514
865.585754,512
865.703308,488
865.820679,472
865.938171,500
866.055542,496
866.173035,507
866.290466,493
866.407837,490
866.52533,488
866.6427,488
866.760071,493
866.877563,488
866.994934,506
867.112305,526
867.229736,477
867.347107,506
867.464539,511
867.58197,498
867.699341,518
867.81665,512
867.934082,508
868.051453,511
868.168823,499
868.286194,502
868.403564,486
868.520935,491
868.638306,506
868.755676,485
868.872986,509
868.990295,528
869.107727,513
869.225037,511
869.342346,510
869.459717,507
869.577026,515
869.694336,510
869.811707,511
869.929016,521
870.046326,510
870.163635,511
870.280945,497
870.398254,526
870.515564,513
870.632812,526
870.750183,514
870.867432,521
870.984741,541
871.102051,531
871.219299,527
871.336609,553
871.453918,509
871.571106,530
871.688416,540
871.805664,534
871.922852,543
872.040222,556
872.157471,516
872.274719,544
872.391968,522
872.509155,537
872.626465,532
872.743652,559
872.860962,533
872.978149,530
873.095337,520
873.212646,548
873.329834,511
873.44696,520
873.564209,522
873.681396,520
873.798645,525
873.915894,536
874.03302,514
874.150208,535
874.267456,554
874.384583,558
874.501831,543
874.618958,558
874.736145,549
874.853333,538
874.970459,533
875.087646,541
875.204834,550
875.32196,550
875.439148,519
875.556274,528
875.673401,540
875.790527,526
875.907715,536
876.024841,509
876.141968,526
876.259094,524
876.376282,527
876.493347,537
876.610474,533
876.7276,503
876.844727,510
876.961853,513
877.078918,502
877.195984,506
877.313171,504
877.430237,521
877.547302,516
877.664368,507
877.781433,488
877.898499,504
878.015625,519
878.13269,519
878.249695,527
878.366821,496
878.483887,486
878.600952,528
878.717957,489
878.834961,493
878.952087,484
879.069092,505
879.186157,491
879.303162,508
879.420227,523
879.537231,492
879.654236,498
879.77124,496
879.888306,475
880.005249,493
880.122314,486
880.239319,489
880.356323,488
880.473328,483
880.590271,496
880.707275,475
880.824341,464
880.941284,464
881.058228,489
881.175232,480
881.292236,483
881.40918,494
881.526123,492
881.643066,481
881.760071,478
881.877014,498
881.993958,470
882.11084,469
882.227783,482
882.344727,480
882.46167,492
882.578613,478
882.695618,490
882.812439,487
882.929382,479
883.046326,461
883.163208,493
883.280151,482
883.397034,483
883.513916,507
883.630798,501
883.747742,509
883.864563,498
883.981506,473
884.098389,518
884.21521,487
884.332153,513
884.448975,490
884.565796,534
884.682678,532
884.7995,523
884.916443,546
885.033264,552
885.150085,562
885.266968,600
885.383789,594
885.500671,613
885.617493,576
885.734314,592
885.851196,616
885.967896,594
886.084717,611
886.201599,597
886.318359,574
886.435181,591
886.552002,592
886.668762,568
886.785645,575
886.902344,575
887.019165,579
887.135925,555
887.252747,583
887.369446,545
887.486267,534
887.603027,539
887.719788,543
887.836548,513
887.953247,535
888.070068,538
888.186829,507
888.303528,518
888.420288,517
888.536987,489
888.653687,479
888.770447,484
888.887146,491
889.003967,487
889.120667,493
889.237305,488
889.354065,470
889.470703,473
889.587463,470
889.704163,468
889.820862,453
889.937561,456
890.054199,461
890.170837,480
890.287598,463
890.404236,475
890.520874,462
890.637634,485
890.754211,485
890.87085,461
890.987549,458
891.104187,473
891.220886,468
891.337463,488
891.454102,483
891.57074,474
891.687378,472
891.804077,471
891.920654,468
892.037231,484
892.15387,476
892.270447,474
892.387085,467
892.503723,468
892.6203,478
892.736877,465
892.853516,485
892.970032,468
893.08667,491
893.203186,491
893.319763,468
893.43634,480
893.552917,478
893.669556,466
893.786011,462
893.902588,495
894.019165,485
894.135681,465
894.252197,484
894.368835,456
894.485291,465
894.601868,464
894.718384,467
894.8349,467
894.951355,472
895.067932,469
895.184448,484
895.300964,465
895.417419,467
895.533936,458
895.650452,470
895.766907,470
895.883423,470
895.999878,480
896.116333,472
896.232849,470
896.349304,480
896.465759,468
896.582214,473
896.698669,492
896.815125,485
896.931641,466
897.048035,477
897.164551,464
897.280884,468
897.397339,473
897.513794,484
897.630249,458
897.746582,476
897.863098,474
897.979431,495
898.095886,511
898.212341,475
898.328674,469
898.445129,486
898.561462,469
898.677795,476
898.794312,472
898.910645,498
899.026978,481
899.143433,465
899.259766,481
899.37616,481
899.492493,466
899.608765,469
899.725159,484
899.841553,480
899.957947,466
900.07428,479
900.190552,487
900.306946,489
900.423157,461
900.53949,482
900.655884,460
900.772156,471
900.888489,469
901.004822,473
901.121033,472
901.237366,476
901.353699,480
901.46991,493
901.586304,502
901.702515,476
901.818787,482
901.93512,502
902.051331,516
902.167603,507
902.283875,515
902.400085,532
902.516418,504
902.632629,523
902.74884,543
902.865112,539
902.981384,526
903.097595,526
903.213867,530
903.330017,532
903.446289,536
903.5625,511
903.67865,506
903.794922,528
903.911072,516
904.027344,506
904.143494,498
904.259705,487
904.375916,494
904.492065,484
904.608215,488
904.724426,486
904.840576,491
904.956726,485
905.072876,501
905.189087,486
905.305176,498
905.421387,472
905.537537,465
905.653687,487
905.769775,477
905.885925,480
906.002014,469
906.118164,462
906.234314,485
906.350403,470
906.466492,476
906.582642,467
906.69873,464
906.814758,457
906.930908,454
907.046936,466
907.163086,484
907.279175,489
907.395264,461
907.511353,463
907.62738,462
907.743408,462
907.859497,480
907.975525,473
908.091553,483
908.207703,475
908.32373,489
908.439758,483
908.555786,445
908.671814,474
908.787842,467
908.90387,476
909.019775,484
909.135864,479
909.251892,471
909.367859,479
909.483826,478
909.599854,457
909.715881,485
909.831848,463
909.947815,480
910.063782,452
910.179749,478
910.295776,475
910.411743,479
910.527649,483
910.643616,476
910.759583,470
910.875488,465
910.991455,485
911.107361,470
911.223267,477
911.339294,453
911.4552,467
911.571106,458
911.687073,490
911.802979,473
911.918823,472
912.034729,475
912.150635,483
912.266602,472
912.382446,475
912.498352,473
912.614197,467
912.730103,452
912.846008,462
792.44574,1030
792.56488,1067
792.68396,1057
792.80304,1003
792.92218,953
793.041199,892
793.160339,919
793.279419,890
793.398499,921
793.517578,859
793.636658,847
793.755737,849
793.874817,865
793.993896,863
794.112976,789
794.232056,827
794.351074,797
794.470215,756
794.589233,798
794.708313,775
794.827393,772
794.946411,750
795.065552,741
795.18457,740
795.303589,746
795.422668,718
795.541687,718
795.660767,747
795.779846,722
795.898865,697
796.017883,689
796.136963,679
796.255981,697
796.375061,697
796.49408,695
796.613037,708
796.732117,673
796.851135,670
796.970154,673
797.089233,624
797.208191,651
797.327271,657
797.446228,670
797.565186,630
797.684265,649
797.803223,653
797.922241,634
798.04126,620
798.160278,638
798.279297,609
798.398315,620
798.517273,619
798.636292,627
798.75531,638
798.874268,625
798.993286,632
799.112244,612
799.231323,630
799.350281,623
799.469238,613
799.588257,614
799.707153,601
799.826111,600
799.945129,595
800.064087,609
800.183044,609
800.302063,594
800.421021,636
800.539978,591
800.658936,593
800.777893,593
800.896912,585
801.015747,599
801.134705,605
801.253723,595
801.37262,588
801.491638,594
801.610535,575
801.729492,586
801.84845,574
801.967407,597
802.086243,570
802.205261,597
802.324158,583
802.443115,568
802.562073,576
802.680969,594
802.799927,599
802.918762,553
803.037659,595
803.156677,552
803.275574,570
803.39447,582
803.513428,577
803.632263,568
803.751221,561
803.870117,582
803.989014,560
804.107971,566
804.226746,549
804.345642,572
804.4646,553
804.583496,573
804.702393,569
804.821228,574
804.940125,547
805.059021,583
805.177917,590
805.296814,581
805.415649,570
805.534546,557
805.653442,551
805.772278,548
805.891113,546
806.01001,543
806.128906,523
806.247742,556
806.366577,546
806.485413,580
806.604309,560
806.723145,553
806.84198,546
806.960876,539
807.079712,542
807.198486,543
807.317383,546
807.436218,540
807.554993,542
807.673889,541
807.792725,560
807.91156,566
808.030396,537
808.14917,560
808.268005,537
808.386841,552
808.505676,539
808.624451,539
808.743286,530
808.862122,556
808.980896,538
809.099731,555
809.218506,542
809.337341,524
809.456116,531
809.57489,545
809.693726,543
809.8125,546
809.931274,538
810.050049,516
810.168884,532
810.287659,529
810.406372,535
810.525269,542
810.643982,522
810.762756,538
810.881531,534
811.000305,527
811.11908,553
811.237854,545
811.356567,537
811.475403,539
811.594116,537
811.71283,544
811.831604,518
811.950378,563
812.069153,546
812.187927,566
812.30658,570
812.425415,549
812.544128,565
812.662781,548
812.781616,551
812.900269,560
813.019043,562
813.137756,553
813.256531,561
813.375244,546
813.493896,530
813.612671,531
813.731384,524
813.850037,510
813.96875,528
814.087524,541
814.206238,530
814.324951,540
814.443604,531
814.562256,533
814.68103,533
814.799683,519
814.918335,517
815.037109,534
815.155762,532
815.274475,530
815.393188,527
815.511841,536
815.630554,539
815.749146,544
815.867859,512
815.986572,518
816.105164,515
816.223877,534
816.342529,551
816.461182,534
816.579895,537
816.698486,547
816.817139,536
816.935791,548
817.054504,550
817.173096,527
817.291748,549
817.4104,544
817.529053,529
817.647644,518
817.766235,525
817.884949,527
818.00354,522
818.122192,520
818.240845,516
818.359436,521
818.478088,500
818.59668,513
818.715271,548
818.833923,527
818.952515,501
819.071106,518
819.189758,502
819.30835,510
819.426941,526
819.545532,502
819.664124,499
819.782715,520
819.901306,518
820.019897,515
820.138489,501
820.25708,516
820.375671,521
820.494202,505
820.612732,513
820.731384,530
820.849915,502
820.968506,500
821.087097,504
821.205627,508
821.324158,500
821.442749,507
821.561279,497
821.679871,504
821.798401,510
821.916931,502
822.035461,496
822.154053,506
822.272583,493
822.391174,508
822.509583,470
822.628174,515
822.746704,496
822.865234,502
822.983765,498
823.102295,481
823.220825,486
823.339294,481
823.457825,501
823.576355,494
823.694824,501
823.813354,494
823.931885,479
824.050354,497
824.168884,493
824.287354,523
824.405823,502
824.524353,490
824.642822,504
824.761353,509
824.879822,497
824.998291,487
825.116699,503
825.235291,503
825.353699,496
825.472168,499
825.590637,498
825.709106,502
825.827576,498
825.946045,497
826.064453,500
826.182983,496
826.301392,489
826.4198,498
826.53833,487
826.656738,493
826.775208,483
826.893677,464
827.012024,483
827.130493,493
827.248962,476
827.36731,478
827.485779,498
827.604248,466
827.722595,490
827.841064,493
827.959412,467
828.077942,484
828.196289,474
828.314636,489
828.433105,485
828.551514,479
828.669861,483
828.78833,479
828.906677,473
829.025085,489
829.143433,481
829.261841,489
829.38031,482
829.498657,497
829.617004,498
829.735413,486
829.85376,488
829.972107,492
830.090515,476
830.208862,476
830.327209,485
830.445557,492
830.563904,506
830.682312,471
830.800659,482
830.919006,485
831.037354,487
831.155701,523
831.274048,489
831.392395,499
831.51062,504
831.629028,490
831.747314,484
831.865662,484
831.984009,478
832.102356,514
832.220642,500
832.338928,506
832.457275,509
832.575623,510
832.693909,509
832.812134,485
832.930481,463
833.048828,487
833.167114,486
833.2854,478
833.403687,465
833.521973,503
833.640259,485
833.758545,485
833.876831,478
833.995056,514
834.113281,496
834.231628,493
834.349915,502
834.468201,491
834.586426,479
834.704651,500
834.822998,474
834.941162,478
835.059448,488
835.177673,496
835.295959,488
835.414246,495
835.53241,477
835.650635,497
835.768921,466
835.887146,491
836.005371,501
836.123596,493
836.241821,491
836.360046,494
836.478271,496
836.596497,488
836.714722,495
836.832886,485
836.95105,499
837.069336,493
837.1875,486
837.305725,474
837.423889,483
837.542053,482
837.660339,491
837.778503,478
837.896667,480
838.014832,487
838.132996,478
838.25116,484
838.369385,487
838.487488,490
838.605713,488
838.723877,491
838.84198,499
838.960205,508
839.078308,483
839.196472,497
839.314636,504
839.4328,501
839.550964,492
839.669067,491
839.787231,500
839.905396,501
840.023499,506
840.141602,497
840.259766,497
840.377869,523
840.495972,498
840.614136,513
840.732239,514
840.850342,520
840.968445,507
841.086548,510
841.204651,534
841.322754,513
841.440918,525
841.55896,539
841.677002,508
841.795166,566
841.913208,550
842.031311,530
842.149353,539
842.267456,520
842.385498,527
842.503601,554
842.621643,531
842.739746,523
842.857788,528
842.97583,520
843.093933,502
843.211975,538
843.330017,505
843.44812,519
843.566101,532
843.684204,542
843.802246,518
843.920227,526
844.038269,506
844.156311,516
844.274292,534
844.392395,528
844.510376,515
844.628357,521
844.74646,504
844.864441,540
844.982422,514
845.100403,530
845.218384,510
845.336426,504
845.454468,509
845.572449,512
845.69043,516
845.808411,499
845.926453,527
846.044373,528
846.162354,507
846.280396,519
846.398315,513
846.516296,515
846.634216,489
846.752197,516
846.870178,516
846.988098,517
847.106079,513
847.22406,523
847.34198,528
847.4599,515
847.577881,502
847.695801,515
847.813782,515
847.931641,511
848.049561,498
848.167603,516
848.285461,509
848.403381,523
848.521362,511
848.639221,528
848.75708,504
848.875,523
848.99292,525
849.110901,519
849.22876,513
849.34668,519
849.464539,545
849.582458,524
849.700317,510
849.818176,514
849.936096,514
850.053955,529
850.171875,516
850.289673,526
850.407593,522
850.525452,524
850.643311,511
850.761169,519
850.878967,513
850.996887,518
851.114746,506
851.232544,509
851.350403,475
851.468262,527
851.58606,524
851.703979,509
851.821777,516
851.939636,505
852.057434,503
852.175232,513
852.293091,515
852.410889,499
852.528687,535
852.646545,547
852.764343,544
852.88208,552
852.999939,514
853.117676,540
853.235535,523
853.353271,508
853.471069,514
853.588928,510
853.706604,511
853.824402,499
853.9422,516
854.059998,513
854.177734,506
854.295532,496
854.413269,499
854.531006,544
854.648804,514
854.766541,510
854.884277,553
855.002014,489
855.119751,514
855.237549,517
855.355225,508
855.473022,508
855.590698,511
855.708435,517
855.826172,503
855.943848,525
856.061646,518
856.179321,513
856.296997,521
856.414795,534
856.53241,548
856.650085,524
856.767822,530
856.885559,547
857.003174,549
857.120911,538
857.238586,552
857.356201,559
857.473938,530
857.591614,530
857.709351,525
857.826965,528
857.944641,526
858.062317,545
858.179993,519
858.297668,550
858.415283,548
858.532959,536
858.650574,549
858.768188,538
858.885803,530
859.003479,542
859.121094,551
859.23877,537
859.356384,504
859.473999,543
859.591675,517
859.709229,510
859.826843,515
859.944458,532
860.062012,501
860.179626,523
860.297302,488
860.414856,526
860.532471,495
860.650024,541
860.767639,519
860.885193,511
861.002808,507
861.120361,526
861.237976,513
861.35553,505
861.473022,514
861.590698,532
861.708191,515
861.825745,497
861.943298,511
862.060852,516
862.178406,504
862.295959,515
862.413513,500
862.531006,510
862.64856,495
862.766113,493
862.883667,485
863.00116,498
863.118713,497
863.236206,478
863.353699,511
863.471252,497
863.588745,495
863.706177,502
863.82373,495
863.941162,516
864.058716,491
864.176208,504
864.29364,510
864.411194,498
864.528687,483
864.646118,507
864.763611,518
864.881042,489
864.998535,501
865.116028,485
865.233459,490
865.350891,486
865.468384,496
865.585754,503
865.703308,490
865.820679,503
865.938171,482
866.055542,496
866.173035,490
866.290466,488
866.407837,493
866.52533,472
866.6427,486
866.760071,498
866.877563,510
866.994934,517
867.112305,495
867.229736,501
867.347107,497
867.464539,484
867.58197,487
867.699341,515
867.81665,507
867.934082,514
868.051453,505
868.168823,485
868.286194,476
868.403564,508
868.520935,504
868.638306,506
868.755676,505
868.872986,516
868.990295,517
869.107727,489
869.225037,492
869.342346,527
869.459717,505
869.577026,519
869.694336,504
869.811707,505
869.929016,511
870.046326,522
870.163635,512
870.280945,518
870.398254,521
870.515564,519
870.632812,511
870.750183,518
870.867432,526
870.984741,561
871.102051,528
871.219299,537
871.336609,542
871.453918,519
871.571106,526
871.688416,546
871.805664,545
871.922852,532
872.040222,534
872.157471,538
872.274719,527
872.391968,549
872.509155,533
872.626465,553
872.743652,521
872.860962,534
872.978149,542
873.095337,554
873.212646,515
873.329834,529
873.44696,512
873.564209,548
873.681396,520
873.798645,545
873.915894,551
874.03302,524
874.150208,538
874.267456,521
874.384583,535
874.501831,555
874.618958,557
874.736145,544
874.853333,535
874.970459,557
875.087646,535
875.204834,584
875.32196,534
875.439148,537
875.556274,528
875.673401,510
875.790527,518
875.907715,520
876.024841,516
876.141968,531
876.259094,512
876.376282,548
876.493347,514
876.610474,516
876.7276,532
876.844727,515
876.961853,512
877.078918,520
877.195984,526
877.313171,532
877.430237,508
877.547302,517
877.664368,521
877.781433,512
877.898499,516
878.015625,511
878.13269,505
878.249695,516
878.366821,483
878.483887,513
878.600952,505
878.717957,484
878.834961,518
878.952087,506
879.069092,502
879.186157,520
879.303162,488
879.420227,487
879.537231,495
879.654236,504
879.77124,486
879.888306,475
880.005249,521
880.122314,494
880.239319,488
880.356323,496
880.473328,502
880.590271,478
880.707275,487
880.824341,496
880.941284,497
881.058228,494
881.175232,480
881.292236,484
881.40918,495
881.526123,475
881.643066,504
881.760071,488
881.877014,484
881.993958,493
882.11084,498
882.227783,512
882.344727,471
882.46167,475
882.578613,474
882.695618,481
882.812439,487
882.929382,494
883.046326,498
883.163208,505
883.280151,494
883.397034,492
883.513916,479
883.630798,509
883.747742,480
883.864563,497
883.981506,503
884.098389,506
884.21521,508
884.332153,503
884.448975,533
884.565796,526
884.682678,525
884.7995,543
884.916443,537
885.033264,568
885.150085,566
885.266968,597
885.383789,607
885.500671,601
885.617493,615
885.734314,605
885.851196,644
885.967896,592
886.084717,590
886.201599,583
886.318359,572
886.435181,544
886.552002,585
886.668762,565
886.785645,594
886.902344,594
887.019165,580
887.135925,551
887.252747,555
887.369446,564
887.486267,571
887.603027,554
887.719788,522
887.836548,544
887.953247,533
888.070068,523
888.186829,523
888.303528,506
888.420288,497
888.536987,503
888.653687,495
888.770447,490
888.887146,491
889.003967,506
889.120667,492
889.237305,491
889.354065,493
889.470703,473
889.587463,459
889.704163,493
889.820862,493
889.937561,484
890.054199,465
890.170837,479
890.287598,453
890.404236,466
890.520874,469
890.637634,505
890.754211,470
890.87085,462
890.987549,463
891.104187,476
891.220886,474
891.337463,474
891.454102,477
891.57074,473
891.687378,498
891.804077,491
891.920654,458
892.037231,486
892.15387,485
892.270447,472
892.387085,469
892.503723,485
892.6203,472
892.736877,467
892.853516,470
892.970032,491
893.08667,481
893.203186,480
893.319763,449
893.43634,474
893.552917,482
893.669556,465
893.786011,472
893.902588,467
894.019165,464
894.135681,470
894.252197,472
894.368835,465
894.485291,486
894.601868,460
894.718384,476
894.8349,459
894.951355,465
895.067932,492
895.184448,468
895.300964,461
895.417419,467
895.533936,483
895.650452,466
895.766907,492
895.883423,436
895.999878,455
896.116333,457
896.232849,474
896.349304,478
896.465759,468
896.582214,464
896.698669,466
896.815125,460
896.931641,466
897.048035,487
897.164551,489
897.280884,476
897.397339,468
897.513794,484
897.630249,475
897.746582,488
897.863098,484
897.979431,458
898.095886,485
898.212341,476
898.328674,473
898.445129,468
898.561462,488
898.677795,467
898.794312,485
898.910645,488
899.026978,485
899.143433,482
899.259766,483
899.37616,495
899.492493,468
899.608765,489
899.725159,490
899.841553,470
899.957947,469
900.07428,457
900.190552,483
900.306946,468
900.423157,477
900.53949,491
900.655884,483
900.772156,467
900.888489,477
901.004822,476
901.121033,492
901.237366,474
901.353699,476
901.46991,478
901.586304,503
901.702515,470
901.818787,502
901.93512,498
902.051331,491
902.167603,525
902.283875,503
902.400085,521
902.516418,544
902.632629,535
902.74884,552
902.865112,541
902.981384,545
903.097595,537
903.213867,531
903.330017,551
903.446289,526
903.5625,548
903.67865,523
903.794922,515
903.911072,508
904.027344,500
904.143494,514
904.259705,494
904.375916,496
904.492065,491
904.608215,472
904.724426,481
904.840576,499
904.956726,472
905.072876,501
905.189087,489
905.305176,504
905.421387,450
905.537537,490
905.653687,453
905.769775,486
905.885925,473
906.002014,474
906.118164,485
906.234314,476
906.350403,473
906.466492,467
906.582642,467
906.69873,480
906.814758,493
906.930908,497
907.046936,480
907.163086,479
907.279175,457
907.395264,493
907.511353,454
907.62738,471
907.743408,455
907.859497,468
907.975525,475
908.091553,459
908.207703,447
908.32373,461
908.439758,469
908.555786,487
908.671814,463
908.787842,482
908.90387,470
909.019775,458
909.135864,476
909.251892,471
909.367859,459
909.483826,481
909.599854,473
909.715881,474
909.831848,468
909.947815,470
910.063782,466
910.179749,481
910.295776,461
910.411743,491
910.527649,479
910.643616,490
910.759583,464
910.875488,482
910.991455,475
911.107361,469
911.223267,462
911.339294,457
911.4552,465
911.571106,458
911.687073,467
911.802979,481
911.918823,449
912.034729,471
912.150635,486
912.266602,467
912.382446,474
912.498352,463
912.614197,475
912.730103,461
912.846008,467
792.44574,1014
792.56488,1014
792.68396,1025
792.80304,1030
792.92218,948
793.041199,935
793.160339,886
793.279419,915
793.398499,895
793.517578,910
793.636658,837
793.755737,833
793.874817,853
793.993896,878
794.112976,813
794.232056,784
794.351074,804
794.470215,781
794.589233,766
794.708313,772
794.827393,788
794.946411,755
795.065552,725
795.18457,733
795.303589,734
795.422668,734
795.541687,743
795.660767,725
795.779846,744
795.898865,691
796.017883,693
796.136963,683
796.255981,672
796.375061,658
796.49408,701
796.613037,685
796.732117,666
796.851135,660
796.970154,647
797.089233,687
797.208191,642
797.327271,629
797.446228,651
797.565186,627
797.684265,628
797.803223,629
797.922241,638
798.04126,628
798.160278,646
798.279297,620
798.398315,644
798.517273,618
798.636292,628
798.75531,615
798.874268,640
798.993286,633
799.112244,634
799.231323,635
799.350281,629
799.469238,634
799.588257,644
799.707153,610
799.826111,617
799.945129,635
800.064087,612
800.183044,599
800.302063,603
800.421021,631
800.539978,591
800.658936,605
800.777893,593
800.896912,618
801.015747,574
801.134705,602
801.253723,594
801.37262,587
801.491638,581
801.610535,594
801.729492,588
801.84845,589
801.967407,586
802.086243,551
802.205261,589
802.324158,586
802.443115,571
802.562073,601
802.680969,579
802.799927,559
802.918762,570
803.037659,573
803.156677,582
803.275574,586
803.39447,577
803.513428,579
803.632263,591
803.751221,591
803.870117,573
803.989014,582
804.107971,570
804.226746,558
804.345642,554
804.4646,577
804.583496,568
804.702393,570
804.821228,553
804.940125,567
805.059021,534
805.177917,551
805.296814,562
805.415649,551
805.534546,547
805.653442,573
805.772278,537
805.891113,576
806.01001,577
806.128906,542
806.247742,557
806.366577,564
806.485413,553
806.604309,529
806.723145,546
806.84198,555
806.960876,535
807.079712,563
807.198486,531
807.317383,549
807.436218,546
807.554993,545
807.673889,550
807.792725,544
807.91156,547
808.030396,543
808.14917,558
808.268005,526
808.386841,535
808.505676,536
808.624451,559
808.743286,550
808.862122,528
808.980896,510
809.099731,546
809.218506,531
809.337341,526
809.456116,554
809.57489,538
809.693726,529
809.8125,529
809.931274,543
810.050049,524
810.168884,540
810.287659,521
810.406372,572
810.525269,559
810.643982,546
810.762756,535
810.881531,566
811.000305,540
811.11908,531
811.237854,532
811.356567,550
811.475403,541
811.594116,541
811.71283,556
811.831604,548
811.950378,557
812.069153,509
812.187927,560
812.30658,565
812.425415,566
812.544128,565
812.662781,567
812.781616,571
812.900269,566
813.019043,561
813.137756,539
813.256531,549
813.375244,550
813.493896,548
813.612671,547
813.731384,546
813.850037,534
813.96875,539
814.087524,529
814.206238,543
814.324951,537
814.443604,539
814.562256,525
814.68103,529
814.799683,538
814.918335,562
815.037109,521
815.155762,555
815.274475,524
815.393188,532
815.511841,544
815.630554,528
815.749146,547
815.867859,511
815.986572,532
816.105164,542
816.223877,540
816.342529,539
816.461182,559
816.579895,528
816.698486,545
816.817139,522
816.935791,538
817.054504,553
817.173096,543
817.291748,547
817.4104,527
817.529053,550
817.647644,523
817.766235,523
817.884949,534
818.00354,539
818.122192,519
818.240845,526
818.359436,519
818.478088,510
818.59668,515
818.715271,523
818.833923,528
818.952515,511
819.071106,514
819.189758,516
819.30835,490
819.426941,508
819.545532,522
819.664124,519
819.782715,496
819.901306,529
820.019897,504
820.138489,526
820.25708,530
820.375671,518
820.494202,502
820.612732,517
820.731384,499
820.849915,533
820.968506,515
821.087097,519
821.205627,510
821.324158,512
821.442749,509
821.561279,518
821.679871,486
821.798401,518
821.916931,501
822.035461,501
822.154053,514
822.272583,517
822.391174,511
822.509583,505
822.628174,503
822.746704,518
822.865234,494
822.983765,499
823.102295,503
823.220825,483
823.339294,495
823.457825,503
823.576355,488
823.694824,499
823.813354,487
823.931885,487
824.050354,499
824.168884,508
824.287354,484
824.405823,494
824.524353,477
824.642822,492
824.761353,495
824.879822,511
824.998291,494
825.116699,499
825.235291,509
825.353699,517
825.472168,512
825.590637,506
825.709106,490
825.827576,499
825.946045,519
826.064453,494
826.182983,487
826.301392,490
826.4198,485
826.53833,497
826.656738,474
826.775208,491
826.893677,498
827.012024,492
827.130493,492
827.248962,510
827.36731,500
827.485779,497
827.604248,481
827.722595,494
827.841064,504
827.959412,508
828.077942,474
828.196289,479
828.314636,477
828.433105,502
828.551514,477
828.669861,486
828.78833,477
828.906677,495
829.025085,465
829.143433,483
829.261841,488
829.38031,496
829.498657,482
829.617004,490
829.735413,476
829.85376,466
829.972107,511
830.090515,491
830.208862,483
830.327209,505
830.445557,478
830.563904,479
830.682312,482
830.800659,482
830.919006,486
831.037354,495
831.155701,515
831.274048,513
831.392395,523
831.51062,502
831.629028,508
831.747314,489
831.865662,492
831.984009,490
832.102356,497
832.220642,492
832.338928,506
832.457275,492
832.575623,516
832.693909,492
832.812134,502
832.930481,517
833.048828,499
833.167114,494
833.2854,469
833.403687,518
833.521973,487
833.640259,493
833.758545,475
833.876831,486
833.995056,478
834.113281,517
834.231628,513
834.349915,507
834.468201,487
834.586426,482
834.704651,482
834.822998,476
834.941162,508
835.059448,482
835.177673,494
835.295959,497
835.414246,492
835.53241,500
835.650635,488
835.768921,485
835.887146,485
836.005371,480
836.123596,465
836.241821,486
836.360046,483
836.478271,475
836.596497,478
836.714722,472
836.832886,481
836.95105,479
837.069336,496
837.1875,470
837.305725,490
837.423889,492
837.542053,507
837.660339,486
837.778503,501
837.896667,496
838.014832,489
838.132996,501
838.25116,502
838.369385,496
838.487488,499
838.605713,486
838.723877,487
838.84198,513
838.960205,483
839.078308,483
839.196472,512
839.314636,489
839.4328,513
839.550964,492
839.669067,518
839.787231,489
839.905396,494
840.023499,502
840.141602,503
840.259766,512
840.377869,502
840.495972,502
840.614136,514
840.732239,513
840.850342,519
840.968445,522
841.086548,517
841.204651,513
841.322754,517
841.440918,544
841.55896,504
841.677002,535
841.795166,517
841.913208,564
842.031311,539
842.149353,535
842.267456,514
842.385498,527
842.503601,512
842.621643,529
842.739746,525
842.857788,545
842.97583,525
843.093933,541
843.211975,545
843.330017,529
843.44812,527
843.566101,523
843.684204,532
843.802246,518
843.920227,531
844.038269,531
844.156311,514
844.274292,511
844.392395,519
844.510376,542
844.628357,508
844.74646,519
844.864441,519
844.982422,510
845.100403,530
845.218384,517
845.336426,504
845.454468,513
845.572449,493
845.69043,488
845.808411,504
845.926453,492
846.044373,512
846.162354,515
846.280396,535
846.398315,535
846.516296,512
846.634216,501
846.752197,537
846.870178,538
846.988098,518
847.106079,536
847.22406,499
847.34198,528
847.4599,523
847.577881,511
847.695801,521
847.813782,512
847.931641,492
848.049561,520
848.167603,513
848.285461,529
848.403381,519
848.521362,521
848.639221,508
848.75708,516
848.875,505
848.99292,530
849.110901,545
849.22876,523
849.34668,514
849.464539,523
849.582458,498
849.700317,533
849.818176,541
849.936096,509
850.053955,514
850.171875,542
850.289673,508
850.407593,522
850.525452,510
850.643311,529
850.761169,514
850.878967,506
850.996887,493
851.114746,505
851.232544,508
851.350403,521
851.468262,496
851.58606,519
851.703979,500
851.821777,517
851.939636,504
852.057434,520
852.175232,508
852.293091,518
852.410889,516
852.528687,526
852.646545,529
852.764343,540
852.88208,512
852.999939,530
853.117676,521
853.235535,520
853.353271,518
853.471069,524
853.588928,517
853.706604,515
853.824402,526
853.9422,509
854.059998,526
854.177734,514
854.295532,532
854.413269,524
854.531006,512
854.648804,532
854.766541,509
854.884277,514
855.002014,517
855.119751,518
855.237549,530
855.355225,504
855.473022,510
855.590698,539
855.708435,524
855.826172,540
855.943848,514
856.061646,527
856.179321,514
856.296997,537
856.414795,525
856.53241,520
856.650085,530
856.767822,537
856.885559,519
857.003174,550
857.120911,554
857.238586,548
857.356201,547
857.473938,535
857.591614,526
857.709351,548
857.826965,530
857.944641,529
858.062317,521
858.179993,538
858.297668,537
858.415283,525
858.532959,493
858.650574,527
858.768188,527
858.885803,565
859.003479,552
859.121094,546
859.23877,531
859.356384,511
859.473999,535
859.591675,546
859.709229,537
859.826843,525
859.944458,493
860.062012,514
860.179626,524
860.297302,522
860.414856,501
860.532471,519
860.650024,522
860.767639,503
860.885193,496
861.002808,531
861.120361,502
861.237976,528
861.35553,530
861.473022,522
861.590698,524
861.708191,533
861.825745,532
861.943298,512
862.060852,502
862.178406,514
862.295959,507
862.413513,497
862.531006,495
862.64856,494
862.766113,495
862.883667,523
863.00116,477
863.118713,485
863.236206,510
863.353699,493
863.471252,491
863.588745,512
863.706177,509
863.82373,508
863.941162,503
864.058716,511
864.176208,503
864.29364,510
864.411194,493
864.528687,493
864.646118,486
864.763611,492
864.881042,491
864.998535,504
865.116028,499
865.233459,500
865.350891,490
865.468384,501
865.585754,493
865.703308,488
865.820679,476
865.938171,498
866.055542,494
866.173035,509
866.290466,492
866.407837,506
866.52533,495
866.6427,495
866.760071,494
866.877563,499
866.994934,513
867.112305,519
867.229736,481
867.347107,514
867.464539,496
867.58197,502
867.699341,484
867.81665,513
867.934082,506
868.051453,516
868.168823,505
868.286194,523
868.403564,488
868.520935,482
868.638306,498
868.755676,517
868.872986,500
868.990295,496
869.107727,503
869.225037,513
869.342346,518
869.459717,499
869.577026,507
869.694336,522
869.811707,493
869.929016,509
870.046326,517
870.163635,514
870.280945,524
870.398254,523
870.515564,528
870.632812,513
870.750183,522
870.867432,541
870.984741,510
871.102051,508
871.219299,526
871.336609,532
871.453918,519
871.571106,520
871.688416,535
871.805664,539
871.922852,549
872.040222,539
872.157471,549
872.274719,542
872.391968,529
872.509155,557
872.626465,536
872.743652,539
872.860962,538
872.978149,527
873.095337,544
873.212646,541
873.329834,539
873.44696,532
873.564209,528
873.681396,541
873.798645,517
873.915894,519
874.03302,521
874.150208,526
874.267456,528
874.384583,550
874.501831,530
874.618958,544
874.736145,549
874.853333,555
874.970459,550
875.087646,550
875.204834,553
875.32196,540
875.439148,553
875.556274,546
875.673401,527
875.790527,526
875.907715,533
876.024841,527
876.141968,520
876.259094,525
876.376282,532
876.493347,523
876.610474,513
876.7276,518
876.844727,514
876.961853,499
877.078918,515
877.195984,512
877.313171,507
877.430237,514
877.547302,488
877.664368,503
877.781433,500
877.898499,500
878.015625,498
878.13269,516
878.249695,517
878.366821,521
878.483887,508
878.600952,510
878.717957,515
878.834961,494
878.952087,496
879.069092,486
879.186157,511
879.303162,498
879.420227,514
879.537231,488
879.654236,511
879.77124,480
879.888306,500
880.005249,500
880.122314,487
880.239319,497
880.356323,475
880.473328,500
880.590271,490
880.707275,490
880.824341,484
880.941284,474
881.058228,485
881.175232,492
881.292236,488
881.40918,484
881.526123,497
881.643066,495
881.760071,491
881.877014,488
881.993958,485
882.11084,486
882.227783,490
882.344727,488
882.46167,483
882.578613,462
882.695618,476
882.812439,504
882.929382,504
883.046326,487
883.163208,491
883.280151,465
883.397034,483
883.513916,502
883.630798,510
883.747742,512
883.864563,498
883.981506,496
884.098389,505
884.21521,511
884.332153,514
884.448975,510
884.565796,511
884.682678,547
884.7995,530
884.916443,535
885.033264,579
885.150085,598
885.266968,576
885.383789,615
885.500671,600
885.617493,629
885.734314,597
885.851196,600
885.967896,578
886.084717,606
886.201599,597
886.318359,597
886.435181,588
886.552002,592
886.668762,571
886.785645,581
886.902344,577
887.019165,583
887.135925,572
887.252747,548
887.369446,595
887.486267,548
887.603027,547
887.719788,537
887.836548,540
887.953247,536
888.070068,516
888.186829,513
888.303528,521
888.420288,506
888.536987,508
888.653687,490
888.770447,476
888.887146,486
889.003967,491
889.120667,490
889.237305,471
889.354065,469
889.470703,480
889.587463,473
889.704163,461
889.820862,465
889.937561,475
890.054199,451
890.170837,471
890.287598,470
890.404236,477
890.520874,469
890.637634,471
890.754211,487
890.87085,486
890.987549,488
891.104187,469
891.220886,475
891.337463,476
891.454102,469
891.57074,487
891.687378,461
891.804077,468
891.920654,481
892.037231,477
892.15387,473
892.270447,479
892.387085,473
892.503723,487
892.6203,488
892.736877,462
892.853516,491
892.970032,470
893.08667,490
893.203186,460
893.319763,484
893.43634,498
893.552917,460
893.669556,458
893.786011,482
893.902588,470
894.019165,465
894.135681,467
894.252197,486
894.368835,466
894.485291,483
894.601868,462
894.718384,489
894.8349,471
894.951355,479
895.067932,465
895.184448,464
895.300964,475
895.417419,469
895.533936,465
895.650452,479
895.766907,479
895.883423,485
895.999878,471
896.116333,464
896.232849,449
896.349304,466
896.465759,474
896.582214,482
896.698669,464
896.815125,478
896.931641,481
897.048035,495
897.164551,475
897.280884,477
897.397339,467
897.513794,495
897.630249,477
897.746582,475
897.863098,476
897.979431,467
898.095886,476
898.212341,484
898.328674,460
898.445129,469
898.561462,491
898.677795,484
898.794312,467
898.910645,484
899.026978,460
899.143433,473
899.259766,476
899.37616,487
899.492493,482
899.608765,466
899.725159,467
899.841553,454
899.957947,463
900.07428,486
900.190552,489
900.306946,466
900.423157,461
900.53949,478
900.655884,467
900.772156,492
900.888489,487
901.004822,463
901.121033,479
901.237366,486
901.353699,478
901.46991,490
901.586304,491
901.702515,508
901.818787,487
901.93512,496
902.051331,507
902.167603,520
902.283875,517
902.400085,525
902.516418,516
902.632629,530
902.74884,537
902.865112,544
902.981384,532
903.097595,563
903.213867,525
903.330017,526
903.446289,506
903.5625,546
903.67865,516
903.794922,539
903.911072,533
904.027344,512
904.143494,497
904.259705,506
904.375916,497
904.492065,517
904.608215,495
904.724426,509
904.840576,482
904.956726,486
905.072876,482
905.189087,501
905.305176,466
905.421387,488
905.537537,462
905.653687,498
905.769775,488
905.885925,491
906.002014,480
906.118164,484
906.234314,482
906.350403,455
906.466492,475
906.582642,486
906.69873,468
906.814758,472
906.930908,481
907.046936,477
907.163086,462
907.279175,479
907.395264,487
907.511353,474
907.62738,469
907.743408,470
907.859497,481
907.975525,487
908.091553,473
908.207703,474
908.32373,481
908.439758,479
908.555786,477
908.671814,480
908.787842,480
908.90387,479
909.019775,464
909.135864,476
909.251892,477
909.367859,478
909.483826,474
909.599854,477
909.715881,469
909.831848,477
909.947815,481
910.063782,482
910.179749,476
910.295776,482
910.411743,478
910.527649,495
910.643616,477
910.759583,472
910.875488,482
910.991455,475
911.107361,459
911.223267,498
911.339294,468
911.4552,471
911.571106,479
911.687073,467
911.802979,450
911.918823,459
912.034729,484
912.150635,488
912.266602,467
912.382446,478
912.498352,466
912.614197,455
912.730103,467
912.846008,464
