792.44574,659
792.56488,688
792.68396,745
792.80304,680
792.92218,639
793.041199,640
793.160339,642
793.279419,666
793.398499,643
793.517578,630
793.636658,639
793.755737,659
793.874817,638
793.993896,642
794.112976,636
794.232056,631
794.351074,613
794.470215,642
794.589233,637
794.708313,623
794.827393,608
794.946411,607
795.065552,603
795.18457,625
795.303589,600
795.422668,598
795.541687,629
795.660767,619
795.779846,611
795.898865,586
796.017883,605
796.136963,579
796.255981,605
796.375061,582
796.49408,579
796.613037,586
796.732117,590
796.851135,579
796.970154,608
797.089233,572
797.208191,627
797.327271,601
797.446228,615
797.565186,598
797.684265,603
797.803223,564
797.922241,583
798.04126,572
798.160278,589
798.279297,587
798.398315,577
798.517273,588
798.636292,578
798.75531,594
798.874268,569
798.993286,584
799.112244,603
799.231323,556
799.350281,587
799.469238,576
799.588257,578
799.707153,574
799.826111,578
799.945129,564
800.064087,595
800.183044,582
800.302063,582
800.421021,581
800.539978,579
800.658936,579
800.777893,596
800.896912,571
801.015747,584
801.134705,575
801.253723,581
801.37262,593
801.491638,577
801.610535,598
801.729492,574
801.84845,587
801.967407,587
802.086243,561
802.205261,591
802.324158,570
802.443115,618
802.562073,587
802.680969,608
802.799927,590
802.918762,592
803.037659,578
803.156677,565
803.275574,581
803.39447,587
803.513428,590
803.632263,594
803.751221,570
803.870117,608
803.989014,589
804.107971,604
804.226746,604
804.345642,593
804.4646,588
804.583496,588
804.702393,594
804.821228,577
804.940125,567
805.059021,594
805.177917,601
805.296814,601
805.415649,612
805.534546,618
805.653442,594
805.772278,621
805.891113,598
806.01001,618
806.128906,608
806.247742,604
806.366577,571
806.485413,614
806.604309,627
806.723145,603
806.84198,586
806.960876,577
807.079712,615
807.198486,585
807.317383,568
807.436218,566
807.554993,609
807.673889,600
807.792725,588
807.91156,608
808.030396,605
808.14917,601
808.268005,614
808.386841,598
808.505676,608
808.624451,632
808.743286,610
808.862122,624
808.980896,580
809.099731,646
809.218506,590
809.337341,609
809.456116,622
809.57489,583
809.693726,617
809.8125,601
809.931274,610
810.050049,628
810.168884,595
810.287659,602
810.406372,599
810.525269,598
810.643982,622
810.762756,617
810.881531,576
811.000305,609
811.11908,587
811.237854,619
811.356567,603
811.475403,589
811.594116,628
811.71283,605
811.831604,618
811.950378,625
812.069153,594
812.187927,640
812.30658,586
812.425415,607
812.544128,635
812.662781,616
812.781616,589
812.900269,621
813.019043,619
813.137756,618
813.256531,626
813.375244,604
813.493896,609
813.612671,611
813.731384,601
813.850037,604
813.96875,609
814.087524,622
814.206238,594
814.324951,623
814.443604,601
814.562256,575
814.68103,628
814.799683,610
814.918335,651
815.037109,608
815.155762,603
815.274475,620
815.393188,589
815.511841,589
815.630554,597
815.749146,588
815.867859,588
815.986572,603
816.105164,588
816.223877,620
816.342529,593
816.461182,592
816.579895,588
816.698486,610
816.817139,596
816.935791,593
817.054504,609
817.173096,609
817.291748,590
817.4104,578
817.529053,575
817.647644,578
817.766235,580
817.884949,557
818.00354,546
818.122192,552
818.240845,573
818.359436,536
818.478088,561
818.59668,544
818.715271,528
818.833923,533
818.952515,526
819.071106,534
819.189758,514
819.30835,502
819.426941,496
819.545532,502
819.664124,497
819.782715,504
819.901306,486
820.019897,500
820.138489,516
820.25708,497
820.375671,478
820.494202,507
820.612732,490
820.731384,505
820.849915,493
820.968506,501
821.087097,477
821.205627,492
821.324158,505
821.442749,498
821.561279,492
821.679871,492
821.798401,473
821.916931,488
822.035461,478
822.154053,482
822.272583,480
822.391174,462
822.509583,500
822.628174,469
822.746704,468
822.865234,477
822.983765,471
823.102295,468
823.220825,484
823.339294,497
823.457825,476
823.576355,459
823.694824,471
823.813354,486
823.931885,470
824.050354,478
824.168884,483
824.287354,478
824.405823,490
824.524353,489
824.642822,469
824.761353,483
824.879822,480
824.998291,481
825.116699,474
825.235291,489
825.353699,481
825.472168,498
825.590637,472
825.709106,495
825.827576,468
825.946045,471
826.064453,467
826.182983,480
826.301392,477
826.4198,481
826.53833,476
826.656738,471
826.775208,459
826.893677,483
827.012024,451
827.130493,476
827.248962,463
827.36731,474
827.485779,448
827.604248,465
827.722595,458
827.841064,479
827.959412,470
828.077942,474
828.196289,460
828.314636,457
828.433105,461
828.551514,463
828.669861,446
828.78833,456
828.906677,471
829.025085,459
829.143433,476
829.261841,462
829.38031,458
829.498657,456
829.617004,439
829.735413,467
829.85376,451
829.972107,462
830.090515,463
830.208862,466
830.327209,458
830.445557,448
830.563904,456
830.682312,451
830.800659,453
830.919006,447
831.037354,443
831.155701,463
831.274048,458
831.392395,461
831.51062,454
831.629028,470
831.747314,473
831.865662,471
831.984009,459
832.102356,459
832.220642,447
832.338928,445
832.457275,458
832.575623,469
832.693909,466
832.812134,441
832.930481,459
833.048828,478
833.167114,475
833.2854,453
833.403687,460
833.521973,446
833.640259,455
833.758545,441
833.876831,475
833.995056,454
834.113281,461
834.231628,475
834.349915,456
834.468201,457
834.586426,453
834.704651,454
834.822998,456
834.941162,451
835.059448,460
835.177673,464
835.295959,453
835.414246,464
835.53241,459
835.650635,473
835.768921,467
835.887146,441
836.005371,462
836.123596,481
836.241821,452
836.360046,459
836.478271,483
836.596497,462
836.714722,468
836.832886,474
836.95105,469
837.069336,473
837.1875,469
837.305725,471
837.423889,465
837.542053,472
837.660339,477
837.778503,471
837.896667,477
838.014832,480
838.132996,447
838.25116,468
838.369385,474
838.487488,470
838.605713,491
838.723877,476
838.84198,473
838.960205,489
839.078308,492
839.196472,476
839.314636,490
839.4328,467
839.550964,462
839.669067,475
839.787231,472
839.905396,457
840.023499,480
840.141602,468
840.259766,470
840.377869,471
840.495972,472
840.614136,471
840.732239,471
840.850342,462
840.968445,467
841.086548,463
841.204651,460
841.322754,484
841.440918,456
841.55896,488
841.677002,475
841.795166,457
841.913208,446
842.031311,462
842.149353,478
842.267456,458
842.385498,459
842.503601,481
842.621643,458
842.739746,458
842.857788,453
842.97583,461
843.093933,467
843.211975,461
843.330017,437
843.44812,456
843.566101,448
843.684204,444
843.802246,451
843.920227,466
844.038269,458
844.156311,455
844.274292,437
844.392395,479
844.510376,454
844.628357,466
844.74646,468
844.864441,448
844.982422,458
845.100403,456
845.218384,443
845.336426,451
845.454468,440
845.572449,471
845.69043,455
845.808411,445
845.926453,449
846.044373,479
846.162354,449
846.280396,472
846.398315,452
846.516296,441
846.634216,458
846.752197,447
846.870178,474
846.988098,443
847.106079,440
847.22406,448
847.34198,441
847.4599,445
847.577881,456
847.695801,487
847.813782,434
847.931641,466
848.049561,441
848.167603,444
848.285461,458
848.403381,455
848.521362,465
848.639221,453
848.75708,449
848.875,454
848.99292,461
849.110901,451
849.22876,461
849.34668,447
849.464539,447
849.582458,469
849.700317,477
849.818176,467
849.936096,451
850.053955,464
850.171875,439
850.289673,468
850.407593,430
850.525452,466
850.643311,450
850.761169,456
850.878967,455
850.996887,459
851.114746,416
851.232544,466
851.350403,433
851.468262,449
851.58606,459
851.703979,471
851.821777,435
851.939636,467
852.057434,459
852.175232,466
852.293091,454
852.410889,473
852.528687,465
852.646545,459
852.764343,468
852.88208,445
852.999939,454
853.117676,466
853.235535,456
853.353271,442
853.471069,440
853.588928,441
853.706604,457
853.824402,447
853.9422,468
854.059998,454
854.177734,453
854.295532,457
854.413269,449
854.531006,467
854.648804,463
854.766541,472
854.884277,454
855.002014,450
855.119751,464
855.237549,466
855.355225,441
855.473022,460
855.590698,448
855.708435,460
855.826172,459
855.943848,476
856.061646,459
856.179321,441
856.296997,458
856.414795,474
856.53241,454
856.650085,460
856.767822,456
856.885559,458
857.003174,460
857.120911,461
857.238586,470
857.356201,468
857.473938,462
857.591614,459
857.709351,460
857.826965,456
857.944641,461
858.062317,466
858.179993,442
858.297668,447
858.415283,470
858.532959,471
858.650574,483
858.768188,461
858.885803,443
859.003479,453
859.121094,467
859.23877,462
859.356384,462
859.473999,455
859.591675,434
859.709229,467
859.826843,447
859.944458,463
860.062012,458
860.179626,454
860.297302,450
860.414856,460
860.532471,471
860.650024,461
860.767639,478
860.885193,485
861.002808,445
861.120361,450
861.237976,453
861.35553,454
861.473022,444
861.590698,461
861.708191,442
861.825745,452
861.943298,466
862.060852,470
862.178406,474
862.295959,453
862.413513,456
862.531006,441
862.64856,454
862.766113,444
862.883667,428
863.00116,467
863.118713,461
863.236206,459
863.353699,445
863.471252,447
863.588745,452
863.706177,460
863.82373,464
863.941162,468
864.058716,449
864.176208,445
864.29364,441
864.411194,454
864.528687,448
864.646118,455
864.763611,454
864.881042,460
864.998535,449
865.116028,447
865.233459,452
865.350891,468
865.468384,449
865.585754,457
865.703308,450
865.820679,453
865.938171,441
866.055542,462
866.173035,444
866.290466,464
866.407837,461
866.52533,460
866.6427,427
866.760071,470
866.877563,440
866.994934,454
867.112305,446
867.229736,455
867.347107,459
867.464539,458
867.58197,459
867.699341,473
867.81665,437
867.934082,438
868.051453,453
868.168823,448
868.286194,469
868.403564,463
868.520935,453
868.638306,451
868.755676,446
868.872986,441
868.990295,467
869.107727,473
869.225037,453
869.342346,441
869.459717,440
869.577026,451
869.694336,447
869.811707,467
869.929016,445
870.046326,474
870.163635,455
870.280945,460
870.398254,441
870.515564,451
870.632812,445
870.750183,456
870.867432,464
870.984741,444
871.102051,439
871.219299,459
871.336609,455
871.453918,450
871.571106,457
871.688416,450
871.805664,449
871.922852,447
872.040222,458
872.157471,458
872.274719,451
872.391968,472
872.509155,443
872.626465,467
872.743652,458
872.860962,450
872.978149,443
873.095337,448
873.212646,460
873.329834,462
873.44696,478
873.564209,444
873.681396,464
873.798645,456
873.915894,471
874.03302,480
874.150208,463
874.267456,468
874.384583,445
874.501831,476
874.618958,468
874.736145,464
874.853333,472
874.970459,455
875.087646,465
875.204834,453
875.32196,453
875.439148,459
875.556274,454
875.673401,470
875.790527,447
875.907715,465
876.024841,451
876.141968,455
876.259094,451
876.376282,461
876.493347,456
876.610474,439
876.7276,449
876.844727,469
876.961853,452
877.078918,447
877.195984,440
877.313171,454
877.430237,447
877.547302,457
877.664368,441
877.781433,460
877.898499,450
878.015625,459
878.13269,474
878.249695,479
878.366821,424
878.483887,454
878.600952,444
878.717957,467
878.834961,464
878.952087,470
879.069092,440
879.186157,473
879.303162,451
879.420227,467
879.537231,458
879.654236,462
879.77124,448
879.888306,464
880.005249,445
880.122314,441
880.239319,441
880.356323,462
880.473328,465
880.590271,466
880.707275,456
880.824341,467
880.941284,445
881.058228,453
881.175232,446
881.292236,446
881.40918,446
881.526123,442
881.643066,456
881.760071,447
881.877014,440
881.993958,449
882.11084,447
882.227783,446
882.344727,442
882.46167,468
882.578613,457
882.695618,453
882.812439,439
882.929382,453
883.046326,449
883.163208,477
883.280151,458
883.397034,448
883.513916,443
883.630798,455
883.747742,459
883.864563,451
883.981506,453
884.098389,460
884.21521,446
884.332153,461
884.448975,460
884.565796,469
884.682678,451
884.7995,469
884.916443,464
885.033264,464
885.150085,462
885.266968,491
885.383789,477
885.500671,494
885.617493,472
885.734314,505
885.851196,471
885.967896,463
886.084717,492
886.201599,482
886.318359,479
886.435181,465
886.552002,435
886.668762,460
886.785645,451
886.902344,469
887.019165,479
887.135925,467
887.252747,473
887.369446,477
887.486267,463
887.603027,479
887.719788,456
887.836548,456
887.953247,466
888.070068,466
888.186829,441
888.303528,474
888.420288,446
888.536987,466
888.653687,455
888.770447,470
888.887146,458
889.003967,465
889.120667,449
889.237305,455
889.354065,453
889.470703,454
889.587463,448
889.704163,468
889.820862,451
889.937561,480
890.054199,458
890.170837,444
890.287598,464
890.404236,439
890.520874,454
890.637634,456
890.754211,460
890.87085,456
890.987549,462
891.104187,462
891.220886,465
891.337463,453
891.454102,461
891.57074,457
891.687378,456
891.804077,464
891.920654,460
892.037231,470
892.15387,447
892.270447,466
892.387085,457
892.503723,460
892.6203,460
892.736877,461
892.853516,463
892.970032,475
893.08667,446
893.203186,452
893.319763,454
893.43634,457
893.552917,448
893.669556,454
893.786011,448
893.902588,450
894.019165,454
894.135681,463
894.252197,449
894.368835,473
894.485291,471
894.601868,474
894.718384,453
894.8349,469
894.951355,439
895.067932,458
895.184448,460
895.300964,464
895.417419,459
895.533936,435
895.650452,459
895.766907,463
895.883423,465
895.999878,457
896.116333,467
896.232849,443
896.349304,439
896.465759,473
896.582214,460
896.698669,448
896.815125,461
896.931641,449
897.048035,449
897.164551,485
897.280884,443
897.397339,459
897.513794,441
897.630249,456
897.746582,477
897.863098,463
897.979431,452
898.095886,453
898.212341,455
898.328674,448
898.445129,444
898.561462,472
898.677795,437
898.794312,474
898.910645,463
899.026978,452
899.143433,452
899.259766,451
899.37616,449
899.492493,468
899.608765,458
899.725159,437
899.841553,457
899.957947,456
900.07428,439
900.190552,464
900.306946,467
900.423157,446
900.53949,447
900.655884,472
900.772156,467
900.888489,459
901.004822,447
901.121033,451
901.237366,455
901.353699,453
901.46991,458
901.586304,463
901.702515,476
901.818787,451
901.93512,459
902.051331,489
902.167603,463
902.283875,456
902.400085,474
902.516418,480
902.632629,466
902.74884,480
902.865112,487
902.981384,474
903.097595,461
903.213867,472
903.330017,492
903.446289,471
903.5625,485
903.67865,479
903.794922,469
903.911072,478
904.027344,479
904.143494,474
904.259705,448
904.375916,452
904.492065,490
904.608215,500
904.724426,466
904.840576,475
904.956726,457
905.072876,456
905.189087,440
905.305176,482
905.421387,454
905.537537,463
905.653687,446
905.769775,461
905.885925,466
906.002014,457
906.118164,469
906.234314,465
906.350403,457
906.466492,457
906.582642,447
906.69873,463
906.814758,458
906.930908,460
907.046936,444
907.163086,453
907.279175,465
907.395264,458
907.511353,451
907.62738,485
907.743408,458
907.859497,456
907.975525,473
908.091553,461
908.207703,466
908.32373,466
908.439758,459
908.555786,474
908.671814,473
908.787842,468
908.90387,448
909.019775,455
909.135864,472
909.251892,478
909.367859,464
909.483826,475
909.599854,459
909.715881,474
909.831848,461
909.947815,439
910.063782,477
910.179749,461
910.295776,470
910.411743,464
910.527649,470
910.643616,475
910.759583,464
910.875488,478
910.991455,469
911.107361,464
911.223267,454
911.339294,446
911.4552,466
911.571106,463
911.687073,460
911.802979,460
911.918823,449
912.034729,468
912.150635,463
912.266602,473
912.382446,461
912.498352,473
912.614197,483
912.730103,462
912.846008,458
792.44574,683
792.56488,704
792.68396,760
792.80304,719
792.92218,653
793.041199,636
793.160339,665
793.279419,688
793.398499,679
793.517578,643
793.636658,648
793.755737,671
793.874817,658
793.993896,651
794.112976,621
794.232056,612
794.351074,629
794.470215,642
794.589233,635
794.708313,625
794.827393,616
794.946411,617
795.065552,645
795.18457,622
795.303589,613
795.422668,615
795.541687,608
795.660767,589
795.779846,620
795.898865,597
796.017883,594
796.136963,607
796.255981,604
796.375061,619
796.49408,620
796.613037,595
796.732117,603
796.851135,598
796.970154,572
797.089233,577
797.208191,575
797.327271,571
797.446228,596
797.565186,586
797.684265,591
797.803223,593
797.922241,584
798.04126,594
798.160278,578
798.279297,582
798.398315,565
798.517273,562
798.636292,597
798.75531,584
798.874268,578
798.993286,580
799.112244,590
799.231323,600
799.350281,582
799.469238,577
799.588257,587
799.707153,607
799.826111,578
799.945129,594
800.064087,577
800.183044,557
800.302063,575
800.421021,582
800.539978,574
800.658936,570
800.777893,588
800.896912,580
801.015747,561
801.134705,538
801.253723,583
801.37262,571
801.491638,552
801.610535,588
801.729492,576
801.84845,592
801.967407,585
802.086243,575
802.205261,585
802.324158,573
802.443115,568
802.562073,568
802.680969,586
802.799927,586
802.918762,587
803.037659,625
803.156677,580
803.275574,604
803.39447,590
803.513428,601
803.632263,574
803.751221,619
803.870117,590
803.989014,604
804.107971,615
804.226746,573
804.345642,589
804.4646,586
804.583496,596
804.702393,598
804.821228,623
804.940125,581
805.059021,586
805.177917,584
805.296814,595
805.415649,595
805.534546,599
805.653442,598
805.772278,581
805.891113,596
806.01001,609
806.128906,604
806.247742,599
806.366577,597
806.485413,594
806.604309,603
806.723145,586
806.84198,582
806.960876,619
807.079712,612
807.198486,593
807.317383,583
807.436218,589
807.554993,612
807.673889,600
807.792725,621
807.91156,595
808.030396,599
808.14917,597
808.268005,617
808.386841,596
808.505676,610
808.624451,588
808.743286,600
808.862122,601
808.980896,592
809.099731,591
809.218506,599
809.337341,611
809.456116,630
809.57489,609
809.693726,613
809.8125,608
809.931274,622
810.050049,623
810.168884,612
810.287659,591
810.406372,632
810.525269,612
810.643982,604
810.762756,597
810.881531,597
811.000305,611
811.11908,624
811.237854,609
811.356567,635
811.475403,616
811.594116,621
811.71283,620
811.831604,629
811.950378,598
812.069153,619
812.187927,606
812.30658,618
812.425415,605
812.544128,621
812.662781,614
812.781616,615
812.900269,609
813.019043,645
813.137756,627
813.256531,607
813.375244,626
813.493896,624
813.612671,626
813.731384,607
813.850037,611
813.96875,596
814.087524,622
814.206238,610
814.324951,604
814.443604,623
814.562256,598
814.68103,598
814.799683,607
814.918335,614
815.037109,596
815.155762,610
815.274475,607
815.393188,618
815.511841,600
815.630554,599
815.749146,587
815.867859,597
815.986572,593
816.105164,594
816.223877,603
816.342529,571
816.461182,605
816.579895,602
816.698486,611
816.817139,597
816.935791,588
817.054504,602
817.173096,587
817.291748,587
817.4104,582
817.529053,593
817.647644,588
817.766235,565
817.884949,571
818.00354,557
818.122192,554
818.240845,551
818.359436,548
818.478088,533
818.59668,518
818.715271,507
818.833923,519
818.952515,535
819.071106,506
819.189758,495
819.30835,510
819.426941,510
819.545532,497
819.664124,499
819.782715,512
819.901306,505
820.019897,512
820.138489,504
820.25708,488
820.375671,494
820.494202,491
820.612732,480
820.731384,490
820.849915,507
820.968506,486
821.087097,504
821.205627,506
821.324158,487
821.442749,501
821.561279,476
821.679871,481
821.798401,490
821.916931,493
822.035461,478
822.154053,492
822.272583,482
822.391174,458
822.509583,478
822.628174,480
822.746704,480
822.865234,484
822.983765,493
823.102295,502
823.220825,476
823.339294,478
823.457825,473
823.576355,488
823.694824,495
823.813354,489
823.931885,472
824.050354,479
824.168884,492
824.287354,497
824.405823,484
824.524353,490
824.642822,487
824.761353,512
824.879822,460
824.998291,485
825.116699,494
825.235291,470
825.353699,490
825.472168,484
825.590637,463
825.709106,499
825.827576,453
825.946045,483
826.064453,453
826.182983,471
826.301392,472
826.4198,477
826.53833,480
826.656738,460
826.775208,501
826.893677,473
827.012024,472
827.130493,452
827.248962,488
827.36731,448
827.485779,466
827.604248,476
827.722595,452
827.841064,462
827.959412,453
828.077942,476
828.196289,436
828.314636,454
828.433105,481
828.551514,460
828.669861,460
828.78833,479
828.906677,451
829.025085,456
829.143433,465
829.261841,474
829.38031,466
829.498657,458
829.617004,474
829.735413,436
829.85376,450
829.972107,466
830.090515,443
830.208862,466
830.327209,475
830.445557,447
830.563904,449
830.682312,454
830.800659,473
830.919006,459
831.037354,455
831.155701,474
831.274048,456
831.392395,460
831.51062,463
831.629028,461
831.747314,459
831.865662,463
831.984009,470
832.102356,470
832.220642,461
832.338928,460
832.457275,445
832.575623,481
832.693909,470
832.812134,463
832.930481,463
833.048828,468
833.167114,463
833.2854,440
833.403687,461
833.521973,450
833.640259,461
833.758545,442
833.876831,471
833.995056,469
834.113281,487
834.231628,459
834.349915,465
834.468201,454
834.586426,466
834.704651,453
834.822998,495
834.941162,460
835.059448,449
835.177673,438
835.295959,472
835.414246,457
835.53241,470
835.650635,458
835.768921,459
835.887146,455
836.005371,463
836.123596,457
836.241821,468
836.360046,476
836.478271,481
836.596497,462
836.714722,491
836.832886,464
836.95105,469
837.069336,483
837.1875,471
837.305725,447
837.423889,476
837.542053,465
837.660339,476
837.778503,458
837.896667,476
838.014832,485
838.132996,468
838.25116,473
838.369385,465
838.487488,487
838.605713,484
838.723877,473
838.84198,479
838.960205,474
839.078308,480
839.196472,475
839.314636,470
839.4328,477
839.550964,456
839.669067,475
839.787231,457
839.905396,471
840.023499,469
840.141602,483
840.259766,475
840.377869,457
840.495972,485
840.614136,459
840.732239,474
840.850342,468
840.968445,477
841.086548,461
841.204651,463
841.322754,466
841.440918,465
841.55896,465
841.677002,468
841.795166,455
841.913208,471
842.031311,474
842.149353,470
842.267456,446
842.385498,469
842.503601,483
842.621643,462
842.739746,459
842.857788,452
842.97583,476
843.093933,450
843.211975,470
843.330017,484
843.44812,466
843.566101,460
843.684204,462
843.802246,466
843.920227,454
844.038269,464
844.156311,438
844.274292,485
844.392395,469
844.510376,459
844.628357,462
844.74646,472
844.864441,441
844.982422,453
845.100403,462
845.218384,449
845.336426,457
845.454468,462
845.572449,470
845.69043,458
845.808411,456
845.926453,464
846.044373,446
846.162354,467
846.280396,450
846.398315,472
846.516296,475
846.634216,468
846.752197,475
846.870178,463
846.988098,449
847.106079,458
847.22406,460
847.34198,465
847.4599,456
847.577881,448
847.695801,452
847.813782,475
847.931641,457
848.049561,460
848.167603,449
848.285461,462
848.403381,454
848.521362,452
848.639221,481
848.75708,456
848.875,462
848.99292,470
849.110901,459
849.22876,462
849.34668,467
849.464539,450
849.582458,470
849.700317,465
849.818176,460
849.936096,460
850.053955,474
850.171875,460
850.289673,454
850.407593,461
850.525452,459
850.643311,449
850.761169,461
850.878967,442
850.996887,450
851.114746,459
851.232544,456
851.350403,438
851.468262,459
851.58606,455
851.703979,445
851.821777,452
851.939636,458
852.057434,467
852.175232,452
852.293091,453
852.410889,470
852.528687,463
852.646545,476
852.764343,453
852.88208,463
852.999939,452
853.117676,452
853.235535,463
853.353271,464
853.471069,449
853.588928,459
853.706604,457
853.824402,474
853.9422,460
854.059998,449
854.177734,458
854.295532,461
854.413269,473
854.531006,444
854.648804,446
854.766541,457
854.884277,474
855.002014,450
855.119751,458
855.237549,461
855.355225,450
855.473022,450
855.590698,456
855.708435,466
855.826172,463
855.943848,470
856.061646,467
856.179321,450
856.296997,454
856.414795,455
856.53241,467
856.650085,456
856.767822,476
856.885559,469
857.003174,468
857.120911,481
857.238586,466
857.356201,460
857.473938,475
857.591614,476
857.709351,472
857.826965,448
857.944641,469
858.062317,466
858.179993,459
858.297668,455
858.415283,463
858.532959,489
858.650574,446
858.768188,455
858.885803,455
859.003479,466
859.121094,473
859.23877,453
859.356384,461
859.473999,483
859.591675,475
859.709229,479
859.826843,455
859.944458,458
860.062012,450
860.179626,480
860.297302,466
860.414856,465
860.532471,460
860.650024,465
860.767639,441
860.885193,455
861.002808,458
861.120361,448
861.237976,458
861.35553,477
861.473022,465
861.590698,434
861.708191,456
861.825745,476
861.943298,455
862.060852,452
862.178406,462
862.295959,461
862.413513,435
862.531006,453
862.64856,470
862.766113,472
862.883667,441
863.00116,453
863.118713,468
863.236206,473
863.353699,457
863.471252,447
863.588745,447
863.706177,460
863.82373,457
863.941162,480
864.058716,461
864.176208,471
864.29364,460
864.411194,461
864.528687,454
864.646118,442
864.763611,463
864.881042,452
864.998535,458
865.116028,444
865.233459,453
865.350891,447
865.468384,451
865.585754,442
865.703308,453
865.820679,459
865.938171,459
866.055542,463
866.173035,460
866.290466,449
866.407837,456
866.52533,447
866.6427,450
866.760071,454
866.877563,456
866.994934,446
867.112305,462
867.229736,457
867.347107,457
867.464539,456
867.58197,451
867.699341,452
867.81665,456
867.934082,458
868.051453,459
868.168823,443
868.286194,476
868.403564,458
868.520935,459
868.638306,462
868.755676,472
868.872986,480
868.990295,457
869.107727,468
869.225037,455
869.342346,462
869.459717,466
869.577026,471
869.694336,462
869.811707,436
869.929016,460
870.046326,477
870.163635,441
870.280945,454
870.398254,457
870.515564,447
870.632812,463
870.750183,455
870.867432,470
870.984741,444
871.102051,469
871.219299,463
871.336609,467
871.453918,449
871.571106,451
871.688416,455
871.805664,468
871.922852,472
872.040222,484
872.157471,455
872.274719,488
872.391968,459
872.509155,464
872.626465,487
872.743652,454
872.860962,475
872.978149,458
873.095337,476
873.212646,461
873.329834,466
873.44696,465
873.564209,446
873.681396,475
873.798645,444
873.915894,451
874.03302,465
874.150208,458
874.267456,461
874.384583,462
874.501831,454
874.618958,472
874.736145,468
874.853333,470
874.970459,468
875.087646,461
875.204834,447
875.32196,450
875.439148,459
875.556274,462
875.673401,476
875.790527,472
875.907715,464
876.024841,477
876.141968,470
876.259094,450
876.376282,458
876.493347,466
876.610474,468
876.7276,472
876.844727,464
876.961853,455
877.078918,456
877.195984,466
877.313171,450
877.430237,459
877.547302,467
877.664368,458
877.781433,448
877.898499,474
878.015625,473
878.13269,467
878.249695,452
878.366821,460
878.483887,456
878.600952,467
878.717957,451
878.834961,470
878.952087,454
879.069092,457
879.186157,458
879.303162,449
879.420227,453
879.537231,458
879.654236,475
879.77124,446
879.888306,449
880.005249,463
880.122314,440
880.239319,445
880.356323,465
880.473328,468
880.590271,452
880.707275,453
880.824341,459
880.941284,458
881.058228,451
881.175232,434
881.292236,443
881.40918,457
881.526123,465
881.643066,454
881.760071,452
881.877014,454
881.993958,460
882.11084,454
882.227783,457
882.344727,456
882.46167,443
882.578613,473
882.695618,454
882.812439,449
882.929382,450
883.046326,458
883.163208,466
883.280151,457
883.397034,463
883.513916,463
883.630798,468
883.747742,466
883.864563,461
883.981506,455
884.098389,442
884.21521,478
884.332153,455
884.448975,466
884.565796,461
884.682678,476
884.7995,461
884.916443,451
885.033264,452
885.150085,469
885.266968,481
885.383789,464
885.500671,458
885.617493,477
885.734314,470
885.851196,470
885.967896,475
886.084717,472
886.201599,504
886.318359,478
886.435181,479
886.552002,465
886.668762,478
886.785645,475
886.902344,489
887.019165,475
887.135925,474
887.252747,463
887.369446,467
887.486267,473
887.603027,465
887.719788,474
887.836548,466
887.953247,471
888.070068,439
888.186829,473
888.303528,470
888.420288,458
888.536987,465
888.653687,456
888.770447,462
888.887146,446
889.003967,474
889.120667,447
889.237305,470
889.354065,446
889.470703,438
889.587463,471
889.704163,444
889.820862,454
889.937561,457
890.054199,466
890.170837,455
890.287598,456
890.404236,453
890.520874,465
890.637634,446
890.754211,476
890.87085,452
890.987549,480
891.104187,447
891.220886,465
891.337463,456
891.454102,469
891.57074,444
891.687378,456
891.804077,443
891.920654,461
892.037231,448
892.15387,468
892.270447,488
892.387085,464
892.503723,469
892.6203,476
892.736877,465
892.853516,452
892.970032,458
893.08667,451
893.203186,463
893.319763,450
893.43634,453
893.552917,461
893.669556,473
893.786011,468
893.902588,441
894.019165,464
894.135681,479
894.252197,456
894.368835,458
894.485291,446
894.601868,462
894.718384,449
894.8349,477
894.951355,454
895.067932,464
895.184448,450
895.300964,445
895.417419,465
895.533936,445
895.650452,474
895.766907,456
895.883423,456
895.999878,456
896.116333,457
896.232849,485
896.349304,457
896.465759,472
896.582214,472
896.698669,457
896.815125,472
896.931641,475
897.048035,464
897.164551,459
897.280884,470
897.397339,470
897.513794,474
897.630249,458
897.746582,463
897.863098,458
897.979431,463
898.095886,472
898.212341,460
898.328674,470
898.445129,468
898.561462,461
898.677795,455
898.794312,443
898.910645,475
899.026978,474
899.143433,448
899.259766,466
899.37616,464
899.492493,456
899.608765,451
899.725159,456
899.841553,451
899.957947,463
900.07428,492
900.190552,450
900.306946,444
900.423157,461
900.53949,440
900.655884,468
900.772156,457
900.888489,466
901.004822,457
901.121033,479
901.237366,470
901.353699,453
901.46991,447
901.586304,456
901.702515,471
901.818787,481
901.93512,462
902.051331,461
902.167603,482
902.283875,471
902.400085,470
902.516418,487
902.632629,458
902.74884,473
902.865112,470
902.981384,473
903.097595,495
903.213867,483
903.330017,470
903.446289,489
903.5625,479
903.67865,473
903.794922,473
903.911072,476
904.027344,475
904.143494,480
904.259705,470
904.375916,457
904.492065,465
904.608215,468
904.724426,468
904.840576,470
904.956726,476
905.072876,474
905.189087,464
905.305176,469
905.421387,469
905.537537,451
905.653687,469
905.769775,458
905.885925,476
906.002014,483
906.118164,461
906.234314,445
906.350403,479
906.466492,499
906.582642,455
906.69873,472
906.814758,466
906.930908,457
907.046936,475
907.163086,464
907.279175,481
907.395264,465
907.511353,475
907.62738,449
907.743408,485
907.859497,469
907.975525,469
908.091553,460
908.207703,483
908.32373,442
908.439758,470
908.555786,450
908.671814,467
908.787842,462
908.90387,473
909.019775,464
909.135864,483
909.251892,472
909.367859,475
909.483826,467
909.599854,457
909.715881,460
909.831848,455
909.947815,474
910.063782,469
910.179749,474
910.295776,459
910.411743,475
910.527649,476
910.643616,478
910.759583,439
910.875488,456
910.991455,464
911.107361,473
911.223267,446
911.339294,436
911.4552,460
911.571106,460
911.687073,480
911.802979,471
911.918823,464
912.034729,475
912.150635,461
912.266602,474
912.382446,468
912.498352,468
912.614197,479
912.730103,470
912.846008,470
792.44574,689
792.56488,678
792.68396,745
792.80304,708
792.92218,671
793.041199,688
793.160339,654
793.279419,673
793.398499,667
793.517578,637
793.636658,636
793.755737,665
793.874817,655
793.993896,656
794.112976,651
794.232056,643
794.351074,611
794.470215,620
794.589233,597
794.708313,615
794.827393,618
794.946411,624
795.065552,631
795.18457,617
795.303589,632
795.422668,578
795.541687,604
795.660767,582
795.779846,608
795.898865,584
796.017883,614
796.136963,604
796.255981,583
796.375061,612
796.49408,620
796.613037,609
796.732117,588
796.851135,594
796.970154,600
797.089233,566
797.208191,583
797.327271,584
797.446228,580
797.565186,580
797.684265,592
797.803223,580
797.922241,601
798.04126,594
798.160278,603
798.279297,590
798.398315,573
798.517273,566
798.636292,571
798.75531,580
798.874268,590
798.993286,585
799.112244,568
799.231323,566
799.350281,579
799.469238,583
799.588257,607
799.707153,578
799.826111,569
799.945129,576
800.064087,592
800.183044,568
800.302063,578
800.421021,572
800.539978,587
800.658936,584
800.777893,587
800.896912,563
801.015747,576
801.134705,569
801.253723,592
801.37262,593
801.491638,587
801.610535,562
801.729492,577
801.84845,580
801.967407,602
802.086243,612
802.205261,609
802.324158,613
802.443115,591
802.562073,578
802.680969,608
802.799927,577
802.918762,573
803.037659,573
803.156677,590
803.275574,578
803.39447,589
803.513428,592
803.632263,600
803.751221,591
803.870117,618
803.989014,587
804.107971,569
804.226746,598
804.345642,615
804.4646,575
804.583496,594
804.702393,572
804.821228,578
804.940125,590
805.059021,603
805.177917,599
805.296814,616
805.415649,593
805.534546,607
805.653442,581
805.772278,605
805.891113,600
806.01001,600
806.128906,612
806.247742,618
806.366577,615
806.485413,602
806.604309,602
806.723145,605
806.84198,606
806.960876,626
807.079712,601
807.198486,590
807.317383,599
807.436218,595
807.554993,631
807.673889,592
807.792725,614
807.91156,626
808.030396,602
808.14917,599
808.268005,620
808.386841,616
808.505676,593
808.624451,627
808.743286,627
808.862122,620
808.980896,607
809.099731,599
809.218506,604
809.337341,596
809.456116,609
809.57489,611
809.693726,600
809.8125,628
809.931274,593
810.050049,626
810.168884,595
810.287659,608
810.406372,605
810.525269,602
810.643982,603
810.762756,626
810.881531,624
811.000305,603
811.11908,637
811.237854,604
811.356567,602
811.475403,628
811.594116,610
811.71283,617
811.831604,613
811.950378,620
812.069153,620
812.187927,614
812.30658,625
812.425415,596
812.544128,619
812.662781,630
812.781616,595
812.900269,588
813.019043,608
813.137756,616
813.256531,591
813.375244,620
813.493896,627
813.612671,628
813.731384,613
813.850037,602
813.96875,618
814.087524,632
814.206238,584
814.324951,603
814.443604,619
814.562256,613
814.68103,611
814.799683,613
814.918335,597
815.037109,602
815.155762,595
815.274475,594
815.393188,612
815.511841,612
815.630554,594
815.749146,591
815.867859,605
815.986572,589
816.105164,616
816.223877,609
816.342529,560
816.461182,621
816.579895,605
816.698486,610
816.817139,610
816.935791,646
817.054504,621
817.173096,606
817.291748,606
817.4104,588
817.529053,582
817.647644,588
817.766235,555
817.884949,558
818.00354,551
818.122192,559
818.240845,569
818.359436,544
818.478088,548
818.59668,538
818.715271,540
818.833923,531
818.952515,519
819.071106,517
819.189758,522
819.30835,529
819.426941,501
819.545532,523
819.664124,497
819.782715,514
819.901306,481
820.019897,514
820.138489,519
820.25708,503
820.375671,477
820.494202,491
820.612732,482
820.731384,495
820.849915,493
820.968506,479
821.087097,486
821.205627,486
821.324158,501
821.442749,487
821.561279,489
821.679871,488
821.798401,500
821.916931,491
822.035461,478
822.154053,501
822.272583,476
822.391174,480
822.509583,466
822.628174,490
822.746704,490
822.865234,507
822.983765,485
823.102295,473
823.220825,482
823.339294,480
823.457825,475
823.576355,498
823.694824,486
823.813354,490
823.931885,475
824.050354,482
824.168884,512
824.287354,488
824.405823,492
824.524353,487
824.642822,499
824.761353,496
824.879822,479
824.998291,493
825.116699,472
825.235291,513
825.353699,475
825.472168,495
825.590637,473
825.709106,499
825.827576,470
825.946045,477
826.064453,453
826.182983,477
826.301392,480
826.4198,478
826.53833,473
826.656738,490
826.775208,468
826.893677,482
827.012024,464
827.130493,457
827.248962,485
827.36731,471
827.485779,475
827.604248,473
827.722595,464
827.841064,468
827.959412,463
828.077942,465
828.196289,457
828.314636,475
828.433105,472
828.551514,476
828.669861,457
828.78833,468
828.906677,465
829.025085,467
829.143433,458
829.261841,460
829.38031,441
829.498657,468
829.617004,443
829.735413,472
829.85376,460
829.972107,457
830.090515,466
830.208862,461
830.327209,442
830.445557,456
830.563904,460
830.682312,479
830.800659,444
830.919006,463
831.037354,467
831.155701,482
831.274048,437
831.392395,465
831.51062,447
831.629028,467
831.747314,463
831.865662,462
831.984009,453
832.102356,463
832.220642,464
832.338928,468
832.457275,456
832.575623,461
832.693909,455
832.812134,472
832.930481,446
833.048828,461
833.167114,471
833.2854,466
833.403687,477
833.521973,478
833.640259,444
833.758545,469
833.876831,453
833.995056,472
834.113281,456
834.231628,459
834.349915,465
834.468201,445
834.586426,454
834.704651,455
834.822998,459
834.941162,462
835.059448,452
835.177673,455
835.295959,471
835.414246,463
835.53241,471
835.650635,465
835.768921,474
835.887146,442
836.005371,455
836.123596,470
836.241821,461
836.360046,471
836.478271,465
836.596497,476
836.714722,478
836.832886,477
836.95105,456
837.069336,471
837.1875,467
837.305725,461
837.423889,478
837.542053,473
837.660339,494
837.778503,472
837.896667,467
838.014832,483
838.132996,457
838.25116,467
838.369385,481
838.487488,483
838.605713,469
838.723877,476
838.84198,473
838.960205,469
839.078308,475
839.196472,450
839.314636,477
839.4328,469
839.550964,465
839.669067,470
839.787231,479
839.905396,474
840.023499,444
840.141602,482
840.259766,482
840.377869,470
840.495972,492
840.614136,478
840.732239,484
840.850342,471
840.968445,469
841.086548,481
841.204651,441
841.322754,502
841.440918,465
841.55896,495
841.677002,459
841.795166,460
841.913208,451
842.031311,463
842.149353,467
842.267456,463
842.385498,472
842.503601,467
842.621643,465
842.739746,474
842.857788,464
842.97583,457
843.093933,453
843.211975,468
843.330017,482
843.44812,449
843.566101,468
843.684204,448
843.802246,448
843.920227,477
844.038269,470
844.156311,460
844.274292,445
844.392395,453
844.510376,465
844.628357,449
844.74646,446
844.864441,467
844.982422,450
845.100403,457
845.218384,457
845.336426,450
845.454468,455
845.572449,465
845.69043,457
845.808411,450
845.926453,452
846.044373,471
846.162354,446
846.280396,458
846.398315,480
846.516296,481
846.634216,457
846.752197,459
846.870178,473
846.988098,475
847.106079,451
847.22406,445
847.34198,465
847.4599,456
847.577881,445
847.695801,463
847.813782,426
847.931641,465
848.049561,464
848.167603,473
848.285461,444
848.403381,460
848.521362,446
848.639221,453
848.75708,453
848.875,455
848.99292,433
849.110901,449
849.22876,460
849.34668,453
849.464539,453
849.582458,453
849.700317,461
849.818176,445
849.936096,456
850.053955,460
850.171875,460
850.289673,457
850.407593,460
850.525452,449
850.643311,453
850.761169,469
850.878967,440
850.996887,437
851.114746,454
851.232544,467
851.350403,462
851.468262,446
851.58606,461
851.703979,453
851.821777,469
851.939636,441
852.057434,438
852.175232,462
852.293091,468
852.410889,468
852.528687,452
852.646545,453
852.764343,456
852.88208,446
852.999939,466
853.117676,471
853.235535,447
853.353271,471
853.471069,458
853.588928,459
853.706604,456
853.824402,444
853.9422,432
854.059998,467
854.177734,470
854.295532,459
854.413269,434
854.531006,456
854.648804,452
854.766541,458
854.884277,460
855.002014,459
855.119751,458
855.237549,470
855.355225,450
855.473022,458
855.590698,466
855.708435,486
855.826172,444
855.943848,462
856.061646,470
856.179321,459
856.296997,451
856.414795,474
856.53241,449
856.650085,465
856.767822,463
856.885559,450
857.003174,479
857.120911,470
857.238586,463
857.356201,479
857.473938,469
857.591614,474
857.709351,466
857.826965,468
857.944641,452
858.062317,456
858.179993,482
858.297668,451
858.415283,468
858.532959,472
858.650574,465
858.768188,468
858.885803,448
859.003479,457
859.121094,457
859.23877,470
859.356384,476
859.473999,463
859.591675,463
859.709229,467
859.826843,453
859.944458,450
860.062012,447
860.179626,467
860.297302,463
860.414856,471
860.532471,475
860.650024,452
860.767639,430
860.885193,448
861.002808,476
861.120361,460
861.237976,451
861.35553,462
861.473022,465
861.590698,449
861.708191,463
861.825745,470
861.943298,446
862.060852,461
862.178406,454
862.295959,432
862.413513,459
862.531006,449
862.64856,458
862.766113,451
862.883667,467
863.00116,461
863.118713,464
863.236206,455
863.353699,476
863.471252,466
863.588745,451
863.706177,434
863.82373,436
863.941162,454
864.058716,465
864.176208,474
864.29364,472
864.411194,449
864.528687,456
864.646118,458
864.763611,465
864.881042,460
864.998535,435
865.116028,454
865.233459,459
865.350891,477
865.468384,448
865.585754,472
865.703308,444
865.820679,467
865.938171,449
866.055542,462
866.173035,467
866.290466,467
866.407837,454
866.52533,452
866.6427,465
866.760071,469
866.877563,455
866.994934,457
867.112305,468
867.229736,470
867.347107,457
867.464539,458
867.58197,460
867.699341,458
867.81665,460
867.934082,465
868.051453,472
868.168823,445
868.286194,471
868.403564,471
868.520935,455
868.638306,463
868.755676,433
868.872986,478
868.990295,444
869.107727,477
869.225037,457
869.342346,464
869.459717,452
869.577026,450
869.694336,439
869.811707,459
869.929016,446
870.046326,447
870.163635,461
870.280945,461
870.398254,468
870.515564,450
870.632812,457
870.750183,468
870.867432,465
870.984741,460
871.102051,473
871.219299,453
871.336609,482
871.453918,475
871.571106,471
871.688416,471
871.805664,452
871.922852,475
872.040222,459
872.157471,474
872.274719,446
872.391968,486
872.509155,472
872.626465,473
872.743652,458
872.860962,451
872.978149,438
873.095337,474
873.212646,447
873.329834,470
873.44696,450
873.564209,466
873.681396,451
873.798645,458
873.915894,454
874.03302,469
874.150208,445
874.267456,450
874.384583,452
874.501831,492
874.618958,466
874.736145,473
874.853333,455
874.970459,463
875.087646,482
875.204834,469
875.32196,460
875.439148,458
875.556274,451
875.673401,465
875.790527,460
875.907715,456
876.024841,447
876.141968,469
876.259094,470
876.376282,447
876.493347,456
876.610474,475
876.7276,454
876.844727,461
876.961853,466
877.078918,480
877.195984,445
877.313171,456
877.430237,456
877.547302,475
877.664368,479
877.781433,458
877.898499,465
878.015625,470
878.13269,442
878.249695,470
878.366821,466
878.483887,474
878.600952,480
878.717957,455
878.834961,455
878.952087,473
879.069092,437
879.186157,460
879.303162,459
879.420227,454
879.537231,448
879.654236,455
879.77124,439
879.888306,470
880.005249,447
880.122314,444
880.239319,462
880.356323,459
880.473328,456
880.590271,465
880.707275,451
880.824341,454
880.941284,440
881.058228,451
881.175232,461
881.292236,475
881.40918,465
881.526123,462
881.643066,459
881.760071,468
881.877014,444
881.993958,454
882.11084,452
882.227783,447
882.344727,458
882.46167,453
882.578613,450
882.695618,466
882.812439,468
882.929382,451
883.046326,439
883.163208,468
883.280151,456
883.397034,450
883.513916,447
883.630798,465
883.747742,458
883.864563,450
883.981506,454
884.098389,473
884.21521,449
884.332153,451
884.448975,439
884.565796,468
884.682678,469
884.7995,462
884.916443,463
885.033264,470
885.150085,467
885.266968,490
885.383789,462
885.500671,466
885.617493,479
885.734314,483
885.851196,459
885.967896,484
886.084717,470
886.201599,483
886.318359,476
886.435181,492
886.552002,462
886.668762,474
886.785645,473
886.902344,468
887.019165,455
887.135925,470
887.252747,478
887.369446,464
887.486267,462
887.603027,471
887.719788,464
887.836548,480
887.953247,466
888.070068,470
888.186829,464
888.303528,465
888.420288,466
888.536987,468
888.653687,461
888.770447,458
888.887146,445
889.003967,469
889.120667,453
889.237305,470
889.354065,451
889.470703,470
889.587463,445
889.704163,463
889.820862,445
889.937561,447
890.054199,439
890.170837,461
890.287598,458
890.404236,460
890.520874,467
890.637634,467
890.754211,442
890.87085,470
890.987549,455
891.104187,462
891.220886,458
891.337463,463
891.454102,460
891.57074,481
891.687378,456
891.804077,451
891.920654,442
892.037231,466
892.15387,473
892.270447,458
892.387085,465
892.503723,470
892.6203,458
892.736877,473
892.853516,462
892.970032,461
893.08667,445
893.203186,455
893.319763,461
893.43634,468
893.552917,465
893.669556,432
893.786011,462
893.902588,484
894.019165,453
894.135681,440
894.252197,440
894.368835,464
894.485291,457
894.601868,462
894.718384,476
894.8349,472
894.951355,447
895.067932,462
895.184448,447
895.300964,474
895.417419,457
895.533936,451
895.650452,450
895.766907,449
895.883423,444
895.999878,454
896.116333,467
896.232849,467
896.349304,445
896.465759,462
896.582214,472
896.698669,460
896.815125,461
896.931641,470
897.048035,467
897.164551,479
897.280884,452
897.397339,462
897.513794,466
897.630249,487
897.746582,463
897.863098,468
897.979431,445
898.095886,463
898.212341,461
898.328674,461
898.445129,464
898.561462,460
898.677795,458
898.794312,463
898.910645,475
899.026978,482
899.143433,462
899.259766,469
899.37616,460
899.492493,465
899.608765,469
899.725159,486
899.841553,450
899.957947,471
900.07428,449
900.190552,463
900.306946,460
900.423157,444
900.53949,466
900.655884,480
900.772156,466
900.888489,452
901.004822,461
901.121033,465
901.237366,458
901.353699,463
901.46991,483
901.586304,469
901.702515,469
901.818787,455
901.93512,462
902.051331,486
902.167603,481
902.283875,490
902.400085,472
902.516418,503
902.632629,471
902.74884,489
902.865112,479
902.981384,460
903.097595,478
903.213867,464
903.330017,456
903.446289,488
903.5625,459
903.67865,489
903.794922,450
903.911072,457
904.027344,495
904.143494,489
904.259705,477
904.375916,461
904.492065,475
904.608215,488
904.724426,451
904.840576,492
904.956726,461
905.072876,481
905.189087,473
905.305176,469
905.421387,453
905.537537,477
905.653687,456
905.769775,485
905.885925,463
906.002014,490
906.118164,461
906.234314,466
906.350403,452
906.466492,451
906.582642,470
906.69873,467
906.814758,470
906.930908,465
907.046936,467
907.163086,479
907.279175,454
907.395264,481
907.511353,453
907.62738,472
907.743408,472
907.859497,474
907.975525,463
908.091553,467
908.207703,460
908.32373,482
908.439758,464
908.555786,462
908.671814,472
908.787842,474
908.90387,483
909.019775,464
909.135864,454
909.251892,459
909.367859,460
909.483826,468
909.599854,469
909.715881,499
909.831848,464
909.947815,470
910.063782,454
910.179749,470
910.295776,468
910.411743,457
910.527649,478
910.643616,478
910.759583,456
910.875488,464
910.991455,464
911.107361,469
911.223267,454
911.339294,458
911.4552,463
911.571106,467
911.687073,469
911.802979,469
911.918823,458
912.034729,478
912.150635,453
912.266602,490
912.382446,469
912.498352,482
912.614197,447
912.730103,478
912.846008,465
