792.44574,656
792.56488,693
792.68396,716
792.80304,692
792.92218,658
793.041199,636
793.160339,642
793.279419,643
793.398499,636
793.517578,631
793.636658,633
793.755737,643
793.874817,645
793.993896,650
794.112976,624
794.232056,596
794.351074,616
794.470215,609
794.589233,624
794.708313,610
794.827393,586
794.946411,620
795.065552,585
795.18457,625
795.303589,600
795.422668,604
795.541687,608
795.660767,603
795.779846,585
795.898865,616
796.017883,601
796.136963,607
796.255981,565
796.375061,602
796.49408,611
796.613037,604
796.732117,579
796.851135,599
796.970154,612
797.089233,572
797.208191,571
797.327271,590
797.446228,574
797.565186,571
797.684265,582
797.803223,579
797.922241,573
798.04126,570
798.160278,584
798.279297,589
798.398315,608
798.517273,579
798.636292,578
798.75531,583
798.874268,588
798.993286,571
799.112244,583
799.231323,598
799.350281,575
799.469238,566
799.588257,594
799.707153,600
799.826111,587
799.945129,597
800.064087,567
800.183044,575
800.302063,590
800.421021,586
800.539978,594
800.658936,598
800.777893,582
800.896912,559
801.015747,588
801.134705,564
801.253723,605
801.37262,596
801.491638,576
801.610535,585
801.729492,553
801.84845,594
801.967407,591
802.086243,579
802.205261,593
802.324158,592
802.443115,579
802.562073,600
802.680969,597
802.799927,588
802.918762,602
803.037659,598
803.156677,597
803.275574,586
803.39447,590
803.513428,585
803.632263,627
803.751221,600
803.870117,584
803.989014,624
804.107971,603
804.226746,597
804.345642,590
804.4646,593
804.583496,619
804.702393,609
804.821228,598
804.940125,620
805.059021,596
805.177917,612
805.296814,597
805.415649,595
805.534546,593
805.653442,612
805.772278,625
805.891113,580
806.01001,622
806.128906,591
806.247742,608
806.366577,605
806.485413,617
806.604309,620
806.723145,615
806.84198,620
806.960876,592
807.079712,613
807.198486,639
807.317383,617
807.436218,577
807.554993,622
807.673889,608
807.792725,615
807.91156,621
808.030396,617
808.14917,613
808.268005,592
808.386841,610
808.505676,615
808.624451,618
808.743286,621
808.862122,621
808.980896,619
809.099731,610
809.218506,582
809.337341,615
809.456116,607
809.57489,607
809.693726,617
809.8125,625
809.931274,626
810.050049,616
810.168884,626
810.287659,629
810.406372,605
810.525269,636
810.643982,619
810.762756,634
810.881531,623
811.000305,615
811.11908,623
811.237854,609
811.356567,626
811.475403,624
811.594116,614
811.71283,627
811.831604,631
811.950378,634
812.069153,652
812.187927,609
812.30658,661
812.425415,629
812.544128,619
812.662781,631
812.781616,637
812.900269,601
813.019043,627
813.137756,602
813.256531,621
813.375244,619
813.493896,633
813.612671,642
813.731384,636
813.850037,620
813.96875,624
814.087524,595
814.206238,621
814.324951,606
814.443604,621
814.562256,609
814.68103,622
814.799683,613
814.918335,619
815.037109,634
815.155762,624
815.274475,600
815.393188,608
815.511841,600
815.630554,615
815.749146,595
815.867859,603
815.986572,583
816.105164,611
816.223877,615
816.342529,594
816.461182,623
816.579895,595
816.698486,587
816.817139,616
816.935791,604
817.054504,628
817.173096,603
817.291748,593
817.4104,619
817.529053,597
817.647644,591
817.766235,585
817.884949,576
818.00354,554
818.122192,553
818.240845,550
818.359436,541
818.478088,543
818.59668,548
818.715271,540
818.833923,525
818.952515,533
819.071106,533
819.189758,500
819.30835,527
819.426941,520
819.545532,513
819.664124,525
819.782715,484
819.901306,503
820.019897,516
820.138489,518
820.25708,485
820.375671,483
820.494202,495
820.612732,493
820.731384,499
820.849915,480
820.968506,496
821.087097,503
821.205627,483
821.324158,495
821.442749,513
821.561279,496
821.679871,493
821.798401,504
821.916931,476
822.035461,485
822.154053,485
822.272583,487
822.391174,488
822.509583,497
822.628174,484
822.746704,477
822.865234,490
822.983765,492
823.102295,512
823.220825,484
823.339294,487
823.457825,459
823.576355,484
823.694824,498
823.813354,483
823.931885,488
824.050354,498
824.168884,492
824.287354,498
824.405823,500
824.524353,490
824.642822,470
824.761353,486
824.879822,483
824.998291,478
825.116699,493
825.235291,465
825.353699,483
825.472168,472
825.590637,474
825.709106,472
825.827576,472
825.946045,482
826.064453,492
826.182983,484
826.301392,481
826.4198,467
826.53833,473
826.656738,464
826.775208,479
826.893677,468
827.012024,461
827.130493,456
827.248962,472
827.36731,481
827.485779,454
827.604248,467
827.722595,462
827.841064,480
827.959412,452
828.077942,465
828.196289,465
828.314636,448
828.433105,484
828.551514,461
828.669861,461
828.78833,472
828.906677,462
829.025085,452
829.143433,454
829.261841,448
829.38031,484
829.498657,443
829.617004,459
829.735413,470
829.85376,469
829.972107,450
830.090515,453
830.208862,478
830.327209,458
830.445557,458
830.563904,442
830.682312,454
830.800659,466
830.919006,467
831.037354,459
831.155701,451
831.274048,454
831.392395,461
831.51062,458
831.629028,468
831.747314,461
831.865662,489
831.984009,472
832.102356,461
832.220642,462
832.338928,464
832.457275,476
832.575623,433
832.693909,486
832.812134,421
832.930481,473
833.048828,467
833.167114,467
833.2854,461
833.403687,450
833.521973,475
833.640259,461
833.758545,473
833.876831,470
833.995056,462
834.113281,451
834.231628,460
834.349915,456
834.468201,463
834.586426,466
834.704651,445
834.822998,470
834.941162,478
835.059448,461
835.177673,462
835.295959,484
835.414246,443
835.53241,469
835.650635,458
835.768921,479
835.887146,465
836.005371,464
836.123596,460
836.241821,465
836.360046,489
836.478271,454
836.596497,499
836.714722,466
836.832886,463
836.95105,479
837.069336,467
837.1875,459
837.305725,478
837.423889,470
837.542053,468
837.660339,486
837.778503,481
837.896667,462
838.014832,496
838.132996,471
838.25116,453
838.369385,472
838.487488,485
838.605713,487
838.723877,485
838.84198,486
838.960205,471
839.078308,488
839.196472,468
839.314636,474
839.4328,462
839.550964,476
839.669067,472
839.787231,471
839.905396,458
840.023499,484
840.141602,483
840.259766,478
840.377869,469
840.495972,477
840.614136,472
840.732239,468
840.850342,470
840.968445,470
841.086548,477
841.204651,443
841.322754,471
841.440918,481
841.55896,476
841.677002,458
841.795166,468
841.913208,457
842.031311,460
842.149353,487
842.267456,456
842.385498,447
842.503601,472
842.621643,456
842.739746,470
842.857788,461
842.97583,459
843.093933,459
843.211975,453
843.330017,464
843.44812,450
843.566101,436
843.684204,454
843.802246,473
843.920227,473
844.038269,447
844.156311,451
844.274292,460
844.392395,448
844.510376,464
844.628357,466
844.74646,446
844.864441,456
844.982422,452
845.100403,462
845.218384,472
845.336426,467
845.454468,455
845.572449,464
845.69043,461
845.808411,438
845.926453,427
846.044373,449
846.162354,461
846.280396,454
846.398315,461
846.516296,466
846.634216,434
846.752197,460
846.870178,461
846.988098,446
847.106079,448
847.22406,456
847.34198,434
847.4599,451
847.577881,459
847.695801,456
847.813782,460
847.931641,435
848.049561,463
848.167603,450
848.285461,445
848.403381,443
848.521362,458
848.639221,452
848.75708,452
848.875,464
848.99292,458
849.110901,466
849.22876,463
849.34668,462
849.464539,448
849.582458,451
849.700317,452
849.818176,433
849.936096,443
850.053955,440
850.171875,460
850.289673,446
850.407593,455
850.525452,451
850.643311,470
850.761169,448
850.878967,462
850.996887,459
851.114746,456
851.232544,442
851.350403,451
851.468262,437
851.58606,460
851.703979,446
851.821777,450
851.939636,435
852.057434,449
852.175232,460
852.293091,455
852.410889,436
852.528687,472
852.646545,454
852.764343,454
852.88208,435
852.999939,458
853.117676,449
853.235535,456
853.353271,454
853.471069,471
853.588928,435
853.706604,430
853.824402,426
853.9422,453
854.059998,460
854.177734,477
854.295532,450
854.413269,455
854.531006,462
854.648804,456
854.766541,454
854.884277,463
855.002014,441
855.119751,469
855.237549,442
855.355225,441
855.473022,474
855.590698,457
855.708435,456
855.826172,470
855.943848,446
856.061646,460
856.179321,475
856.296997,459
856.414795,462
856.53241,458
856.650085,464
856.767822,465
856.885559,446
857.003174,462
857.120911,462
857.238586,467
857.356201,463
857.473938,473
857.591614,456
857.709351,467
857.826965,456
857.944641,448
858.062317,466
858.179993,456
858.297668,457
858.415283,475
858.532959,469
858.650574,470
858.768188,453
858.885803,464
859.003479,476
859.121094,454
859.23877,458
859.356384,459
859.473999,453
859.591675,467
859.709229,468
859.826843,465
859.944458,441
860.062012,465
860.179626,476
860.297302,447
860.414856,449
860.532471,466
860.650024,454
860.767639,470
860.885193,447
861.002808,443
861.120361,459
861.237976,447
861.35553,475
861.473022,456
861.590698,443
861.708191,463
861.825745,455
861.943298,463
862.060852,434
862.178406,450
862.295959,468
862.413513,452
862.531006,454
862.64856,473
862.766113,462
862.883667,451
863.00116,449
863.118713,446
863.236206,448
863.353699,436
863.471252,435
863.588745,460
863.706177,438
863.82373,459
863.941162,472
864.058716,456
864.176208,463
864.29364,471
864.411194,473
864.528687,443
864.646118,444
864.763611,456
864.881042,449
864.998535,462
865.116028,420
865.233459,453
865.350891,450
865.468384,465
865.585754,455
865.703308,450
865.820679,450
865.938171,461
866.055542,448
866.173035,468
866.290466,444
866.407837,459
866.52533,438
866.6427,470
866.760071,443
866.877563,463
866.994934,452
867.112305,462
867.229736,463
867.347107,447
867.464539,458
867.58197,448
867.699341,468
867.81665,451
867.934082,466
868.051453,460
868.168823,439
868.286194,451
868.403564,448
868.520935,451
868.638306,459
868.755676,441
868.872986,446
868.990295,467
869.107727,443
869.225037,458
869.342346,474
869.459717,452
869.577026,470
869.694336,457
869.811707,439
869.929016,457
870.046326,463
870.163635,475
870.280945,461
870.398254,455
870.515564,456
870.632812,450
870.750183,467
870.867432,480
870.984741,482
871.102051,463
871.219299,468
871.336609,478
871.453918,458
871.571106,465
871.688416,432
871.805664,453
871.922852,470
872.040222,453
872.157471,468
872.274719,463
872.391968,481
872.509155,453
872.626465,455
872.743652,470
872.860962,447
872.978149,469
873.095337,473
873.212646,464
873.329834,447
873.44696,454
873.564209,457
873.681396,459
873.798645,470
873.915894,454
874.03302,462
874.150208,454
874.267456,442
874.384583,450
874.501831,469
874.618958,454
874.736145,467
874.853333,449
874.970459,469
875.087646,468
875.204834,448
875.32196,461
875.439148,454
875.556274,472
875.673401,453
875.790527,460
875.907715,450
876.024841,449
876.141968,454
876.259094,452
876.376282,452
876.493347,462
876.610474,454
876.7276,447
876.844727,478
876.961853,458
877.078918,465
877.195984,449
877.313171,440
877.430237,467
877.547302,452
877.664368,469
877.781433,454
877.898499,475
878.015625,452
878.13269,464
878.249695,459
878.366821,472
878.483887,462
878.600952,455
878.717957,453
878.834961,452
878.952087,457
879.069092,470
879.186157,455
879.303162,455
879.420227,444
879.537231,445
879.654236,444
879.77124,458
879.888306,456
880.005249,443
880.122314,441
880.239319,461
880.356323,469
880.473328,441
880.590271,429
880.707275,460
880.824341,450
880.941284,461
881.058228,442
881.175232,469
881.292236,468
881.40918,444
881.526123,462
881.643066,471
881.760071,432
881.877014,460
881.993958,458
882.11084,471
882.227783,433
882.344727,439
882.46167,451
882.578613,445
882.695618,455
882.812439,460
882.929382,453
883.046326,455
883.163208,456
883.280151,448
883.397034,447
883.513916,457
883.630798,443
883.747742,476
883.864563,466
883.981506,468
884.098389,438
884.21521,465
884.332153,469
884.448975,473
884.565796,463
884.682678,465
884.7995,441
884.916443,458
885.033264,465
885.150085,455
885.266968,473
885.383789,462
885.500671,481
885.617493,481
885.734314,471
885.851196,477
885.967896,452
886.084717,456
886.201599,465
886.318359,461
886.435181,464
886.552002,476
886.668762,462
886.785645,464
886.902344,469
887.019165,454
887.135925,462
887.252747,462
887.369446,474
887.486267,457
887.603027,442
887.719788,448
887.836548,460
887.953247,461
888.070068,460
888.186829,456
888.303528,476
888.420288,475
888.536987,465
888.653687,452
888.770447,457
888.887146,470
889.003967,445
889.120667,468
889.237305,437
889.354065,469
889.470703,459
889.587463,456
889.704163,476
889.820862,448
889.937561,452
890.054199,467
890.170837,463
890.287598,447
890.404236,469
890.520874,476
890.637634,464
890.754211,449
890.87085,445
890.987549,451
891.104187,460
891.220886,464
891.337463,445
891.454102,464
891.57074,437
891.687378,456
891.804077,467
891.920654,453
892.037231,471
892.15387,456
892.270447,460
892.387085,453
892.503723,454
892.6203,454
892.736877,456
892.853516,456
892.970032,460
893.08667,461
893.203186,478
893.319763,463
893.43634,454
893.552917,466
893.669556,447
893.786011,466
893.902588,456
894.019165,474
894.135681,430
894.252197,454
894.368835,468
894.485291,457
894.601868,451
894.718384,463
894.8349,456
894.951355,461
895.067932,457
895.184448,463
895.300964,463
895.417419,453
895.533936,463
895.650452,480
895.766907,444
895.883423,462
895.999878,466
896.116333,455
896.232849,464
896.349304,458
896.465759,472
896.582214,480
896.698669,446
896.815125,456
896.931641,458
897.048035,464
897.164551,442
897.280884,467
897.397339,453
897.513794,459
897.630249,473
897.746582,449
897.863098,446
897.979431,468
898.095886,466
898.212341,471
898.328674,438
898.445129,437
898.561462,456
898.677795,440
898.794312,469
898.910645,450
899.026978,456
899.143433,483
899.259766,451
899.37616,475
899.492493,454
899.608765,464
899.725159,471
899.841553,446
899.957947,437
900.07428,479
900.190552,467
900.306946,478
900.423157,455
900.53949,463
900.655884,468
900.772156,472
900.888489,444
901.004822,446
901.121033,442
901.237366,464
901.353699,445
901.46991,471
901.586304,455
901.702515,438
901.818787,459
901.93512,467
902.051331,462
902.167603,477
902.283875,466
902.400085,458
902.516418,459
902.632629,474
902.74884,480
902.865112,478
902.981384,445
903.097595,485
903.213867,471
903.330017,467
903.446289,479
903.5625,463
903.67865,487
903.794922,475
903.911072,468
904.027344,450
904.143494,463
904.259705,455
904.375916,481
904.492065,460
904.608215,465
904.724426,463
904.840576,460
904.956726,447
905.072876,455
905.189087,475
905.305176,470
905.421387,461
905.537537,460
905.653687,464
905.769775,463
905.885925,470
906.002014,476
906.118164,456
906.234314,468
906.350403,488
906.466492,439
906.582642,480
906.69873,469
906.814758,469
906.930908,468
907.046936,466
907.163086,472
907.279175,453
907.395264,461
907.511353,474
907.62738,451
907.743408,453
907.859497,468
907.975525,471
908.091553,479
908.207703,454
908.32373,451
908.439758,481
908.555786,469
908.671814,458
908.787842,473
908.90387,447
909.019775,464
909.135864,487
909.251892,465
909.367859,477
909.483826,479
909.599854,483
909.715881,463
909.831848,476
909.947815,460
910.063782,464
910.179749,455
910.295776,453
910.411743,446
910.527649,462
910.643616,462
910.759583,478
910.875488,449
910.991455,463
911.107361,477
911.223267,457
911.339294,464
911.4552,464
911.571106,464
911.687073,481
911.802979,468
911.918823,461
912.034729,447
912.150635,464
912.266602,439
912.382446,461
912.498352,459
912.614197,472
912.730103,454
912.846008,459
792.44574,667
792.56488,700
792.68396,752
792.80304,701
792.92218,659
793.041199,622
793.160339,628
793.279419,629
793.398499,649
793.517578,639
793.636658,625
793.755737,613
793.874817,655
793.993896,647
794.112976,613
794.232056,626
794.351074,635
794.470215,611
794.589233,648
794.708313,606
794.827393,580
794.946411,616
795.065552,620
795.18457,622
795.303589,606
795.422668,589
795.541687,624
795.660767,582
795.779846,631
795.898865,603
796.017883,631
796.136963,599
796.255981,599
796.375061,596
796.49408,571
796.613037,581
796.732117,593
796.851135,597
796.970154,608
797.089233,568
797.208191,593
797.327271,582
797.446228,565
797.565186,588
797.684265,607
797.803223,570
797.922241,567
798.04126,592
798.160278,582
798.279297,592
798.398315,593
798.517273,573
798.636292,586
798.75531,610
798.874268,609
798.993286,558
799.112244,566
799.231323,590
799.350281,579
799.469238,585
799.588257,579
799.707153,607
799.826111,589
799.945129,581
800.064087,590
800.183044,574
800.302063,549
800.421021,585
800.539978,594
800.658936,568
800.777893,576
800.896912,593
801.015747,570
801.134705,582
801.253723,576
801.37262,575
801.491638,586
801.610535,610
801.729492,589
801.84845,560
801.967407,593
802.086243,592
802.205261,603
802.324158,584
802.443115,586
802.562073,604
802.680969,583
802.799927,595
802.918762,631
803.037659,582
803.156677,602
803.275574,601
803.39447,597
803.513428,592
803.632263,593
803.751221,596
803.870117,600
803.989014,604
804.107971,612
804.226746,607
804.345642,600
804.4646,580
804.583496,605
804.702393,599
804.821228,599
804.940125,577
805.059021,592
805.177917,598
805.296814,624
805.415649,614
805.534546,589
805.653442,602
805.772278,612
805.891113,618
806.01001,630
806.128906,612
806.247742,608
806.366577,601
806.485413,599
806.604309,605
806.723145,603
806.84198,620
806.960876,614
807.079712,602
807.198486,611
807.317383,621
807.436218,595
807.554993,617
807.673889,614
807.792725,620
807.91156,608
808.030396,625
808.14917,625
808.268005,616
808.386841,615
808.505676,607
808.624451,633
808.743286,625
808.862122,629
808.980896,615
809.099731,640
809.218506,616
809.337341,637
809.456116,626
809.57489,621
809.693726,625
809.8125,634
809.931274,630
810.050049,662
810.168884,606
810.287659,630
810.406372,617
810.525269,624
810.643982,641
810.762756,626
810.881531,620
811.000305,630
811.11908,611
811.237854,627
811.356567,614
811.475403,630
811.594116,610
811.71283,631
811.831604,652
811.950378,610
812.069153,621
812.187927,623
812.30658,625
812.425415,604
812.544128,634
812.662781,604
812.781616,644
812.900269,616
813.019043,633
813.137756,623
813.256531,630
813.375244,616
813.493896,631
813.612671,646
813.731384,603
813.850037,641
813.96875,631
814.087524,619
814.206238,602
814.324951,627
814.443604,629
814.562256,622
814.68103,630
814.799683,623
814.918335,604
815.037109,610
815.155762,614
815.274475,649
815.393188,604
815.511841,605
815.630554,587
815.749146,639
815.867859,610
815.986572,607
816.105164,601
816.223877,621
816.342529,612
816.461182,617
816.579895,638
816.698486,621
816.817139,617
816.935791,623
817.054504,606
817.173096,617
817.291748,616
817.4104,610
817.529053,601
817.647644,579
817.766235,587
817.884949,592
818.00354,568
818.122192,568
818.240845,567
818.359436,569
818.478088,540
818.59668,552
818.715271,543
818.833923,535
818.952515,521
819.071106,536
819.189758,530
819.30835,524
819.426941,514
819.545532,522
819.664124,521
819.782715,528
819.901306,509
820.019897,511
820.138489,512
820.25708,520
820.375671,484
820.494202,496
820.612732,499
820.731384,498
820.849915,477
820.968506,500
821.087097,490
821.205627,483
821.324158,491
821.442749,497
821.561279,490
821.679871,494
821.798401,491
821.916931,521
822.035461,500
822.154053,495
822.272583,500
822.391174,498
822.509583,484
822.628174,474
822.746704,497
822.865234,478
822.983765,497
823.102295,488
823.220825,495
823.339294,480
823.457825,488
823.576355,492
823.694824,481
823.813354,477
823.931885,482
824.050354,482
824.168884,494
824.287354,487
824.405823,501
824.524353,493
824.642822,496
824.761353,481
824.879822,514
824.998291,474
825.116699,472
825.235291,478
825.353699,482
825.472168,478
825.590637,474
825.709106,483
825.827576,470
825.946045,488
826.064453,486
826.182983,483
826.301392,485
826.4198,472
826.53833,474
826.656738,478
826.775208,475
826.893677,482
827.012024,477
827.130493,475
827.248962,465
827.36731,458
827.485779,476
827.604248,472
827.722595,509
827.841064,476
827.959412,471
828.077942,459
828.196289,476
828.314636,457
828.433105,470
828.551514,480
828.669861,449
828.78833,466
828.906677,458
829.025085,453
829.143433,465
829.261841,477
829.38031,465
829.498657,470
829.617004,483
829.735413,461
829.85376,470
829.972107,459
830.090515,451
830.208862,458
830.327209,470
830.445557,471
830.563904,452
830.682312,461
830.800659,468
830.919006,465
831.037354,452
831.155701,466
831.274048,460
831.392395,484
831.51062,445
831.629028,462
831.747314,470
831.865662,462
831.984009,470
832.102356,452
832.220642,453
832.338928,470
832.457275,465
832.575623,468
832.693909,449
832.812134,461
832.930481,455
833.048828,467
833.167114,455
833.2854,469
833.403687,472
833.521973,478
833.640259,464
833.758545,479
833.876831,450
833.995056,462
834.113281,466
834.231628,459
834.349915,461
834.468201,483
834.586426,461
834.704651,466
834.822998,452
834.941162,445
835.059448,447
835.177673,461
835.295959,452
835.414246,456
835.53241,461
835.650635,451
835.768921,466
835.887146,462
836.005371,476
836.123596,475
836.241821,454
836.360046,478
836.478271,482
836.596497,477
836.714722,475
836.832886,484
836.95105,483
837.069336,487
837.1875,478
837.305725,484
837.423889,492
837.542053,479
837.660339,490
837.778503,476
837.896667,465
838.014832,477
838.132996,478
838.25116,496
838.369385,486
838.487488,467
838.605713,478
838.723877,477
838.84198,492
838.960205,492
839.078308,469
839.196472,474
839.314636,474
839.4328,477
839.550964,472
839.669067,480
839.787231,484
839.905396,478
840.023499,479
840.141602,483
840.259766,461
840.377869,482
840.495972,453
840.614136,472
840.732239,450
840.850342,463
840.968445,460
841.086548,486
841.204651,472
841.322754,477
841.440918,471
841.55896,468
841.677002,465
841.795166,452
841.913208,476
842.031311,465
842.149353,477
842.267456,459
842.385498,441
842.503601,476
842.621643,455
842.739746,466
842.857788,456
842.97583,455
843.093933,450
843.211975,469
843.330017,435
843.44812,467
843.566101,446
843.684204,456
843.802246,461
843.920227,479
844.038269,466
844.156311,463
844.274292,465
844.392395,465
844.510376,454
844.628357,462
844.74646,446
844.864441,483
844.982422,471
845.100403,464
845.218384,467
845.336426,456
845.454468,477
845.572449,443
845.69043,460
845.808411,451
845.926453,452
846.044373,464
846.162354,461
846.280396,449
846.398315,442
846.516296,461
846.634216,456
846.752197,457
846.870178,457
846.988098,449
847.106079,453
847.22406,462
847.34198,468
847.4599,466
847.577881,438
847.695801,436
847.813782,454
847.931641,471
848.049561,456
848.167603,454
848.285461,459
848.403381,462
848.521362,459
848.639221,476
848.75708,439
848.875,475
848.99292,455
849.110901,460
849.22876,462
849.34668,459
849.464539,474
849.582458,462
849.700317,446
849.818176,452
849.936096,459
850.053955,461
850.171875,455
850.289673,457
850.407593,455
850.525452,443
850.643311,455
850.761169,441
850.878967,467
850.996887,457
851.114746,434
851.232544,472
851.350403,472
851.468262,451
851.58606,453
851.703979,453
851.821777,443
851.939636,476
852.057434,446
852.175232,466
852.293091,468
852.410889,450
852.528687,463
852.646545,470
852.764343,481
852.88208,467
852.999939,461
853.117676,464
853.235535,457
853.353271,470
853.471069,451
853.588928,479
853.706604,454
853.824402,464
853.9422,467
854.059998,467
854.177734,454
854.295532,449
854.413269,449
854.531006,466
854.648804,445
854.766541,462
854.884277,453
855.002014,479
855.119751,461
855.237549,475
855.355225,459
855.473022,475
855.590698,449
855.708435,449
855.826172,439
855.943848,462
856.061646,461
856.179321,467
856.296997,451
856.414795,453
856.53241,480
856.650085,466
856.767822,461
856.885559,480
857.003174,444
857.120911,467
857.238586,457
857.356201,476
857.473938,461
857.591614,478
857.709351,470
857.826965,461
857.944641,458
858.062317,457
858.179993,464
858.297668,454
858.415283,459
858.532959,478
858.650574,471
858.768188,455
858.885803,452
859.003479,466
859.121094,453
859.23877,461
859.356384,470
859.473999,465
859.591675,446
859.709229,462
859.826843,461
859.944458,471
860.062012,453
860.179626,471
860.297302,464
860.414856,445
860.532471,450
860.650024,463
860.767639,454
860.885193,455
861.002808,433
861.120361,473
861.237976,468
861.35553,456
861.473022,432
861.590698,446
861.708191,457
861.825745,450
861.943298,461
862.060852,456
862.178406,444
862.295959,451
862.413513,462
862.531006,442
862.64856,461
862.766113,453
862.883667,467
863.00116,466
863.118713,444
863.236206,470
863.353699,462
863.471252,445
863.588745,456
863.706177,454
863.82373,436
863.941162,446
864.058716,462
864.176208,463
864.29364,447
864.411194,445
864.528687,466
864.646118,462
864.763611,460
864.881042,476
864.998535,477
865.116028,452
865.233459,456
865.350891,470
865.468384,466
865.585754,457
865.703308,453
865.820679,469
865.938171,458
866.055542,456
866.173035,464
866.290466,438
866.407837,446
866.52533,453
866.6427,450
866.760071,451
866.877563,459
866.994934,458
867.112305,451
867.229736,456
867.347107,453
867.464539,447
867.58197,458
867.699341,465
867.81665,481
867.934082,469
868.051453,448
868.168823,477
868.286194,446
868.403564,460
868.520935,451
868.638306,443
868.755676,440
868.872986,464
868.990295,460
869.107727,475
869.225037,455
869.342346,446
869.459717,479
869.577026,467
869.694336,464
869.811707,449
869.929016,466
870.046326,462
870.163635,448
870.280945,471
870.398254,453
870.515564,470
870.632812,455
870.750183,452
870.867432,476
870.984741,456
871.102051,456
871.219299,452
871.336609,486
871.453918,438
871.571106,462
871.688416,461
871.805664,447
871.922852,469
872.040222,467
872.157471,461
872.274719,462
872.391968,449
872.509155,474
872.626465,467
872.743652,458
872.860962,461
872.978149,464
873.095337,469
873.212646,449
873.329834,463
873.44696,440
873.564209,449
873.681396,466
873.798645,455
873.915894,463
874.03302,460
874.150208,454
874.267456,461
874.384583,452
874.501831,434
874.618958,462
874.736145,460
874.853333,444
874.970459,481
875.087646,441
875.204834,464
875.32196,462
875.439148,464
875.556274,468
875.673401,454
875.790527,446
875.907715,466
876.024841,477
876.141968,463
876.259094,473
876.376282,430
876.493347,459
876.610474,459
876.7276,445
876.844727,459
876.961853,460
877.078918,471
877.195984,473
877.313171,450
877.430237,453
877.547302,475
877.664368,443
877.781433,442
877.898499,463
878.015625,454
878.13269,460
878.249695,457
878.366821,457
878.483887,452
878.600952,468
878.717957,459
878.834961,452
878.952087,458
879.069092,455
879.186157,472
879.303162,476
879.420227,451
879.537231,464
879.654236,458
879.77124,459
879.888306,449
880.005249,453
880.122314,460
880.239319,468
880.356323,447
880.473328,441
880.590271,475
880.707275,461
880.824341,461
880.941284,445
881.058228,459
881.175232,472
881.292236,462
881.40918,443
881.526123,467
881.643066,461
881.760071,468
881.877014,455
881.993958,466
882.11084,456
882.227783,468
882.344727,433
882.46167,469
882.578613,452
882.695618,461
882.812439,452
882.929382,461
883.046326,447
883.163208,475
883.280151,456
883.397034,456
883.513916,447
883.630798,455
883.747742,474
883.864563,471
883.981506,447
884.098389,445
884.21521,448
884.332153,460
884.448975,460
884.565796,464
884.682678,449
884.7995,457
884.916443,469
885.033264,466
885.150085,471
885.266968,484
885.383789,475
885.500671,453
885.617493,471
885.734314,470
885.851196,471
885.967896,465
886.084717,469
886.201599,479
886.318359,460
886.435181,467
886.552002,477
886.668762,471
886.785645,469
886.902344,466
887.019165,430
887.135925,486
887.252747,472
887.369446,478
887.486267,467
887.603027,470
887.719788,452
887.836548,484
887.953247,466
888.070068,490
888.186829,453
888.303528,448
888.420288,457
888.536987,458
888.653687,453
888.770447,470
888.887146,442
889.003967,450
889.120667,482
889.237305,442
889.354065,454
889.470703,461
889.587463,446
889.704163,462
889.820862,447
889.937561,464
890.054199,454
890.170837,452
890.287598,452
890.404236,461
890.520874,473
890.637634,470
890.754211,471
890.87085,450
890.987549,458
891.104187,463
891.220886,458
891.337463,469
891.454102,465
891.57074,458
891.687378,462
891.804077,478
891.920654,468
892.037231,453
892.15387,460
892.270447,455
892.387085,467
892.503723,463
892.6203,480
892.736877,475
892.853516,462
892.970032,451
893.08667,460
893.203186,457
893.319763,472
893.43634,468
893.552917,472
893.669556,469
893.786011,451
893.902588,463
894.019165,441
894.135681,474
894.252197,450
894.368835,465
894.485291,457
894.601868,466
894.718384,457
894.8349,454
894.951355,463
895.067932,467
895.184448,457
895.300964,472
895.417419,436
895.533936,480
895.650452,480
895.766907,455
895.883423,474
895.999878,464
896.116333,449
896.232849,465
896.349304,471
896.465759,465
896.582214,485
896.698669,468
896.815125,459
896.931641,459
897.048035,452
897.164551,456
897.280884,449
897.397339,465
897.513794,481
897.630249,459
897.746582,475
897.863098,475
897.979431,443
898.095886,454
898.212341,451
898.328674,485
898.445129,473
898.561462,477
898.677795,470
898.794312,463
898.910645,447
899.026978,465
899.143433,456
899.259766,479
899.37616,461
899.492493,475
899.608765,465
899.725159,468
899.841553,464
899.957947,475
900.07428,468
900.190552,467
900.306946,470
900.423157,462
900.53949,455
900.655884,457
900.772156,462
900.888489,461
901.004822,460
901.121033,454
901.237366,458
901.353699,465
901.46991,487
901.586304,468
901.702515,473
901.818787,464
901.93512,482
902.051331,469
902.167603,468
902.283875,474
902.400085,461
902.516418,469
902.632629,471
902.74884,461
902.865112,462
902.981384,484
903.097595,462
903.213867,483
903.330017,471
903.446289,474
903.5625,500
903.67865,490
903.794922,474
903.911072,474
904.027344,464
904.143494,470
904.259705,471
904.375916,466
904.492065,479
904.608215,480
904.724426,478
904.840576,462
904.956726,464
905.072876,479
905.189087,465
905.305176,487
905.421387,466
905.537537,467
905.653687,473
905.769775,460
905.885925,467
906.002014,447
906.118164,462
906.234314,470
906.350403,483
906.466492,461
906.582642,462
906.69873,477
906.814758,468
906.930908,492
907.046936,460
907.163086,455
907.279175,459
907.395264,479
907.511353,442
907.62738,477
907.743408,464
907.859497,466
907.975525,467
908.091553,468
908.207703,476
908.32373,458
908.439758,456
908.555786,467
908.671814,462
908.787842,457
908.90387,496
909.019775,480
909.135864,469
909.251892,471
909.367859,482
909.483826,484
909.599854,469
909.715881,479
909.831848,450
909.947815,478
910.063782,462
910.179749,480
910.295776,461
910.411743,473
910.527649,473
910.643616,484
910.759583,497
910.875488,485
910.991455,463
911.107361,468
911.223267,461
911.339294,495
911.4552,470
911.571106,455
911.687073,460
911.802979,452
911.918823,465
912.034729,474
912.150635,451
912.266602,457
912.382446,462
912.498352,465
912.614197,467
912.730103,472
912.846008,474
792.44574,638
792.56488,688
792.68396,721
792.80304,705
792.92218,651
793.041199,638
793.160339,646
793.279419,663
793.398499,646
793.517578,616
793.636658,641
793.755737,635
793.874817,655
793.993896,638
794.112976,639
794.232056,632
794.351074,637
794.470215,627
794.589233,596
794.708313,617
794.827393,617
794.946411,619
795.065552,605
795.18457,613
795.303589,612
795.422668,618
795.541687,630
795.660767,591
795.779846,609
795.898865,602
796.017883,605
796.136963,605
796.255981,609
796.375061,598
796.49408,626
796.613037,596
796.732117,586
796.851135,612
796.970154,591
797.089233,591
797.208191,598
797.327271,576
797.446228,589
797.565186,578
797.684265,625
797.803223,594
797.922241,592
798.04126,593
798.160278,593
798.279297,581
798.398315,593
798.517273,580
798.636292,589
798.75531,588
798.874268,591
798.993286,602
799.112244,596
799.231323,613
799.350281,598
799.469238,587
799.588257,580
799.707153,584
799.826111,602
799.945129,592
800.064087,607
800.183044,591
800.302063,596
800.421021,577
800.539978,592
800.658936,596
800.777893,574
800.896912,584
801.015747,604
801.134705,568
801.253723,589
801.37262,571
801.491638,586
801.610535,598
801.729492,587
801.84845,597
801.967407,601
802.086243,602
802.205261,570
802.324158,589
802.443115,590
802.562073,573
802.680969,591
802.799927,582
802.918762,611
803.037659,603
803.156677,594
803.275574,586
803.39447,621
803.513428,583
803.632263,612
803.751221,606
803.870117,596
803.989014,593
804.107971,621
804.226746,618
804.345642,594
804.4646,607
804.583496,617
804.702393,631
804.821228,589
804.940125,604
805.059021,618
805.177917,600
805.296814,607
805.415649,588
805.534546,601
805.653442,581
805.772278,605
805.891113,588
806.01001,606
806.128906,626
806.247742,619
806.366577,603
806.485413,603
806.604309,621
806.723145,637
806.84198,609
806.960876,616
807.079712,575
807.198486,590
807.317383,612
807.436218,625
807.554993,630
807.673889,598
807.792725,619
807.91156,619
808.030396,615
808.14917,603
808.268005,609
808.386841,612
808.505676,622
808.624451,598
808.743286,645
808.862122,607
808.980896,636
809.099731,616
809.218506,630
809.337341,616
809.456116,614
809.57489,625
809.693726,634
809.8125,615
809.931274,647
810.050049,633
810.168884,638
810.287659,657
810.406372,635
810.525269,614
810.643982,630
810.762756,637
810.881531,624
811.000305,632
811.11908,595
811.237854,637
811.356567,648
811.475403,650
811.594116,624
811.71283,639
811.831604,613
811.950378,616
812.069153,644
812.187927,645
812.30658,668
812.425415,626
812.544128,642
812.662781,637
812.781616,635
812.900269,631
813.019043,632
813.137756,632
813.256531,629
813.375244,619
813.493896,634
813.612671,636
813.731384,604
813.850037,617
813.96875,648
814.087524,620
814.206238,630
814.324951,588
814.443604,596
814.562256,619
814.68103,633
814.799683,614
814.918335,613
815.037109,623
815.155762,610
815.274475,607
815.393188,625
815.511841,626
815.630554,613
815.749146,614
815.867859,612
815.986572,608
816.105164,610
816.223877,624
816.342529,607
816.461182,622
816.579895,614
816.698486,613
816.817139,610
816.935791,633
817.054504,625
817.173096,619
817.291748,612
817.4104,622
817.529053,589
817.647644,578
817.766235,595
817.884949,573
818.00354,567
818.122192,581
818.240845,548
818.359436,553
818.478088,555
818.59668,555
818.715271,550
818.833923,535
818.952515,543
819.071106,522
819.189758,513
819.30835,522
819.426941,520
819.545532,488
819.664124,504
819.782715,515
819.901306,501
820.019897,515
820.138489,499
820.25708,504
820.375671,487
820.494202,477
820.612732,503
820.731384,496
820.849915,490
820.968506,504
821.087097,506
821.205627,514
821.324158,491
821.442749,498
821.561279,489
821.679871,483
821.798401,488
821.916931,497
822.035461,486
822.154053,489
822.272583,479
822.391174,484
822.509583,476
822.628174,494
822.746704,480
822.865234,491
822.983765,489
823.102295,479
823.220825,468
823.339294,485
823.457825,476
823.576355,475
823.694824,485
823.813354,498
823.931885,498
824.050354,513
824.168884,494
824.287354,476
824.405823,493
824.524353,501
824.642822,508
824.761353,499
824.879822,473
824.998291,491
825.116699,503
825.235291,504
825.353699,476
825.472168,483
825.590637,463
825.709106,490
825.827576,475
825.946045,449
826.064453,465
826.182983,470
826.301392,480
826.4198,469
826.53833,489
826.656738,499
826.775208,475
826.893677,470
827.012024,457
827.130493,462
827.248962,460
827.36731,478
827.485779,482
827.604248,471
827.722595,480
827.841064,468
827.959412,475
828.077942,473
828.196289,476
828.314636,482
828.433105,480
828.551514,486
828.669861,445
828.78833,474
828.906677,454
829.025085,470
829.143433,452
829.261841,459
829.38031,468
829.498657,458
829.617004,454
829.735413,479
829.85376,445
829.972107,461
830.090515,471
830.208862,454
830.327209,472
830.445557,477
830.563904,460
830.682312,479
830.800659,450
830.919006,458
831.037354,488
831.155701,467
831.274048,464
831.392395,469
831.51062,458
831.629028,459
831.747314,459
831.865662,469
831.984009,477
832.102356,475
832.220642,461
832.338928,473
832.457275,469
832.575623,470
832.693909,455
832.812134,454
832.930481,453
833.048828,453
833.167114,451
833.2854,473
833.403687,464
833.521973,472
833.640259,471
833.758545,501
833.876831,445
833.995056,477
834.113281,466
834.231628,461
834.349915,458
834.468201,449
834.586426,453
834.704651,484
834.822998,478
834.941162,472
835.059448,489
835.177673,453
835.295959,458
835.414246,471
835.53241,470
835.650635,451
835.768921,456
835.887146,482
836.005371,478
836.123596,457
836.241821,465
836.360046,445
836.478271,478
836.596497,468
836.714722,467
836.832886,469
836.95105,465
837.069336,492
837.1875,463
837.305725,481
837.423889,462
837.542053,471
837.660339,464
837.778503,498
837.896667,491
838.014832,483
838.132996,467
838.25116,480
838.369385,472
838.487488,483
838.605713,466
838.723877,465
838.84198,475
838.960205,475
839.078308,471
839.196472,495
839.314636,473
839.4328,485
839.550964,479
839.669067,466
839.787231,481
839.905396,476
840.023499,481
840.141602,458
840.259766,480
840.377869,461
840.495972,472
840.614136,463
840.732239,487
840.850342,472
840.968445,473
841.086548,476
841.204651,461
841.322754,478
841.440918,455
841.55896,475
841.677002,467
841.795166,478
841.913208,477
842.031311,477
842.149353,448
842.267456,484
842.385498,474
842.503601,472
842.621643,452
842.739746,467
842.857788,483
842.97583,452
843.093933,467
843.211975,447
843.330017,461
843.44812,469
843.566101,463
843.684204,438
843.802246,458
843.920227,484
844.038269,452
844.156311,459
844.274292,456
844.392395,460
844.510376,464
844.628357,480
844.74646,466
844.864441,456
844.982422,472
845.100403,466
845.218384,456
845.336426,468
845.454468,453
845.572449,432
845.69043,462
845.808411,458
845.926453,467
846.044373,472
846.162354,450
846.280396,457
846.398315,454
846.516296,473
846.634216,452
846.752197,458
846.870178,459
846.988098,464
847.106079,454
847.22406,466
847.34198,449
847.4599,458
847.577881,440
847.695801,465
847.813782,453
847.931641,455
848.049561,448
848.167603,462
848.285461,443
848.403381,447
848.521362,465
848.639221,470
848.75708,448
848.875,483
848.99292,457
849.110901,458
849.22876,451
849.34668,437
849.464539,461
849.582458,453
849.700317,462
849.818176,464
849.936096,465
850.053955,456
850.171875,456
850.289673,478
850.407593,448
850.525452,470
850.643311,450
850.761169,453
850.878967,447
850.996887,467
851.114746,439
851.232544,468
851.350403,461
851.468262,463
851.58606,451
851.703979,468
851.821777,460
851.939636,453
852.057434,438
852.175232,456
852.293091,473
852.410889,448
852.528687,474
852.646545,459
852.764343,461
852.88208,454
852.999939,468
853.117676,459
853.235535,452
853.353271,454
853.471069,471
853.588928,456
853.706604,475
853.824402,449
853.9422,460
854.059998,452
854.177734,456
854.295532,463
854.413269,455
854.531006,454
854.648804,459
854.766541,479
854.884277,464
855.002014,465
855.119751,453
855.237549,477
855.355225,469
855.473022,468
855.590698,460
855.708435,474
855.826172,454
855.943848,462
856.061646,444
856.179321,446
856.296997,442
856.414795,484
856.53241,472
856.650085,463
856.767822,448
856.885559,466
857.003174,473
857.120911,486
857.238586,463
857.356201,462
857.473938,454
857.591614,474
857.709351,460
857.826965,455
857.944641,464
858.062317,469
858.179993,477
858.297668,458
858.415283,471
858.532959,476
858.650574,466
858.768188,463
858.885803,485
859.003479,461
859.121094,458
859.23877,482
859.356384,449
859.473999,476
859.591675,478
859.709229,462
859.826843,448
859.944458,476
860.062012,463
860.179626,448
860.297302,442
860.414856,461
860.532471,449
860.650024,464
860.767639,463
860.885193,473
861.002808,450
861.120361,465
861.237976,451
861.35553,455
861.473022,464
861.590698,477
861.708191,463
861.825745,465
861.943298,448
862.060852,463
862.178406,433
862.295959,469
862.413513,457
862.531006,460
862.64856,456
862.766113,468
862.883667,449
863.00116,467
863.118713,449
863.236206,457
863.353699,455
863.471252,452
863.588745,469
863.706177,455
863.82373,438
863.941162,470
864.058716,477
864.176208,463
864.29364,444
864.411194,460
864.528687,459
864.646118,456
864.763611,468
864.881042,444
864.998535,455
865.116028,455
865.233459,455
865.350891,447
865.468384,459
865.585754,457
865.703308,460
865.820679,478
865.938171,466
866.055542,468
866.173035,442
866.290466,442
866.407837,475
866.52533,470
866.6427,436
866.760071,455
866.877563,466
866.994934,489
867.112305,460
867.229736,477
867.347107,459
867.464539,462
867.58197,449
867.699341,447
867.81665,445
867.934082,458
868.051453,466
868.168823,466
868.286194,448
868.403564,456
868.520935,447
868.638306,448
868.755676,460
868.872986,464
868.990295,451
869.107727,453
869.225037,452
869.342346,448
869.459717,490
869.577026,462
869.694336,455
869.811707,479
869.929016,455
870.046326,466
870.163635,479
870.280945,468
870.398254,455
870.515564,484
870.632812,451
870.750183,457
870.867432,465
870.984741,474
871.102051,457
871.219299,459
871.336609,462
871.453918,481
871.571106,428
871.688416,475
871.805664,466
871.922852,477
872.040222,462
872.157471,459
872.274719,452
872.391968,496
872.509155,466
872.626465,459
872.743652,447
872.860962,472
872.978149,445
873.095337,469
873.212646,456
873.329834,468
873.44696,472
873.564209,475
873.681396,447
873.798645,479
873.915894,447
874.03302,459
874.150208,439
874.267456,458
874.384583,462
874.501831,455
874.618958,452
874.736145,469
874.853333,453
874.970459,453
875.087646,455
875.204834,468
875.32196,460
875.439148,467
875.556274,475
875.673401,476
875.790527,445
875.907715,450
876.024841,468
876.141968,447
876.259094,449
876.376282,462
876.493347,474
876.610474,454
876.7276,448
876.844727,461
876.961853,461
877.078918,459
877.195984,447
877.313171,481
877.430237,462
877.547302,463
877.664368,451
877.781433,449
877.898499,444
878.015625,458
878.13269,447
878.249695,460
878.366821,456
878.483887,466
878.600952,477
878.717957,454
878.834961,453
878.952087,466
879.069092,439
879.186157,465
879.303162,457
879.420227,464
879.537231,452
879.654236,446
879.77124,467
879.888306,461
880.005249,446
880.122314,464
880.239319,459
880.356323,458
880.473328,436
880.590271,469
880.707275,455
880.824341,467
880.941284,471
881.058228,480
881.175232,468
881.292236,443
881.40918,444
881.526123,465
881.643066,461
881.760071,443
881.877014,457
881.993958,478
882.11084,470
882.227783,458
882.344727,446
882.46167,472
882.578613,457
882.695618,459
882.812439,460
882.929382,469
883.046326,459
883.163208,466
883.280151,448
883.397034,455
883.513916,465
883.630798,470
883.747742,461
883.864563,470
883.981506,476
884.098389,460
884.21521,468
884.332153,479
884.448975,471
884.565796,467
884.682678,477
884.7995,460
884.916443,445
885.033264,470
885.150085,480
885.266968,467
885.383789,473
885.500671,466
885.617493,456
885.734314,471
885.851196,451
885.967896,481
886.084717,465
886.201599,468
886.318359,452
886.435181,484
886.552002,482
886.668762,468
886.785645,471
886.902344,480
887.019165,476
887.135925,462
887.252747,469
887.369446,475
887.486267,476
887.603027,453
887.719788,471
887.836548,479
887.953247,469
888.070068,469
888.186829,452
888.303528,462
888.420288,464
888.536987,475
888.653687,454
888.770447,473
888.887146,461
889.003967,447
889.120667,470
889.237305,480
889.354065,467
889.470703,475
889.587463,438
889.704163,465
889.820862,452
889.937561,486
890.054199,460
890.170837,452
890.287598,447
890.404236,475
890.520874,463
890.637634,455
890.754211,448
890.87085,456
890.987549,456
891.104187,448
891.220886,464
891.337463,456
891.454102,479
891.57074,457
891.687378,454
891.804077,477
891.920654,442
892.037231,451
892.15387,456
892.270447,469
892.387085,460
892.503723,452
892.6203,476
892.736877,460
892.853516,467
892.970032,449
893.08667,442
893.203186,464
893.319763,469
893.43634,472
893.552917,466
893.669556,451
893.786011,464
893.902588,454
894.019165,453
894.135681,449
894.252197,475
894.368835,464
894.485291,466
894.601868,469
894.718384,467
894.8349,472
894.951355,464
895.067932,453
895.184448,463
895.300964,467
895.417419,476
895.533936,473
895.650452,480
895.766907,470
895.883423,462
895.999878,466
896.116333,467
896.232849,470
896.349304,464
896.465759,460
896.582214,469
896.698669,459
896.815125,465
896.931641,467
897.048035,473
897.164551,450
897.280884,471
897.397339,469
897.513794,463
897.630249,460
897.746582,468
897.863098,457
897.979431,446
898.095886,472
898.212341,452
898.328674,458
898.445129,470
898.561462,476
898.677795,466
898.794312,476
898.910645,477
899.026978,482
899.143433,466
899.259766,480
899.37616,450
899.492493,467
899.608765,449
899.725159,466
899.841553,460
899.957947,485
900.07428,456
900.190552,477
900.306946,456
900.423157,453
900.53949,479
900.655884,456
900.772156,464
900.888489,466
901.004822,479
901.121033,449
901.237366,473
901.353699,476
901.46991,460
901.586304,490
901.702515,463
901.818787,473
901.93512,469
902.051331,489
902.167603,466
902.283875,480
902.400085,460
902.516418,486
902.632629,470
902.74884,482
902.865112,470
902.981384,465
903.097595,468
903.213867,498
903.330017,477
903.446289,463
903.5625,471
903.67865,473
903.794922,471
903.911072,475
904.027344,490
904.143494,447
904.259705,478
904.375916,477
904.492065,462
904.608215,477
904.724426,463
904.840576,478
904.956726,484
905.072876,461
905.189087,472
905.305176,477
905.421387,457
905.537537,465
905.653687,469
905.769775,469
905.885925,476
906.002014,474
906.118164,450
906.234314,454
906.350403,478
906.466492,473
906.582642,457
906.69873,460
906.814758,477
906.930908,468
907.046936,477
907.163086,491
907.279175,453
907.395264,463
907.511353,449
907.62738,473
907.743408,468
907.859497,475
907.975525,457
908.091553,464
908.207703,469
908.32373,478
908.439758,468
908.555786,462
908.671814,472
908.787842,476
908.90387,458
909.019775,463
909.135864,456
909.251892,479
909.367859,478
909.483826,490
909.599854,454
909.715881,472
909.831848,460
909.947815,479
910.063782,459
910.179749,473
910.295776,480
910.411743,460
910.527649,460
910.643616,470
910.759583,464
910.875488,474
910.991455,484
911.107361,479
911.223267,446
911.339294,467
911.4552,475
911.571106,459
911.687073,462
911.802979,480
911.918823,480
912.034729,501
912.150635,479
912.266602,488
912.382446,471
912.498352,467
912.614197,459
912.730103,483
912.846008,445
