792.44574,757
792.56488,820
792.68396,841
792.80304,788
792.92218,746
793.041199,736
793.160339,731
793.279419,741
793.398499,725
793.517578,713
793.636658,702
793.755737,696
793.874817,694
793.993896,682
794.112976,680
794.232056,672
794.351074,664
794.470215,688
794.589233,665
794.708313,662
794.827393,658
794.946411,644
795.065552,636
795.18457,632
795.303589,630
795.422668,631
795.541687,603
795.660767,618
795.779846,622
795.898865,600
796.017883,646
796.136963,598
796.255981,603
796.375061,599
796.49408,601
796.613037,594
796.732117,594
796.851135,568
796.970154,603
797.089233,591
797.208191,579
797.327271,590
797.446228,598
797.565186,574
797.684265,568
797.803223,576
797.922241,600
798.04126,571
798.160278,557
798.279297,596
798.398315,549
798.517273,565
798.636292,548
798.75531,561
798.874268,564
798.993286,568
799.112244,575
799.231323,562
799.350281,571
799.469238,568
799.588257,573
799.707153,551
799.826111,544
799.945129,571
800.064087,543
800.183044,552
800.302063,532
800.421021,567
800.539978,544
800.658936,543
800.777893,551
800.896912,556
801.015747,540
801.134705,567
801.253723,540
801.37262,516
801.491638,554
801.610535,534
801.729492,553
801.84845,541
801.967407,535
802.086243,544
802.205261,522
802.324158,546
802.443115,531
802.562073,543
802.680969,541
802.799927,519
802.918762,531
803.037659,531
803.156677,535
803.275574,527
803.39447,555
803.513428,517
803.632263,547
803.751221,531
803.870117,547
803.989014,545
804.107971,510
804.226746,510
804.345642,515
804.4646,517
804.583496,523
804.702393,523
804.821228,504
804.940125,533
805.059021,520
805.177917,546
805.296814,502
805.415649,528
805.534546,510
805.653442,495
805.772278,532
805.891113,511
806.01001,549
806.128906,501
806.247742,529
806.366577,515
806.485413,549
806.604309,513
806.723145,523
806.84198,527
806.960876,496
807.079712,508
807.198486,526
807.317383,538
807.436218,542
807.554993,514
807.673889,517
807.792725,501
807.91156,531
808.030396,522
808.14917,516
808.268005,486
808.386841,515
808.505676,506
808.624451,517
808.743286,516
808.862122,499
808.980896,527
809.099731,503
809.218506,521
809.337341,512
809.456116,509
809.57489,519
809.693726,525
809.8125,528
809.931274,501
810.050049,514
810.168884,519
810.287659,521
810.406372,533
810.525269,522
810.643982,497
810.762756,511
810.881531,507
811.000305,511
811.11908,501
811.237854,526
811.356567,515
811.475403,526
811.594116,515
811.71283,504
811.831604,529
811.950378,530
812.069153,512
812.187927,526
812.30658,536
812.425415,512
812.544128,509
812.662781,505
812.781616,492
812.900269,502
813.019043,508
813.137756,524
813.256531,501
813.375244,512
813.493896,502
813.612671,504
813.731384,517
813.850037,521
813.96875,485
814.087524,509
814.206238,527
814.324951,505
814.443604,496
814.562256,500
814.68103,507
814.799683,499
814.918335,526
815.037109,507
815.155762,522
815.274475,505
815.393188,488
815.511841,515
815.630554,492
815.749146,506
815.867859,514
815.986572,505
816.105164,495
816.223877,506
816.342529,509
816.461182,498
816.579895,517
816.698486,523
816.817139,505
816.935791,510
817.054504,522
817.173096,502
817.291748,486
817.4104,499
817.529053,494
817.647644,520
817.766235,505
817.884949,503
818.00354,497
818.122192,513
818.240845,491
818.359436,500
818.478088,495
818.59668,496
818.715271,513
818.833923,504
818.952515,485
819.071106,509
819.189758,497
819.30835,495
819.426941,488
819.545532,494
819.664124,498
819.782715,519
819.901306,519
820.019897,485
820.138489,472
820.25708,490
820.375671,465
820.494202,494
820.612732,511
820.731384,489
820.849915,498
820.968506,480
821.087097,478
821.205627,483
821.324158,483
821.442749,506
821.561279,463
821.679871,480
821.798401,475
821.916931,482
822.035461,494
822.154053,499
822.272583,487
822.391174,483
822.509583,482
822.628174,490
822.746704,487
822.865234,479
822.983765,476
823.102295,481
823.220825,473
823.339294,475
823.457825,472
823.576355,490
823.694824,458
823.813354,486
823.931885,475
824.050354,472
824.168884,475
824.287354,489
824.405823,462
824.524353,492
824.642822,486
824.761353,474
824.879822,454
824.998291,475
825.116699,487
825.235291,481
825.353699,492
825.472168,477
825.590637,464
825.709106,476
825.827576,478
825.946045,465
826.064453,467
826.182983,470
826.301392,484
826.4198,466
826.53833,482
826.656738,455
826.775208,452
826.893677,500
827.012024,471
827.130493,478
827.248962,463
827.36731,479
827.485779,481
827.604248,437
827.722595,467
827.841064,471
827.959412,467
828.077942,475
828.196289,485
828.314636,471
828.433105,466
828.551514,468
828.669861,470
828.78833,473
828.906677,459
829.025085,467
829.143433,492
829.261841,472
829.38031,475
829.498657,472
829.617004,453
829.735413,472
829.85376,478
829.972107,477
830.090515,468
830.208862,473
830.327209,451
830.445557,466
830.563904,497
830.682312,479
830.800659,487
830.919006,485
831.037354,492
831.155701,480
831.274048,472
831.392395,477
831.51062,473
831.629028,474
831.747314,461
831.865662,502
831.984009,477
832.102356,471
832.220642,466
832.338928,480
832.457275,488
832.575623,471
832.693909,471
832.812134,474
832.930481,477
833.048828,489
833.167114,477
833.2854,478
833.403687,454
833.521973,487
833.640259,468
833.758545,465
833.876831,463
833.995056,479
834.113281,486
834.231628,502
834.349915,463
834.468201,486
834.586426,484
834.704651,485
834.822998,463
834.941162,471
835.059448,473
835.177673,480
835.295959,458
835.414246,471
835.53241,469
835.650635,453
835.768921,444
835.887146,482
836.005371,481
836.123596,485
836.241821,471
836.360046,490
836.478271,478
836.596497,485
836.714722,450
836.832886,479
836.95105,486
837.069336,475
837.1875,474
837.305725,481
837.423889,471
837.542053,486
837.660339,484
837.778503,472
837.896667,459
838.014832,486
838.132996,463
838.25116,478
838.369385,469
838.487488,489
838.605713,471
838.723877,495
838.84198,470
838.960205,490
839.078308,468
839.196472,476
839.314636,464
839.4328,470
839.550964,480
839.669067,481
839.787231,477
839.905396,486
840.023499,486
840.141602,486
840.259766,481
840.377869,497
840.495972,472
840.614136,491
840.732239,482
840.850342,494
840.968445,485
841.086548,485
841.204651,483
841.322754,498
841.440918,495
841.55896,489
841.677002,492
841.795166,513
841.913208,504
842.031311,490
842.149353,471
842.267456,487
842.385498,497
842.503601,496
842.621643,481
842.739746,496
842.857788,491
842.97583,491
843.093933,487
843.211975,515
843.330017,483
843.44812,502
843.566101,492
843.684204,516
843.802246,503
843.920227,482
844.038269,476
844.156311,496
844.274292,484
844.392395,498
844.510376,483
844.628357,478
844.74646,470
844.864441,504
844.982422,495
845.100403,505
845.218384,489
845.336426,486
845.454468,475
845.572449,507
845.69043,485
845.808411,489
845.926453,447
846.044373,471
846.162354,486
846.280396,475
846.398315,471
846.516296,491
846.634216,482
846.752197,475
846.870178,503
846.988098,477
847.106079,492
847.22406,484
847.34198,477
847.4599,468
847.577881,465
847.695801,480
847.813782,484
847.931641,472
848.049561,472
848.167603,490
848.285461,475
848.403381,480
848.521362,470
848.639221,475
848.75708,495
848.875,508
848.99292,476
849.110901,485
849.22876,483
849.34668,473
849.464539,487
849.582458,507
849.700317,506
849.818176,509
849.936096,499
850.053955,500
850.171875,500
850.289673,477
850.407593,489
850.525452,473
850.643311,490
850.761169,495
850.878967,488
850.996887,488
851.114746,480
851.232544,488
851.350403,454
851.468262,483
851.58606,471
851.703979,490
851.821777,469
851.939636,487
852.057434,504
852.175232,493
852.293091,481
852.410889,514
852.528687,476
852.646545,511
852.764343,498
852.88208,522
852.999939,491
853.117676,497
853.235535,487
853.353271,491
853.471069,486
853.588928,485
853.706604,483
853.824402,462
853.9422,485
854.059998,490
854.177734,468
854.295532,480
854.413269,457
854.531006,496
854.648804,485
854.766541,475
854.884277,500
855.002014,494
855.119751,483
855.237549,517
855.355225,481
855.473022,482
855.590698,484
855.708435,499
855.826172,491
855.943848,491
856.061646,501
856.179321,516
856.296997,475
856.414795,491
856.53241,501
856.650085,501
856.767822,481
856.885559,505
857.003174,485
857.120911,496
857.238586,502
857.356201,485
857.473938,503
857.591614,490
857.709351,478
857.826965,498
857.944641,480
858.062317,498
858.179993,509
858.297668,477
858.415283,492
858.532959,497
858.650574,494
858.768188,497
858.885803,480
859.003479,499
859.121094,503
859.23877,497
859.356384,484
859.473999,502
859.591675,482
859.709229,512
859.826843,484
859.944458,500
860.062012,483
860.179626,462
860.297302,476
860.414856,503
860.532471,485
860.650024,483
860.767639,484
860.885193,481
861.002808,462
861.120361,484
861.237976,494
861.35553,483
861.473022,471
861.590698,497
861.708191,482
861.825745,479
861.943298,478
862.060852,479
862.178406,456
862.295959,462
862.413513,487
862.531006,469
862.64856,462
862.766113,466
862.883667,467
863.00116,488
863.118713,468
863.236206,485
863.353699,473
863.471252,465
863.588745,490
863.706177,483
863.82373,473
863.941162,468
864.058716,487
864.176208,504
864.29364,472
864.411194,484
864.528687,474
864.646118,486
864.763611,474
864.881042,469
864.998535,477
865.116028,479
865.233459,458
865.350891,486
865.468384,469
865.585754,490
865.703308,468
865.820679,482
865.938171,460
866.055542,456
866.173035,490
866.290466,496
866.407837,464
866.52533,478
866.6427,485
866.760071,474
866.877563,456
866.994934,490
867.112305,460
867.229736,476
867.347107,469
867.464539,466
867.58197,466
867.699341,478
867.81665,479
867.934082,484
868.051453,469
868.168823,487
868.286194,459
868.403564,474
868.520935,475
868.638306,463
868.755676,473
868.872986,474
868.990295,463
869.107727,477
869.225037,479
869.342346,502
869.459717,495
869.577026,491
869.694336,480
869.811707,491
869.929016,481
870.046326,487
870.163635,495
870.280945,470
870.398254,474
870.515564,506
870.632812,496
870.750183,505
870.867432,500
870.984741,492
871.102051,488
871.219299,518
871.336609,492
871.453918,514
871.571106,490
871.688416,490
871.805664,502
871.922852,510
872.040222,506
872.157471,508
872.274719,501
872.391968,513
872.509155,493
872.626465,496
872.743652,482
872.860962,494
872.978149,470
873.095337,508
873.212646,503
873.329834,491
873.44696,495
873.564209,477
873.681396,480
873.798645,495
873.915894,489
874.03302,476
874.150208,495
874.267456,485
874.384583,486
874.501831,484
874.618958,482
874.736145,509
874.853333,513
874.970459,508
875.087646,472
875.204834,484
875.32196,513
875.439148,490
875.556274,496
875.673401,485
875.790527,486
875.907715,510
876.024841,491
876.141968,506
876.259094,501
876.376282,471
876.493347,474
876.610474,487
876.7276,491
876.844727,464
876.961853,472
877.078918,487
877.195984,497
877.313171,469
877.430237,483
877.547302,491
877.664368,477
877.781433,515
877.898499,490
878.015625,464
878.13269,478
878.249695,499
878.366821,471
878.483887,461
878.600952,477
878.717957,482
878.834961,480
878.952087,475
879.069092,472
879.186157,486
879.303162,453
879.420227,496
879.537231,451
879.654236,482
879.77124,458
879.888306,495
880.005249,464
880.122314,492
880.239319,460
880.356323,480
880.473328,478
880.590271,480
880.707275,446
880.824341,473
880.941284,453
881.058228,473
881.175232,462
881.292236,465
881.40918,456
881.526123,479
881.643066,465
881.760071,469
881.877014,466
881.993958,476
882.11084,459
882.227783,493
882.344727,462
882.46167,477
882.578613,469
882.695618,471
882.812439,464
882.929382,484
883.046326,458
883.163208,466
883.280151,488
883.397034,493
883.513916,483
883.630798,464
883.747742,467
883.864563,484
883.981506,475
884.098389,482
884.21521,479
884.332153,500
884.448975,488
884.565796,491
884.682678,482
884.7995,494
884.916443,493
885.033264,521
885.150085,511
885.266968,526
885.383789,558
885.500671,537
885.617493,539
885.734314,546
885.851196,540
885.967896,518
886.084717,517
886.201599,539
886.318359,510
886.435181,511
886.552002,537
886.668762,512
886.785645,497
886.902344,532
887.019165,521
887.135925,515
887.252747,497
887.369446,513
887.486267,505
887.603027,502
887.719788,502
887.836548,493
887.953247,497
888.070068,498
888.186829,483
888.303528,480
888.420288,497
888.536987,467
888.653687,479
888.770447,472
888.887146,462
889.003967,460
889.120667,468
889.237305,442
889.354065,472
889.470703,479
889.587463,464
889.704163,467
889.820862,466
889.937561,476
890.054199,481
890.170837,482
890.287598,459
890.404236,457
890.520874,478
890.637634,464
890.754211,450
890.87085,473
890.987549,472
891.104187,468
891.220886,475
891.337463,464
891.454102,458
891.57074,465
891.687378,455
891.804077,471
891.920654,469
892.037231,479
892.15387,454
892.270447,469
892.387085,483
892.503723,467
892.6203,470
892.736877,478
892.853516,484
892.970032,477
893.08667,437
893.203186,474
893.319763,456
893.43634,463
893.552917,459
893.669556,465
893.786011,462
893.902588,481
894.019165,460
894.135681,479
894.252197,460
894.368835,472
894.485291,460
894.601868,465
894.718384,461
894.8349,475
894.951355,460
895.067932,464
895.184448,452
895.300964,459
895.417419,460
895.533936,453
895.650452,450
895.766907,449
895.883423,466
895.999878,457
896.116333,467
896.232849,468
896.349304,458
896.465759,467
896.582214,468
896.698669,454
896.815125,447
896.931641,467
897.048035,454
897.164551,432
897.280884,450
897.397339,459
897.513794,465
897.630249,475
897.746582,446
897.863098,465
897.979431,462
898.095886,465
898.212341,461
898.328674,474
898.445129,469
898.561462,486
898.677795,463
898.794312,492
898.910645,445
899.026978,468
899.143433,463
899.259766,469
899.37616,473
899.492493,455
899.608765,468
899.725159,454
899.841553,450
899.957947,460
900.07428,467
900.190552,490
900.306946,459
900.423157,464
900.53949,476
900.655884,470
900.772156,472
900.888489,449
901.004822,465
901.121033,499
901.237366,478
901.353699,473
901.46991,458
901.586304,489
901.702515,475
901.818787,453
901.93512,477
902.051331,477
902.167603,475
902.283875,477
902.400085,497
902.516418,506
902.632629,496
902.74884,524
902.865112,506
902.981384,515
903.097595,497
903.213867,480
903.330017,488
903.446289,510
903.5625,477
903.67865,486
903.794922,478
903.911072,496
904.027344,492
904.143494,481
904.259705,497
904.375916,496
904.492065,483
904.608215,502
904.724426,450
904.840576,473
904.956726,456
905.072876,480
905.189087,454
905.305176,465
905.421387,468
905.537537,473
905.653687,472
905.769775,469
905.885925,459
906.002014,475
906.118164,468
906.234314,475
906.350403,457
906.466492,481
906.582642,464
906.69873,452
906.814758,468
906.930908,475
907.046936,449
907.163086,467
907.279175,473
907.395264,474
907.511353,450
907.62738,461
907.743408,456
907.859497,465
907.975525,455
908.091553,479
908.207703,455
908.32373,452
908.439758,456
908.555786,470
908.671814,465
908.787842,447
908.90387,453
909.019775,460
909.135864,459
909.251892,459
909.367859,443
909.483826,467
909.599854,441
909.715881,461
909.831848,482
909.947815,467
910.063782,464
910.179749,457
910.295776,451
910.411743,485
910.527649,453
910.643616,452
910.759583,469
910.875488,463
910.991455,471
911.107361,469
911.223267,447
911.339294,484
911.4552,469
911.571106,480
911.687073,469
911.802979,476
911.918823,464
912.034729,452
912.150635,472
912.266602,465
912.382446,459
912.498352,475
912.614197,474
912.730103,461
912.846008,448
792.44574,816
792.56488,817
792.68396,825
792.80304,806
792.92218,762
793.041199,723
793.160339,761
793.279419,728
793.398499,708
793.517578,741
793.636658,698
793.755737,683
793.874817,706
793.993896,703
794.112976,672
794.232056,668
794.351074,652
794.470215,654
794.589233,657
794.708313,637
794.827393,634
794.946411,629
795.065552,638
795.18457,660
795.303589,636
795.422668,629
795.541687,620
795.660767,629
795.779846,626
795.898865,609
796.017883,614
796.136963,592
796.255981,596
796.375061,602
796.49408,595
796.613037,581
796.732117,614
796.851135,574
796.970154,596
797.089233,601
797.208191,607
797.327271,585
797.446228,579
797.565186,574
797.684265,551
797.803223,594
797.922241,593
798.04126,587
798.160278,568
798.279297,554
798.398315,560
798.517273,593
798.636292,570
798.75531,570
798.874268,549
798.993286,575
799.112244,558
799.231323,579
799.350281,569
799.469238,580
799.588257,558
799.707153,573
799.826111,552
799.945129,563
800.064087,559
800.183044,571
800.302063,568
800.421021,563
800.539978,543
800.658936,544
800.777893,522
800.896912,565
801.015747,550
801.134705,557
801.253723,522
801.37262,536
801.491638,540
801.610535,533
801.729492,548
801.84845,535
801.967407,533
802.086243,548
802.205261,533
802.324158,556
802.443115,565
802.562073,534
802.680969,527
802.799927,546
802.918762,533
803.037659,548
803.156677,522
803.275574,547
803.39447,536
803.513428,540
803.632263,538
803.751221,535
803.870117,533
803.989014,551
804.107971,536
804.226746,520
804.345642,531
804.4646,534
804.583496,537
804.702393,526
804.821228,518
804.940125,523
805.059021,516
805.177917,518
805.296814,509
805.415649,539
805.534546,521
805.653442,521
805.772278,529
805.891113,527
806.01001,537
806.128906,540
806.247742,522
806.366577,512
806.485413,526
806.604309,533
806.723145,528
806.84198,554
806.960876,516
807.079712,526
807.198486,537
807.317383,527
807.436218,532
807.554993,522
807.673889,520
807.792725,522
807.91156,517
808.030396,542
808.14917,516
808.268005,527
808.386841,498
808.505676,511
808.624451,495
808.743286,514
808.862122,507
808.980896,515
809.099731,540
809.218506,516
809.337341,538
809.456116,505
809.57489,501
809.693726,499
809.8125,525
809.931274,516
810.050049,496
810.168884,505
810.287659,496
810.406372,533
810.525269,526
810.643982,532
810.762756,509
810.881531,512
811.000305,525
811.11908,517
811.237854,505
811.356567,518
811.475403,518
811.594116,508
811.71283,508
811.831604,507
811.950378,517
812.069153,521
812.187927,539
812.30658,547
812.425415,519
812.544128,523
812.662781,519
812.781616,549
812.900269,495
813.019043,505
813.137756,529
813.256531,529
813.375244,495
813.493896,513
813.612671,505
813.731384,514
813.850037,484
813.96875,534
814.087524,517
814.206238,506
814.324951,517
814.443604,512
814.562256,534
814.68103,489
814.799683,521
814.918335,515
815.037109,500
815.155762,493
815.274475,518
815.393188,535
815.511841,510
815.630554,516
815.749146,516
815.867859,507
815.986572,526
816.105164,511
816.223877,493
816.342529,511
816.461182,531
816.579895,493
816.698486,501
816.817139,529
816.935791,514
817.054504,517
817.173096,521
817.291748,522
817.4104,506
817.529053,512
817.647644,510
817.766235,508
817.884949,489
818.00354,514
818.122192,504
818.240845,508
818.359436,490
818.478088,497
818.59668,511
818.715271,515
818.833923,477
818.952515,473
819.071106,510
819.189758,496
819.30835,490
819.426941,479
819.545532,489
819.664124,498
819.782715,467
819.901306,483
820.019897,508
820.138489,484
820.25708,500
820.375671,478
820.494202,505
820.612732,494
820.731384,476
820.849915,478
820.968506,497
821.087097,508
821.205627,485
821.324158,485
821.442749,473
821.561279,484
821.679871,493
821.798401,469
821.916931,497
822.035461,484
822.154053,487
822.272583,491
822.391174,502
822.509583,473
822.628174,502
822.746704,479
822.865234,481
822.983765,470
823.102295,472
823.220825,457
823.339294,487
823.457825,472
823.576355,489
823.694824,496
823.813354,494
823.931885,490
824.050354,495
824.168884,497
824.287354,464
824.405823,472
824.524353,471
824.642822,480
824.761353,479
824.879822,509
824.998291,476
825.116699,505
825.235291,493
825.353699,501
825.472168,495
825.590637,467
825.709106,473
825.827576,476
825.946045,477
826.064453,483
826.182983,472
826.301392,462
826.4198,477
826.53833,485
826.656738,465
826.775208,490
826.893677,481
827.012024,490
827.130493,482
827.248962,481
827.36731,483
827.485779,475
827.604248,470
827.722595,485
827.841064,476
827.959412,475
828.077942,471
828.196289,468
828.314636,475
828.433105,474
828.551514,476
828.669861,466
828.78833,456
828.906677,456
829.025085,459
829.143433,457
829.261841,468
829.38031,479
829.498657,486
829.617004,482
829.735413,466
829.85376,462
829.972107,475
830.090515,471
830.208862,468
830.327209,482
830.445557,465
830.563904,462
830.682312,500
830.800659,483
830.919006,467
831.037354,465
831.155701,483
831.274048,490
831.392395,499
831.51062,489
831.629028,482
831.747314,487
831.865662,456
831.984009,475
832.102356,494
832.220642,467
832.338928,485
832.457275,485
832.575623,458
832.693909,478
832.812134,457
832.930481,481
833.048828,467
833.167114,473
833.2854,478
833.403687,482
833.521973,471
833.640259,465
833.758545,466
833.876831,493
833.995056,469
834.113281,469
834.231628,470
834.349915,477
834.468201,458
834.586426,473
834.704651,473
834.822998,498
834.941162,463
835.059448,476
835.177673,463
835.295959,452
835.414246,473
835.53241,482
835.650635,466
835.768921,478
835.887146,464
836.005371,452
836.123596,468
836.241821,497
836.360046,484
836.478271,481
836.596497,475
836.714722,464
836.832886,469
836.95105,484
837.069336,488
837.1875,467
837.305725,464
837.423889,476
837.542053,478
837.660339,471
837.778503,468
837.896667,491
838.014832,466
838.132996,457
838.25116,498
838.369385,482
838.487488,468
838.605713,499
838.723877,473
838.84198,486
838.960205,476
839.078308,477
839.196472,477
839.314636,487
839.4328,489
839.550964,495
839.669067,465
839.787231,476
839.905396,485
840.023499,507
840.141602,482
840.259766,487
840.377869,484
840.495972,473
840.614136,491
840.732239,488
840.850342,479
840.968445,502
841.086548,487
841.204651,489
841.322754,492
841.440918,500
841.55896,489
841.677002,484
841.795166,500
841.913208,518
842.031311,503
842.149353,491
842.267456,480
842.385498,483
842.503601,489
842.621643,469
842.739746,479
842.857788,523
842.97583,500
843.093933,503
843.211975,487
843.330017,477
843.44812,494
843.566101,503
843.684204,479
843.802246,499
843.920227,476
844.038269,469
844.156311,482
844.274292,483
844.392395,476
844.510376,492
844.628357,492
844.74646,500
844.864441,482
844.982422,474
845.100403,478
845.218384,483
845.336426,477
845.454468,471
845.572449,469
845.69043,480
845.808411,484
845.926453,495
846.044373,487
846.162354,456
846.280396,482
846.398315,474
846.516296,492
846.634216,482
846.752197,468
846.870178,498
846.988098,492
847.106079,496
847.22406,495
847.34198,484
847.4599,496
847.577881,493
847.695801,469
847.813782,471
847.931641,466
848.049561,487
848.167603,474
848.285461,489
848.403381,487
848.521362,494
848.639221,479
848.75708,519
848.875,495
848.99292,490
849.110901,486
849.22876,480
849.34668,500
849.464539,481
849.582458,491
849.700317,502
849.818176,494
849.936096,505
850.053955,481
850.171875,491
850.289673,462
850.407593,487
850.525452,474
850.643311,504
850.761169,491
850.878967,490
850.996887,448
851.114746,498
851.232544,500
851.350403,474
851.468262,499
851.58606,468
851.703979,476
851.821777,485
851.939636,480
852.057434,481
852.175232,473
852.293091,492
852.410889,476
852.528687,499
852.646545,483
852.764343,504
852.88208,503
852.999939,507
853.117676,475
853.235535,493
853.353271,483
853.471069,485
853.588928,495
853.706604,519
853.824402,481
853.9422,480
854.059998,493
854.177734,486
854.295532,503
854.413269,473
854.531006,488
854.648804,489
854.766541,486
854.884277,487
855.002014,492
855.119751,483
855.237549,489
855.355225,493
855.473022,510
855.590698,476
855.708435,481
855.826172,473
855.943848,491
856.061646,497
856.179321,484
856.296997,490
856.414795,487
856.53241,510
856.650085,498
856.767822,501
856.885559,509
857.003174,503
857.120911,506
857.238586,491
857.356201,512
857.473938,511
857.591614,487
857.709351,506
857.826965,497
857.944641,488
858.062317,469
858.179993,510
858.297668,505
858.415283,505
858.532959,468
858.650574,511
858.768188,484
858.885803,499
859.003479,498
859.121094,500
859.23877,502
859.356384,492
859.473999,489
859.591675,493
859.709229,493
859.826843,504
859.944458,481
860.062012,484
860.179626,510
860.297302,491
860.414856,506
860.532471,486
860.650024,482
860.767639,479
860.885193,500
861.002808,489
861.120361,478
861.237976,483
861.35553,497
861.473022,487
861.590698,480
861.708191,471
861.825745,472
861.943298,493
862.060852,485
862.178406,481
862.295959,488
862.413513,473
862.531006,477
862.64856,487
862.766113,478
862.883667,474
863.00116,469
863.118713,491
863.236206,475
863.353699,474
863.471252,502
863.588745,488
863.706177,482
863.82373,477
863.941162,473
864.058716,459
864.176208,496
864.29364,486
864.411194,458
864.528687,467
864.646118,463
864.763611,477
864.881042,479
864.998535,482
865.116028,490
865.233459,465
865.350891,460
865.468384,472
865.585754,483
865.703308,492
865.820679,486
865.938171,481
866.055542,461
866.173035,466
866.290466,485
866.407837,489
866.52533,480
866.6427,479
866.760071,484
866.877563,478
866.994934,489
867.112305,463
867.229736,484
867.347107,506
867.464539,481
867.58197,488
867.699341,489
867.81665,480
867.934082,482
868.051453,466
868.168823,496
868.286194,488
868.403564,474
868.520935,462
868.638306,470
868.755676,486
868.872986,473
868.990295,481
869.107727,488
869.225037,472
869.342346,498
869.459717,490
869.577026,473
869.694336,483
869.811707,460
869.929016,464
870.046326,500
870.163635,490
870.280945,468
870.398254,469
870.515564,497
870.632812,487
870.750183,508
870.867432,496
870.984741,491
871.102051,517
871.219299,504
871.336609,516
871.453918,513
871.571106,494
871.688416,516
871.805664,507
871.922852,490
872.040222,505
872.157471,518
872.274719,518
872.391968,517
872.509155,505
872.626465,483
872.743652,483
872.860962,490
872.978149,493
873.095337,497
873.212646,503
873.329834,523
873.44696,505
873.564209,504
873.681396,504
873.798645,475
873.915894,498
874.03302,489
874.150208,508
874.267456,497
874.384583,491
874.501831,503
874.618958,500
874.736145,481
874.853333,506
874.970459,491
875.087646,503
875.204834,491
875.32196,504
875.439148,507
875.556274,480
875.673401,502
875.790527,473
875.907715,516
876.024841,506
876.141968,494
876.259094,504
876.376282,488
876.493347,495
876.610474,472
876.7276,501
876.844727,479
876.961853,475
877.078918,484
877.195984,496
877.313171,486
877.430237,495
877.547302,483
877.664368,513
877.781433,477
877.898499,472
878.015625,476
878.13269,468
878.249695,502
878.366821,486
878.483887,489
878.600952,495
878.717957,492
878.834961,478
878.952087,479
879.069092,464
879.186157,477
879.303162,468
879.420227,454
879.537231,491
879.654236,461
879.77124,473
879.888306,479
880.005249,473
880.122314,474
880.239319,461
880.356323,482
880.473328,475
880.590271,452
880.707275,449
880.824341,477
880.941284,478
881.058228,473
881.175232,460
881.292236,437
881.40918,464
881.526123,478
881.643066,471
881.760071,476
881.877014,461
881.993958,487
882.11084,462
882.227783,460
882.344727,482
882.46167,470
882.578613,467
882.695618,479
882.812439,483
882.929382,470
883.046326,460
883.163208,482
883.280151,467
883.397034,447
883.513916,486
883.630798,471
883.747742,470
883.864563,481
883.981506,482
884.098389,483
884.21521,496
884.332153,492
884.448975,485
884.565796,487
884.682678,501
884.7995,495
884.916443,510
885.033264,507
885.150085,535
885.266968,555
885.383789,510
885.500671,521
885.617493,556
885.734314,527
885.851196,530
885.967896,530
886.084717,547
886.201599,513
886.318359,523
886.435181,521
886.552002,553
886.668762,513
886.785645,516
886.902344,519
887.019165,500
887.135925,507
887.252747,509
887.369446,512
887.486267,507
887.603027,506
887.719788,494
887.836548,500
887.953247,495
888.070068,497
888.186829,495
888.303528,486
888.420288,467
888.536987,476
888.653687,487
888.770447,454
888.887146,489
889.003967,484
889.120667,486
889.237305,474
889.354065,465
889.470703,466
889.587463,451
889.704163,470
889.820862,455
889.937561,468
890.054199,457
890.170837,491
890.287598,466
890.404236,462
890.520874,477
890.637634,475
890.754211,475
890.87085,472
890.987549,480
891.104187,453
891.220886,462
891.337463,481
891.454102,461
891.57074,470
891.687378,462
891.804077,463
891.920654,457
892.037231,475
892.15387,461
892.270447,471
892.387085,477
892.503723,464
892.6203,476
892.736877,481
892.853516,468
892.970032,473
893.08667,458
893.203186,467
893.319763,463
893.43634,472
893.552917,472
893.669556,470
893.786011,462
893.902588,437
894.019165,467
894.135681,462
894.252197,466
894.368835,473
894.485291,465
894.601868,475
894.718384,465
894.8349,463
894.951355,477
895.067932,447
895.184448,471
895.300964,470
895.417419,485
895.533936,461
895.650452,469
895.766907,456
895.883423,485
895.999878,465
896.116333,466
896.232849,464
896.349304,457
896.465759,475
896.582214,485
896.698669,456
896.815125,461
896.931641,450
897.048035,494
897.164551,445
897.280884,469
897.397339,477
897.513794,471
897.630249,462
897.746582,471
897.863098,454
897.979431,479
898.095886,477
898.212341,487
898.328674,456
898.445129,473
898.561462,466
898.677795,480
898.794312,468
898.910645,474
899.026978,468
899.143433,497
899.259766,471
899.37616,472
899.492493,470
899.608765,460
899.725159,447
899.841553,475
899.957947,468
900.07428,465
900.190552,478
900.306946,470
900.423157,458
900.53949,486
900.655884,477
900.772156,491
900.888489,472
901.004822,480
901.121033,471
901.237366,490
901.353699,480
901.46991,472
901.586304,480
901.702515,485
901.818787,479
901.93512,479
902.051331,488
902.167603,493
902.283875,485
902.400085,483
902.516418,503
902.632629,489
902.74884,502
902.865112,500
902.981384,491
903.097595,492
903.213867,490
903.330017,490
903.446289,487
903.5625,481
903.67865,492
903.794922,500
903.911072,481
904.027344,479
904.143494,476
904.259705,480
904.375916,499
904.492065,478
904.608215,465
904.724426,465
904.840576,493
904.956726,465
905.072876,468
905.189087,482
905.305176,464
905.421387,476
905.537537,488
905.653687,470
905.769775,454
905.885925,472
906.002014,457
906.118164,457
906.234314,459
906.350403,488
906.466492,474
906.582642,462
906.69873,451
906.814758,464
906.930908,470
907.046936,473
907.163086,477
907.279175,494
907.395264,472
907.511353,480
907.62738,442
907.743408,466
907.859497,454
907.975525,471
908.091553,464
908.207703,470
908.32373,481
908.439758,459
908.555786,469
908.671814,486
908.787842,468
908.90387,466
909.019775,454
909.135864,481
909.251892,468
909.367859,451
909.483826,486
909.599854,483
909.715881,472
909.831848,452
909.947815,450
910.063782,477
910.179749,464
910.295776,479
910.411743,480
910.527649,489
910.643616,459
910.759583,463
910.875488,479
910.991455,480
911.107361,488
911.223267,465
911.339294,474
911.4552,462
911.571106,459
911.687073,481
911.802979,475
911.918823,478
912.034729,458
912.150635,469
912.266602,445
912.382446,473
912.498352,462
912.614197,490
912.730103,449
912.846008,449
792.44574,776
792.56488,805
792.68396,833
792.80304,840
792.92218,736
793.041199,745
793.160339,718
793.279419,761
793.398499,712
793.517578,680
793.636658,701
793.755737,705
793.874817,715
793.993896,689
794.112976,709
794.232056,647
794.351074,683
794.470215,639
794.589233,662
794.708313,651
794.827393,652
794.946411,632
795.065552,648
795.18457,651
795.303589,638
795.422668,641
795.541687,621
795.660767,632
795.779846,634
795.898865,608
796.017883,621
796.136963,589
796.255981,615
796.375061,610
796.49408,605
796.613037,590
796.732117,603
796.851135,602
796.970154,591
797.089233,579
797.208191,593
797.327271,549
797.446228,560
797.565186,583
797.684265,572
797.803223,578
797.922241,592
798.04126,567
798.160278,554
798.279297,563
798.398315,546
798.517273,560
798.636292,575
798.75531,541
798.874268,562
798.993286,573
799.112244,562
799.231323,558
799.350281,583
799.469238,572
799.588257,569
799.707153,543
799.826111,572
799.945129,550
800.064087,562
800.183044,552
800.302063,565
800.421021,559
800.539978,550
800.658936,544
800.777893,568
800.896912,533
801.015747,557
801.134705,532
801.253723,572
801.37262,540
801.491638,551
801.610535,556
801.729492,535
801.84845,535
801.967407,558
802.086243,539
802.205261,534
802.324158,544
802.443115,532
802.562073,550
802.680969,556
802.799927,515
802.918762,558
803.037659,539
803.156677,536
803.275574,537
803.39447,525
803.513428,524
803.632263,544
803.751221,551
803.870117,541
803.989014,523
804.107971,532
804.226746,559
804.345642,537
804.4646,526
804.583496,510
804.702393,535
804.821228,543
804.940125,530
805.059021,536
805.177917,515
805.296814,518
805.415649,526
805.534546,524
805.653442,537
805.772278,528
805.891113,544
806.01001,522
806.128906,535
806.247742,522
806.366577,521
806.485413,525
806.604309,526
806.723145,519
806.84198,534
806.960876,510
807.079712,517
807.198486,507
807.317383,513
807.436218,515
807.554993,515
807.673889,519
807.792725,516
807.91156,522
808.030396,490
808.14917,521
808.268005,508
808.386841,533
808.505676,510
808.624451,509
808.743286,527
808.862122,512
808.980896,493
809.099731,521
809.218506,503
809.337341,502
809.456116,505
809.57489,498
809.693726,523
809.8125,496
809.931274,510
810.050049,516
810.168884,522
810.287659,515
810.406372,518
810.525269,515
810.643982,492
810.762756,527
810.881531,500
811.000305,493
811.11908,520
811.237854,513
811.356567,530
811.475403,509
811.594116,520
811.71283,498
811.831604,525
811.950378,518
812.069153,501
812.187927,517
812.30658,507
812.425415,509
812.544128,522
812.662781,520
812.781616,526
812.900269,508
813.019043,517
813.137756,529
813.256531,515
813.375244,540
813.493896,489
813.612671,508
813.731384,511
813.850037,515
813.96875,515
814.087524,527
814.206238,479
814.324951,509
814.443604,497
814.562256,520
814.68103,522
814.799683,514
814.918335,505
815.037109,499
815.155762,499
815.274475,522
815.393188,511
815.511841,501
815.630554,506
815.749146,510
815.867859,498
815.986572,492
816.105164,508
816.223877,499
816.342529,483
816.461182,493
816.579895,501
816.698486,530
816.817139,516
816.935791,509
817.054504,517
817.173096,502
817.291748,514
817.4104,516
817.529053,504
817.647644,517
817.766235,491
817.884949,530
818.00354,495
818.122192,494
818.240845,490
818.359436,486
818.478088,512
818.59668,496
818.715271,489
818.833923,506
818.952515,459
819.071106,488
819.189758,507
819.30835,475
819.426941,484
819.545532,497
819.664124,505
819.782715,499
819.901306,488
820.019897,478
820.138489,486
820.25708,486
820.375671,471
820.494202,489
820.612732,483
820.731384,501
820.849915,480
820.968506,486
821.087097,475
821.205627,477
821.324158,479
821.442749,499
821.561279,490
821.679871,498
821.798401,494
821.916931,486
822.035461,487
822.154053,479
822.272583,493
822.391174,488
822.509583,485
822.628174,508
822.746704,480
822.865234,478
822.983765,467
823.102295,496
823.220825,463
823.339294,463
823.457825,477
823.576355,488
823.694824,483
823.813354,481
823.931885,491
824.050354,474
824.168884,468
824.287354,496
824.405823,479
824.524353,482
824.642822,496
824.761353,485
824.879822,483
824.998291,491
825.116699,474
825.235291,482
825.353699,483
825.472168,476
825.590637,475
825.709106,479
825.827576,476
825.946045,477
826.064453,482
826.182983,456
826.301392,472
826.4198,462
826.53833,465
826.656738,499
826.775208,483
826.893677,480
827.012024,489
827.130493,463
827.248962,494
827.36731,469
827.485779,470
827.604248,485
827.722595,456
827.841064,454
827.959412,471
828.077942,496
828.196289,448
828.314636,463
828.433105,469
828.551514,457
828.669861,461
828.78833,483
828.906677,467
829.025085,478
829.143433,472
829.261841,471
829.38031,490
829.498657,473
829.617004,480
829.735413,471
829.85376,459
829.972107,489
830.090515,470
830.208862,479
830.327209,460
830.445557,475
830.563904,467
830.682312,477
830.800659,462
830.919006,463
831.037354,477
831.155701,489
831.274048,483
831.392395,490
831.51062,494
831.629028,479
831.747314,453
831.865662,466
831.984009,455
832.102356,471
832.220642,487
832.338928,469
832.457275,463
832.575623,496
832.693909,472
832.812134,491
832.930481,488
833.048828,490
833.167114,467
833.2854,455
833.403687,472
833.521973,484
833.640259,463
833.758545,484
833.876831,487
833.995056,481
834.113281,483
834.231628,508
834.349915,473
834.468201,480
834.586426,480
834.704651,472
834.822998,474
834.941162,486
835.059448,478
835.177673,467
835.295959,488
835.414246,473
835.53241,446
835.650635,474
835.768921,482
835.887146,482
836.005371,473
836.123596,475
836.241821,472
836.360046,485
836.478271,462
836.596497,470
836.714722,478
836.832886,447
836.95105,475
837.069336,454
837.1875,474
837.305725,483
837.423889,455
837.542053,488
837.660339,482
837.778503,478
837.896667,465
838.014832,465
838.132996,478
838.25116,465
838.369385,471
838.487488,477
838.605713,478
838.723877,480
838.84198,469
838.960205,476
839.078308,486
839.196472,479
839.314636,476
839.4328,468
839.550964,457
839.669067,469
839.787231,486
839.905396,483
840.023499,499
840.141602,483
840.259766,473
840.377869,479
840.495972,494
840.614136,497
840.732239,500
840.850342,475
840.968445,485
841.086548,492
841.204651,508
841.322754,483
841.440918,495
841.55896,494
841.677002,485
841.795166,483
841.913208,485
842.031311,523
842.149353,510
842.267456,500
842.385498,498
842.503601,481
842.621643,495
842.739746,515
842.857788,494
842.97583,478
843.093933,496
843.211975,512
843.330017,473
843.44812,498
843.566101,486
843.684204,514
843.802246,496
843.920227,485
844.038269,489
844.156311,487
844.274292,484
844.392395,483
844.510376,464
844.628357,494
844.74646,497
844.864441,506
844.982422,486
845.100403,489
845.218384,479
845.336426,486
845.454468,470
845.572449,464
845.69043,483
845.808411,494
845.926453,462
846.044373,476
846.162354,488
846.280396,508
846.398315,479
846.516296,500
846.634216,461
846.752197,509
846.870178,477
846.988098,496
847.106079,480
847.22406,502
847.34198,489
847.4599,491
847.577881,486
847.695801,492
847.813782,492
847.931641,490
848.049561,503
848.167603,477
848.285461,496
848.403381,491
848.521362,477
848.639221,489
848.75708,477
848.875,473
848.99292,462
849.110901,494
849.22876,488
849.34668,481
849.464539,491
849.582458,494
849.700317,471
849.818176,494
849.936096,478
850.053955,477
850.171875,490
850.289673,488
850.407593,495
850.525452,492
850.643311,479
850.761169,480
850.878967,487
850.996887,494
851.114746,490
851.232544,493
851.350403,484
851.468262,488
851.58606,478
851.703979,484
851.821777,478
851.939636,487
852.057434,469
852.175232,486
852.293091,470
852.410889,484
852.528687,479
852.646545,485
852.764343,504
852.88208,501
852.999939,501
853.117676,494
853.235535,479
853.353271,502
853.471069,498
853.588928,478
853.706604,482
853.824402,472
853.9422,481
854.059998,502
854.177734,476
854.295532,488
854.413269,500
854.531006,471
854.648804,475
854.766541,499
854.884277,484
855.002014,487
855.119751,502
855.237549,486
855.355225,476
855.473022,507
855.590698,475
855.708435,498
855.826172,506
855.943848,506
856.061646,491
856.179321,496
856.296997,499
856.414795,497
856.53241,484
856.650085,495
856.767822,478
856.885559,510
857.003174,494
857.120911,513
857.238586,485
857.356201,487
857.473938,486
857.591614,493
857.709351,508
857.826965,508
857.944641,472
858.062317,498
858.179993,491
858.297668,490
858.415283,472
858.532959,496
858.650574,508
858.768188,495
858.885803,477
859.003479,507
859.121094,488
859.23877,499
859.356384,489
859.473999,491
859.591675,505
859.709229,497
859.826843,498
859.944458,496
860.062012,476
860.179626,464
860.297302,481
860.414856,496
860.532471,493
860.650024,472
860.767639,474
860.885193,482
861.002808,467
861.120361,467
861.237976,486
861.35553,503
861.473022,475
861.590698,479
861.708191,484
861.825745,497
861.943298,480
862.060852,471
862.178406,466
862.295959,487
862.413513,473
862.531006,486
862.64856,465
862.766113,470
862.883667,490
863.00116,461
863.118713,481
863.236206,452
863.353699,483
863.471252,480
863.588745,461
863.706177,487
863.82373,502
863.941162,465
864.058716,487
864.176208,487
864.29364,470
864.411194,473
864.528687,482
864.646118,483
864.763611,444
864.881042,480
864.998535,467
865.116028,483
865.233459,487
865.350891,486
865.468384,487
865.585754,486
865.703308,455
865.820679,473
865.938171,467
866.055542,487
866.173035,460
866.290466,456
866.407837,463
866.52533,487
866.6427,470
866.760071,478
866.877563,454
866.994934,484
867.112305,488
867.229736,488
867.347107,484
867.464539,498
867.58197,490
867.699341,495
867.81665,498
867.934082,484
868.051453,470
868.168823,482
868.286194,490
868.403564,460
868.520935,476
868.638306,478
868.755676,474
868.872986,471
868.990295,456
869.107727,491
869.225037,486
869.342346,496
869.459717,474
869.577026,488
869.694336,502
869.811707,467
869.929016,482
870.046326,491
870.163635,497
870.280945,496
870.398254,490
870.515564,488
870.632812,501
870.750183,499
870.867432,479
870.984741,485
871.102051,475
871.219299,477
871.336609,490
871.453918,508
871.571106,484
871.688416,501
871.805664,509
871.922852,506
872.040222,521
872.157471,502
872.274719,490
872.391968,499
872.509155,495
872.626465,500
872.743652,487
872.860962,488
872.978149,492
873.095337,499
873.212646,494
873.329834,492
873.44696,494
873.564209,494
873.681396,469
873.798645,523
873.915894,491
874.03302,519
874.150208,496
874.267456,493
874.384583,510
874.501831,507
874.618958,495
874.736145,508
874.853333,494
874.970459,494
875.087646,491
875.204834,501
875.32196,505
875.439148,494
875.556274,499
875.673401,509
875.790527,519
875.907715,498
876.024841,486
876.141968,491
876.259094,478
876.376282,515
876.493347,494
876.610474,464
876.7276,487
876.844727,488
876.961853,487
877.078918,490
877.195984,502
877.313171,492
877.430237,493
877.547302,503
877.664368,481
877.781433,497
877.898499,489
878.015625,488
878.13269,470
878.249695,479
878.366821,478
878.483887,476
878.600952,468
878.717957,485
878.834961,490
878.952087,504
879.069092,474
879.186157,497
879.303162,476
879.420227,463
879.537231,469
879.654236,479
879.77124,457
879.888306,482
880.005249,472
880.122314,469
880.239319,481
880.356323,481
880.473328,495
880.590271,469
880.707275,461
880.824341,465
880.941284,473
881.058228,484
881.175232,474
881.292236,480
881.40918,457
881.526123,463
881.643066,471
881.760071,481
881.877014,482
881.993958,465
882.11084,455
882.227783,466
882.344727,487
882.46167,481
882.578613,473
882.695618,479
882.812439,452
882.929382,495
883.046326,478
883.163208,448
883.280151,489
883.397034,481
883.513916,484
883.630798,480
883.747742,494
883.864563,501
883.981506,474
884.098389,504
884.21521,490
884.332153,500
884.448975,462
884.565796,489
884.682678,489
884.7995,509
884.916443,503
885.033264,527
885.150085,510
885.266968,538
885.383789,532
885.500671,541
885.617493,558
885.734314,526
885.851196,519
885.967896,528
886.084717,538
886.201599,521
886.318359,522
886.435181,512
886.552002,514
886.668762,543
886.785645,507
886.902344,510
887.019165,502
887.135925,512
887.252747,515
887.369446,490
887.486267,526
887.603027,504
887.719788,491
887.836548,490
887.953247,487
888.070068,508
888.186829,487
888.303528,496
888.420288,486
888.536987,479
888.653687,497
888.770447,465
888.887146,472
889.003967,471
889.120667,484
889.237305,458
889.354065,473
889.470703,466
889.587463,467
889.704163,474
889.820862,456
889.937561,477
890.054199,463
890.170837,480
890.287598,453
890.404236,459
890.520874,451
890.637634,459
890.754211,455
890.87085,468
890.987549,466
891.104187,483
891.220886,468
891.337463,501
891.454102,464
891.57074,479
891.687378,445
891.804077,476
891.920654,467
892.037231,467
892.15387,455
892.270447,484
892.387085,464
892.503723,479
892.6203,445
892.736877,473
892.853516,473
892.970032,479
893.08667,477
893.203186,482
893.319763,469
893.43634,476
893.552917,474
893.669556,478
893.786011,458
893.902588,490
894.019165,479
894.135681,456
894.252197,467
894.368835,464
894.485291,475
894.601868,456
894.718384,469
894.8349,479
894.951355,457
895.067932,470
895.184448,464
895.300964,466
895.417419,464
895.533936,480
895.650452,457
895.766907,472
895.883423,437
895.999878,464
896.116333,464
896.232849,470
896.349304,473
896.465759,494
896.582214,446
896.698669,458
896.815125,455
896.931641,468
897.048035,474
897.164551,474
897.280884,479
897.397339,472
897.513794,448
897.630249,455
897.746582,473
897.863098,457
897.979431,476
898.095886,486
898.212341,461
898.328674,477
898.445129,467
898.561462,475
898.677795,455
898.794312,483
898.910645,468
899.026978,493
899.143433,481
899.259766,460
899.37616,469
899.492493,497
899.608765,462
899.725159,457
899.841553,473
899.957947,464
900.07428,484
900.190552,484
900.306946,461
900.423157,477
900.53949,439
900.655884,465
900.772156,469
900.888489,466
901.004822,478
901.121033,479
901.237366,461
901.353699,477
901.46991,469
901.586304,500
901.702515,473
901.818787,488
901.93512,470
902.051331,495
902.167603,476
902.283875,497
902.400085,488
902.516418,502
902.632629,499
902.74884,490
902.865112,505
902.981384,498
903.097595,520
903.213867,524
903.330017,483
903.446289,483
903.5625,492
903.67865,489
903.794922,489
903.911072,500
904.027344,482
904.143494,507
904.259705,474
904.375916,484
904.492065,491
904.608215,486
904.724426,488
904.840576,467
904.956726,474
905.072876,469
905.189087,488
905.305176,465
905.421387,464
905.537537,499
905.653687,461
905.769775,471
905.885925,473
906.002014,473
906.118164,462
906.234314,473
906.350403,468
906.466492,475
906.582642,456
906.69873,484
906.814758,483
906.930908,474
907.046936,459
907.163086,479
907.279175,470
907.395264,483
907.511353,464
907.62738,485
907.743408,467
907.859497,465
907.975525,457
908.091553,463
908.207703,455
908.32373,478
908.439758,459
908.555786,456
908.671814,450
908.787842,475
908.90387,466
909.019775,458
909.135864,456
909.251892,471
909.367859,469
909.483826,479
909.599854,466
909.715881,477
909.831848,466
909.947815,467
910.063782,471
910.179749,479
910.295776,465
910.411743,487
910.527649,454
910.643616,474
910.759583,464
910.875488,492
910.991455,477
911.107361,471
911.223267,462
911.339294,471
911.4552,448
911.571106,471
911.687073,462
911.802979,488
911.918823,459
912.034729,478
912.150635,469
912.266602,474
912.382446,455
912.498352,457
912.614197,452
912.730103,469
912.846008,461
