792.44574,628
792.56488,680
792.68396,686
792.80304,665
792.92218,620
793.041199,593
793.160339,617
793.279419,636
793.398499,590
793.517578,593
793.636658,601
793.755737,612
793.874817,635
793.993896,626
794.112976,616
794.232056,594
794.351074,607
794.470215,580
794.589233,590
794.708313,611
794.827393,593
794.946411,584
795.065552,625
795.18457,579
795.303589,575
795.422668,592
795.541687,602
795.660767,578
795.779846,586
795.898865,579
796.017883,602
796.136963,588
796.255981,591
796.375061,591
796.49408,584
796.613037,605
796.732117,577
796.851135,587
796.970154,595
797.089233,593
797.208191,580
797.327271,580
797.446228,577
797.565186,595
797.684265,574
797.803223,587
797.922241,561
798.04126,590
798.160278,597
798.279297,598
798.398315,563
798.517273,565
798.636292,582
798.75531,581
798.874268,564
798.993286,589
799.112244,598
799.231323,575
799.350281,585
799.469238,569
799.588257,580
799.707153,593
799.826111,588
799.945129,596
800.064087,577
800.183044,591
800.302063,587
800.421021,606
800.539978,563
800.658936,565
800.777893,591
800.896912,610
801.015747,573
801.134705,583
801.253723,587
801.37262,599
801.491638,556
801.610535,579
801.729492,580
801.84845,596
801.967407,586
802.086243,587
802.205261,570
802.324158,599
802.443115,604
802.562073,576
802.680969,620
802.799927,607
802.918762,577
803.037659,581
803.156677,592
803.275574,601
803.39447,594
803.513428,601
803.632263,606
803.751221,567
803.870117,628
803.989014,604
804.107971,594
804.226746,588
804.345642,604
804.4646,604
804.583496,638
804.702393,612
804.821228,591
804.940125,624
805.059021,604
805.177917,599
805.296814,593
805.415649,619
805.534546,637
805.653442,599
805.772278,605
805.891113,617
806.01001,614
806.128906,614
806.247742,614
806.366577,630
806.485413,614
806.604309,618
806.723145,614
806.84198,611
806.960876,607
807.079712,631
807.198486,621
807.317383,612
807.436218,610
807.554993,597
807.673889,606
807.792725,623
807.91156,626
808.030396,619
808.14917,615
808.268005,640
808.386841,631
808.505676,629
808.624451,599
808.743286,628
808.862122,647
808.980896,630
809.099731,638
809.218506,612
809.337341,638
809.456116,642
809.57489,627
809.693726,622
809.8125,617
809.931274,621
810.050049,614
810.168884,624
810.287659,633
810.406372,614
810.525269,627
810.643982,600
810.762756,650
810.881531,636
811.000305,635
811.11908,623
811.237854,623
811.356567,614
811.475403,614
811.594116,621
811.71283,665
811.831604,627
811.950378,614
812.069153,630
812.187927,632
812.30658,632
812.425415,612
812.544128,606
812.662781,647
812.781616,639
812.900269,640
813.019043,644
813.137756,633
813.256531,625
813.375244,623
813.493896,608
813.612671,620
813.731384,627
813.850037,648
813.96875,616
814.087524,628
814.206238,616
814.324951,612
814.443604,622
814.562256,620
814.68103,601
814.799683,639
814.918335,644
815.037109,610
815.155762,616
815.274475,608
815.393188,625
815.511841,609
815.630554,630
815.749146,612
815.867859,623
815.986572,624
816.105164,602
816.223877,620
816.342529,618
816.461182,610
816.579895,611
816.698486,626
816.817139,638
816.935791,605
817.054504,610
817.173096,608
817.291748,581
817.4104,614
817.529053,602
817.647644,594
817.766235,613
817.884949,582
818.00354,586
818.122192,567
818.240845,559
818.359436,561
818.478088,552
818.59668,549
818.715271,539
818.833923,539
818.952515,536
819.071106,541
819.189758,517
819.30835,508
819.426941,542
819.545532,522
819.664124,495
819.782715,501
819.901306,498
820.019897,483
820.138489,506
820.25708,500
820.375671,503
820.494202,498
820.612732,480
820.731384,483
820.849915,505
820.968506,478
821.087097,515
821.205627,486
821.324158,487
821.442749,495
821.561279,489
821.679871,492
821.798401,479
821.916931,479
822.035461,505
822.154053,475
822.272583,466
822.391174,503
822.509583,485
822.628174,478
822.746704,470
822.865234,474
822.983765,488
823.102295,493
823.220825,483
823.339294,490
823.457825,499
823.576355,486
823.694824,479
823.813354,486
823.931885,488
824.050354,489
824.168884,497
824.287354,503
824.405823,500
824.524353,479
824.642822,472
824.761353,484
824.879822,505
824.998291,486
825.116699,498
825.235291,494
825.353699,470
825.472168,474
825.590637,492
825.709106,484
825.827576,480
825.946045,471
826.064453,486
826.182983,461
826.301392,481
826.4198,461
826.53833,477
826.656738,467
826.775208,466
826.893677,471
827.012024,463
827.130493,459
827.248962,476
827.36731,456
827.485779,475
827.604248,467
827.722595,462
827.841064,451
827.959412,479
828.077942,461
828.196289,478
828.314636,460
828.433105,449
828.551514,474
828.669861,453
828.78833,445
828.906677,466
829.025085,459
829.143433,454
829.261841,468
829.38031,467
829.498657,449
829.617004,471
829.735413,466
829.85376,455
829.972107,470
830.090515,452
830.208862,446
830.327209,447
830.445557,446
830.563904,459
830.682312,457
830.800659,468
830.919006,451
831.037354,468
831.155701,466
831.274048,488
831.392395,446
831.51062,460
831.629028,457
831.747314,463
831.865662,436
831.984009,459
832.102356,451
832.220642,460
832.338928,476
832.457275,438
832.575623,451
832.693909,478
832.812134,465
832.930481,464
833.048828,433
833.167114,462
833.2854,435
833.403687,461
833.521973,448
833.640259,455
833.758545,460
833.876831,456
833.995056,471
834.113281,462
834.231628,448
834.349915,445
834.468201,451
834.586426,475
834.704651,458
834.822998,458
834.941162,463
835.059448,472
835.177673,462
835.295959,435
835.414246,472
835.53241,442
835.650635,469
835.768921,451
835.887146,461
836.005371,474
836.123596,476
836.241821,452
836.360046,481
836.478271,471
836.596497,456
836.714722,469
836.832886,465
836.95105,488
837.069336,468
837.1875,489
837.305725,463
837.423889,488
837.542053,481
837.660339,476
837.778503,476
837.896667,475
838.014832,484
838.132996,474
838.25116,465
838.369385,459
838.487488,471
838.605713,487
838.723877,470
838.84198,473
838.960205,493
839.078308,473
839.196472,473
839.314636,467
839.4328,480
839.550964,459
839.669067,452
839.787231,469
839.905396,458
840.023499,468
840.141602,479
840.259766,471
840.377869,467
840.495972,471
840.614136,447
840.732239,444
840.850342,463
840.968445,455
841.086548,465
841.204651,445
841.322754,449
841.440918,467
841.55896,451
841.677002,458
841.795166,442
841.913208,460
842.031311,452
842.149353,462
842.267456,456
842.385498,459
842.503601,453
842.621643,453
842.739746,461
842.857788,442
842.97583,453
843.093933,459
843.211975,447
843.330017,466
843.44812,471
843.566101,443
843.684204,453
843.802246,427
843.920227,449
844.038269,451
844.156311,437
844.274292,445
844.392395,444
844.510376,454
844.628357,458
844.74646,456
844.864441,437
844.982422,435
845.100403,432
845.218384,468
845.336426,446
845.454468,465
845.572449,446
845.69043,443
845.808411,457
845.926453,455
846.044373,448
846.162354,440
846.280396,444
846.398315,438
846.516296,460
846.634216,442
846.752197,459
846.870178,449
846.988098,445
847.106079,443
847.22406,469
847.34198,440
847.4599,455
847.577881,443
847.695801,454
847.813782,442
847.931641,443
848.049561,438
848.167603,444
848.285461,451
848.403381,451
848.521362,441
848.639221,459
848.75708,437
848.875,436
848.99292,441
849.110901,454
849.22876,449
849.34668,454
849.464539,449
849.582458,445
849.700317,443
849.818176,447
849.936096,432
850.053955,445
850.171875,461
850.289673,454
850.407593,449
850.525452,449
850.643311,434
850.761169,449
850.878967,454
850.996887,455
851.114746,442
851.232544,447
851.350403,454
851.468262,463
851.58606,454
851.703979,434
851.821777,462
851.939636,447
852.057434,452
852.175232,438
852.293091,444
852.410889,451
852.528687,463
852.646545,430
852.764343,460
852.88208,426
852.999939,445
853.117676,471
853.235535,459
853.353271,444
853.471069,443
853.588928,445
853.706604,452
853.824402,435
853.9422,454
854.059998,465
854.177734,455
854.295532,449
854.413269,458
854.531006,468
854.648804,464
854.766541,435
854.884277,461
855.002014,425
855.119751,450
855.237549,471
855.355225,461
855.473022,453
855.590698,459
855.708435,433
855.826172,452
855.943848,430
856.061646,437
856.179321,440
856.296997,441
856.414795,467
856.53241,450
856.650085,456
856.767822,453
856.885559,450
857.003174,455
857.120911,450
857.238586,467
857.356201,468
857.473938,460
857.591614,458
857.709351,453
857.826965,464
857.944641,445
858.062317,443
858.179993,440
858.297668,439
858.415283,468
858.532959,442
858.650574,463
858.768188,440
858.885803,459
859.003479,449
859.121094,454
859.23877,444
859.356384,458
859.473999,460
859.591675,452
859.709229,446
859.826843,459
859.944458,452
860.062012,440
860.179626,451
860.297302,439
860.414856,442
860.532471,439
860.650024,437
860.767639,456
860.885193,464
861.002808,435
861.120361,449
861.237976,440
861.35553,444
861.473022,447
861.590698,455
861.708191,464
861.825745,436
861.943298,454
862.060852,450
862.178406,453
862.295959,449
862.413513,449
862.531006,467
862.64856,453
862.766113,444
862.883667,448
863.00116,446
863.118713,457
863.236206,448
863.353699,449
863.471252,458
863.588745,434
863.706177,457
863.82373,445
863.941162,451
864.058716,446
864.176208,438
864.29364,450
864.411194,442
864.528687,464
864.646118,443
864.763611,456
864.881042,450
864.998535,453
865.116028,469
865.233459,458
865.350891,449
865.468384,452
865.585754,443
865.703308,453
865.820679,446
865.938171,449
866.055542,470
866.173035,453
866.290466,474
866.407837,465
866.52533,464
866.6427,446
866.760071,472
866.877563,451
866.994934,464
867.112305,476
867.229736,437
867.347107,438
867.464539,443
867.58197,462
867.699341,458
867.81665,460
867.934082,459
868.051453,461
868.168823,434
868.286194,447
868.403564,464
868.520935,466
868.638306,446
868.755676,472
868.872986,475
868.990295,455
869.107727,436
869.225037,469
869.342346,451
869.459717,442
869.577026,445
869.694336,463
869.811707,436
869.929016,447
870.046326,442
870.163635,441
870.280945,439
870.398254,478
870.515564,469
870.632812,473
870.750183,452
870.867432,448
870.984741,440
871.102051,461
871.219299,436
871.336609,448
871.453918,447
871.571106,454
871.688416,444
871.805664,451
871.922852,450
872.040222,459
872.157471,443
872.274719,451
872.391968,451
872.509155,449
872.626465,457
872.743652,437
872.860962,447
872.978149,445
873.095337,470
873.212646,443
873.329834,451
873.44696,464
873.564209,441
873.681396,466
873.798645,451
873.915894,464
874.03302,459
874.150208,449
874.267456,442
874.384583,456
874.501831,450
874.618958,441
874.736145,456
874.853333,437
874.970459,450
875.087646,447
875.204834,446
875.32196,448
875.439148,445
875.556274,446
875.673401,451
875.790527,451
875.907715,450
876.024841,461
876.141968,455
876.259094,453
876.376282,443
876.493347,459
876.610474,461
876.7276,444
876.844727,451
876.961853,466
877.078918,451
877.195984,470
877.313171,466
877.430237,451
877.547302,457
877.664368,446
877.781433,449
877.898499,431
878.015625,440
878.13269,455
878.249695,438
878.366821,445
878.483887,444
878.600952,450
878.717957,439
878.834961,454
878.952087,467
879.069092,451
879.186157,464
879.303162,447
879.420227,446
879.537231,453
879.654236,451
879.77124,449
879.888306,453
880.005249,451
880.122314,460
880.239319,445
880.356323,466
880.473328,441
880.590271,445
880.707275,445
880.824341,459
880.941284,452
881.058228,444
881.175232,447
881.292236,478
881.40918,461
881.526123,449
881.643066,447
881.760071,453
881.877014,459
881.993958,461
882.11084,460
882.227783,441
882.344727,446
882.46167,445
882.578613,465
882.695618,451
882.812439,461
882.929382,446
883.046326,462
883.163208,461
883.280151,448
883.397034,436
883.513916,469
883.630798,454
883.747742,455
883.864563,446
883.981506,447
884.098389,442
884.21521,458
884.332153,454
884.448975,432
884.565796,462
884.682678,446
884.7995,448
884.916443,454
885.033264,451
885.150085,471
885.266968,449
885.383789,457
885.500671,438
885.617493,458
885.734314,455
885.851196,469
885.967896,441
886.084717,465
886.201599,460
886.318359,473
886.435181,453
886.552002,452
886.668762,437
886.785645,472
886.902344,451
887.019165,451
887.135925,469
887.252747,470
887.369446,469
887.486267,454
887.603027,440
887.719788,468
887.836548,449
887.953247,472
888.070068,455
888.186829,459
888.303528,448
888.420288,460
888.536987,454
888.653687,445
888.770447,466
888.887146,464
889.003967,454
889.120667,454
889.237305,465
889.354065,439
889.470703,459
889.587463,450
889.704163,463
889.820862,460
889.937561,471
890.054199,453
890.170837,469
890.287598,475
890.404236,451
890.520874,459
890.637634,457
890.754211,468
890.87085,457
890.987549,456
891.104187,475
891.220886,471
891.337463,461
891.454102,471
891.57074,445
891.687378,441
891.804077,466
891.920654,452
892.037231,458
892.15387,463
892.270447,459
892.387085,455
892.503723,465
892.6203,447
892.736877,469
892.853516,473
892.970032,463
893.08667,445
893.203186,442
893.319763,450
893.43634,450
893.552917,458
893.669556,462
893.786011,468
893.902588,456
894.019165,452
894.135681,467
894.252197,471
894.368835,463
894.485291,456
894.601868,457
894.718384,462
894.8349,459
894.951355,465
895.067932,471
895.184448,462
895.300964,466
895.417419,470
895.533936,466
895.650452,458
895.766907,454
895.883423,471
895.999878,466
896.116333,476
896.232849,440
896.349304,450
896.465759,457
896.582214,464
896.698669,455
896.815125,470
896.931641,464
897.048035,472
897.164551,478
897.280884,467
897.397339,442
897.513794,471
897.630249,447
897.746582,466
897.863098,472
897.979431,475
898.095886,470
898.212341,464
898.328674,464
898.445129,470
898.561462,462
898.677795,461
898.794312,465
898.910645,461
899.026978,465
899.143433,464
899.259766,467
899.37616,445
899.492493,450
899.608765,476
899.725159,445
899.841553,462
899.957947,472
900.07428,452
900.190552,455
900.306946,452
900.423157,469
900.53949,462
900.655884,455
900.772156,457
900.888489,440
901.004822,468
901.121033,457
901.237366,466
901.353699,473
901.46991,470
901.586304,470
901.702515,470
901.818787,466
901.93512,463
902.051331,465
902.167603,470
902.283875,480
902.400085,472
902.516418,453
902.632629,475
902.74884,469
902.865112,480
902.981384,455
903.097595,441
903.213867,466
903.330017,453
903.446289,449
903.5625,472
903.67865,471
903.794922,477
903.911072,477
904.027344,460
904.143494,475
904.259705,469
904.375916,479
904.492065,468
904.608215,474
904.724426,459
904.840576,458
904.956726,460
905.072876,463
905.189087,473
905.305176,455
905.421387,465
905.537537,463
905.653687,464
905.769775,460
905.885925,472
906.002014,471
906.118164,459
906.234314,452
906.350403,459
906.466492,453
906.582642,460
906.69873,467
906.814758,461
906.930908,467
907.046936,471
907.163086,474
907.279175,472
907.395264,467
907.511353,462
907.62738,446
907.743408,485
907.859497,466
907.975525,438
908.091553,472
908.207703,456
908.32373,458
908.439758,482
908.555786,468
908.671814,485
908.787842,480
908.90387,475
909.019775,461
909.135864,463
909.251892,475
909.367859,463
909.483826,471
909.599854,484
909.715881,459
909.831848,473
909.947815,439
910.063782,477
910.179749,490
910.295776,469
910.411743,471
910.527649,456
910.643616,459
910.759583,465
910.875488,471
910.991455,466
911.107361,474
911.223267,461
911.339294,465
911.4552,479
911.571106,468
911.687073,481
911.802979,475
911.918823,466
912.034729,462
912.150635,465
912.266602,456
912.382446,460
912.498352,451
912.614197,468
912.730103,476
912.846008,464
792.44574,618
792.56488,655
792.68396,698
792.80304,681
792.92218,608
793.041199,608
793.160339,618
793.279419,625
793.398499,605
793.517578,593
793.636658,599
793.755737,613
793.874817,622
793.993896,624
794.112976,596
794.232056,585
794.351074,604
794.470215,599
794.589233,584
794.708313,591
794.827393,584
794.946411,576
795.065552,600
795.18457,589
795.303589,608
795.422668,583
795.541687,578
795.660767,590
795.779846,589
795.898865,585
796.017883,591
796.136963,591
796.255981,585
796.375061,575
796.49408,590
796.613037,589
796.732117,581
796.851135,581
796.970154,582
797.089233,601
797.208191,590
797.327271,579
797.446228,579
797.565186,591
797.684265,560
797.803223,581
797.922241,570
798.04126,580
798.160278,582
798.279297,590
798.398315,579
798.517273,568
798.636292,585
798.75531,581
798.874268,586
798.993286,588
799.112244,576
799.231323,572
799.350281,580
799.469238,566
799.588257,592
799.707153,565
799.826111,582
799.945129,578
800.064087,594
800.183044,593
800.302063,587
800.421021,575
800.539978,612
800.658936,556
800.777893,589
800.896912,574
801.015747,565
801.134705,571
801.253723,575
801.37262,586
801.491638,555
801.610535,589
801.729492,596
801.84845,591
801.967407,602
802.086243,560
802.205261,593
802.324158,569
802.443115,586
802.562073,592
802.680969,617
802.799927,589
802.918762,584
803.037659,572
803.156677,577
803.275574,587
803.39447,587
803.513428,575
803.632263,618
803.751221,618
803.870117,588
803.989014,599
804.107971,601
804.226746,600
804.345642,620
804.4646,586
804.583496,604
804.702393,616
804.821228,601
804.940125,639
805.059021,597
805.177917,612
805.296814,597
805.415649,612
805.534546,585
805.653442,592
805.772278,619
805.891113,623
806.01001,590
806.128906,623
806.247742,619
806.366577,603
806.485413,616
806.604309,602
806.723145,632
806.84198,607
806.960876,623
807.079712,606
807.198486,612
807.317383,627
807.436218,588
807.554993,608
807.673889,615
807.792725,623
807.91156,624
808.030396,635
808.14917,616
808.268005,600
808.386841,635
808.505676,613
808.624451,617
808.743286,619
808.862122,659
808.980896,626
809.099731,639
809.218506,619
809.337341,632
809.456116,638
809.57489,620
809.693726,626
809.8125,632
809.931274,638
810.050049,636
810.168884,621
810.287659,651
810.406372,614
810.525269,669
810.643982,644
810.762756,626
810.881531,627
811.000305,636
811.11908,629
811.237854,635
811.356567,624
811.475403,607
811.594116,615
811.71283,657
811.831604,632
811.950378,636
812.069153,645
812.187927,636
812.30658,642
812.425415,626
812.544128,635
812.662781,616
812.781616,613
812.900269,644
813.019043,650
813.137756,627
813.256531,630
813.375244,661
813.493896,613
813.612671,660
813.731384,618
813.850037,632
813.96875,637
814.087524,615
814.206238,631
814.324951,608
814.443604,610
814.562256,620
814.68103,633
814.799683,669
814.918335,626
815.037109,616
815.155762,627
815.274475,643
815.393188,615
815.511841,616
815.630554,591
815.749146,620
815.867859,621
815.986572,585
816.105164,617
816.223877,594
816.342529,606
816.461182,613
816.579895,619
816.698486,629
816.817139,626
816.935791,609
817.054504,646
817.173096,624
817.291748,626
817.4104,611
817.529053,600
817.647644,595
817.766235,585
817.884949,573
818.00354,565
818.122192,560
818.240845,569
818.359436,560
818.478088,538
818.59668,555
818.715271,530
818.833923,520
818.952515,534
819.071106,518
819.189758,517
819.30835,505
819.426941,504
819.545532,515
819.664124,509
819.782715,522
819.901306,504
820.019897,511
820.138489,481
820.25708,498
820.375671,497
820.494202,494
820.612732,495
820.731384,480
820.849915,482
820.968506,499
821.087097,515
821.205627,504
821.324158,478
821.442749,471
821.561279,478
821.679871,484
821.798401,477
821.916931,503
822.035461,482
822.154053,492
822.272583,467
822.391174,484
822.509583,450
822.628174,485
822.746704,478
822.865234,485
822.983765,463
823.102295,491
823.220825,466
823.339294,480
823.457825,491
823.576355,478
823.694824,464
823.813354,492
823.931885,471
824.050354,487
824.168884,487
824.287354,499
824.405823,501
824.524353,477
824.642822,477
824.761353,476
824.879822,515
824.998291,480
825.116699,476
825.235291,495
825.353699,475
825.472168,474
825.590637,490
825.709106,485
825.827576,482
825.946045,463
826.064453,501
826.182983,441
826.301392,469
826.4198,483
826.53833,463
826.656738,483
826.775208,467
826.893677,453
827.012024,473
827.130493,485
827.248962,463
827.36731,480
827.485779,462
827.604248,456
827.722595,452
827.841064,475
827.959412,453
828.077942,473
828.196289,446
828.314636,479
828.433105,487
828.551514,481
828.669861,471
828.78833,470
828.906677,452
829.025085,457
829.143433,469
829.261841,454
829.38031,466
829.498657,473
829.617004,457
829.735413,489
829.85376,455
829.972107,468
830.090515,472
830.208862,451
830.327209,446
830.445557,473
830.563904,473
830.682312,483
830.800659,432
830.919006,453
831.037354,477
831.155701,456
831.274048,450
831.392395,466
831.51062,449
831.629028,449
831.747314,474
831.865662,430
831.984009,456
832.102356,471
832.220642,462
832.338928,467
832.457275,463
832.575623,450
832.693909,458
832.812134,464
832.930481,453
833.048828,469
833.167114,452
833.2854,478
833.403687,454
833.521973,459
833.640259,452
833.758545,461
833.876831,454
833.995056,437
834.113281,451
834.231628,453
834.349915,470
834.468201,449
834.586426,435
834.704651,471
834.822998,450
834.941162,471
835.059448,464
835.177673,467
835.295959,466
835.414246,466
835.53241,468
835.650635,470
835.768921,464
835.887146,461
836.005371,471
836.123596,476
836.241821,463
836.360046,480
836.478271,460
836.596497,462
836.714722,479
836.832886,476
836.95105,453
837.069336,483
837.1875,477
837.305725,490
837.423889,450
837.542053,487
837.660339,466
837.778503,469
837.896667,471
838.014832,485
838.132996,488
838.25116,478
838.369385,466
838.487488,481
838.605713,481
838.723877,482
838.84198,468
838.960205,486
839.078308,473
839.196472,472
839.314636,484
839.4328,477
839.550964,478
839.669067,475
839.787231,476
839.905396,473
840.023499,486
840.141602,476
840.259766,452
840.377869,485
840.495972,478
840.614136,479
840.732239,471
840.850342,445
840.968445,478
841.086548,467
841.204651,465
841.322754,466
841.440918,451
841.55896,463
841.677002,467
841.795166,463
841.913208,470
842.031311,462
842.149353,463
842.267456,457
842.385498,462
842.503601,454
842.621643,464
842.739746,462
842.857788,450
842.97583,464
843.093933,459
843.211975,476
843.330017,461
843.44812,449
843.566101,447
843.684204,440
843.802246,453
843.920227,459
844.038269,447
844.156311,459
844.274292,452
844.392395,462
844.510376,457
844.628357,471
844.74646,446
844.864441,432
844.982422,433
845.100403,476
845.218384,439
845.336426,433
845.454468,448
845.572449,465
845.69043,446
845.808411,465
845.926453,441
846.044373,441
846.162354,446
846.280396,449
846.398315,457
846.516296,475
846.634216,426
846.752197,438
846.870178,441
846.988098,434
847.106079,444
847.22406,447
847.34198,431
847.4599,450
847.577881,453
847.695801,451
847.813782,466
847.931641,443
848.049561,444
848.167603,443
848.285461,437
848.403381,452
848.521362,455
848.639221,440
848.75708,442
848.875,427
848.99292,458
849.110901,455
849.22876,450
849.34668,450
849.464539,443
849.582458,455
849.700317,461
849.818176,445
849.936096,440
850.053955,439
850.171875,458
850.289673,457
850.407593,468
850.525452,441
850.643311,443
850.761169,454
850.878967,444
850.996887,443
851.114746,436
851.232544,467
851.350403,441
851.468262,456
851.58606,455
851.703979,458
851.821777,446
851.939636,458
852.057434,445
852.175232,447
852.293091,444
852.410889,457
852.528687,433
852.646545,464
852.764343,462
852.88208,460
852.999939,451
853.117676,446
853.235535,447
853.353271,453
853.471069,455
853.588928,449
853.706604,435
853.824402,456
853.9422,453
854.059998,468
854.177734,454
854.295532,445
854.413269,472
854.531006,449
854.648804,441
854.766541,454
854.884277,446
855.002014,451
855.119751,446
855.237549,461
855.355225,464
855.473022,445
855.590698,489
855.708435,466
855.826172,475
855.943848,469
856.061646,446
856.179321,444
856.296997,452
856.414795,465
856.53241,451
856.650085,472
856.767822,438
856.885559,480
857.003174,476
857.120911,446
857.238586,449
857.356201,456
857.473938,440
857.591614,462
857.709351,457
857.826965,456
857.944641,452
858.062317,450
858.179993,455
858.297668,455
858.415283,460
858.532959,454
858.650574,462
858.768188,458
858.885803,450
859.003479,468
859.121094,456
859.23877,461
859.356384,452
859.473999,441
859.591675,447
859.709229,455
859.826843,461
859.944458,450
860.062012,456
860.179626,452
860.297302,467
860.414856,449
860.532471,445
860.650024,463
860.767639,457
860.885193,472
861.002808,454
861.120361,444
861.237976,442
861.35553,480
861.473022,453
861.590698,457
861.708191,452
861.825745,445
861.943298,450
862.060852,454
862.178406,452
862.295959,463
862.413513,455
862.531006,435
862.64856,431
862.766113,455
862.883667,444
863.00116,448
863.118713,448
863.236206,451
863.353699,451
863.471252,454
863.588745,448
863.706177,444
863.82373,452
863.941162,465
864.058716,467
864.176208,452
864.29364,444
864.411194,459
864.528687,465
864.646118,465
864.763611,432
864.881042,458
864.998535,455
865.116028,461
865.233459,436
865.350891,460
865.468384,451
865.585754,456
865.703308,453
865.820679,456
865.938171,434
866.055542,451
866.173035,452
866.290466,460
866.407837,454
866.52533,449
866.6427,466
866.760071,471
866.877563,458
866.994934,469
867.112305,458
867.229736,469
867.347107,439
867.464539,463
867.58197,464
867.699341,446
867.81665,458
867.934082,459
868.051453,460
868.168823,471
868.286194,449
868.403564,449
868.520935,439
868.638306,474
868.755676,450
868.872986,450
868.990295,452
869.107727,462
869.225037,459
869.342346,462
869.459717,453
869.577026,443
869.694336,480
869.811707,458
869.929016,465
870.046326,459
870.163635,464
870.280945,469
870.398254,471
870.515564,466
870.632812,464
870.750183,457
870.867432,446
870.984741,454
871.102051,468
871.219299,435
871.336609,444
871.453918,479
871.571106,446
871.688416,459
871.805664,454
871.922852,461
872.040222,446
872.157471,444
872.274719,451
872.391968,464
872.509155,466
872.626465,429
872.743652,449
872.860962,450
872.978149,470
873.095337,439
873.212646,456
873.329834,465
873.44696,449
873.564209,463
873.681396,469
873.798645,464
873.915894,454
874.03302,439
874.150208,446
874.267456,451
874.384583,444
874.501831,458
874.618958,449
874.736145,452
874.853333,441
874.970459,461
875.087646,464
875.204834,468
875.32196,432
875.439148,462
875.556274,447
875.673401,470
875.790527,442
875.907715,455
876.024841,460
876.141968,452
876.259094,472
876.376282,471
876.493347,432
876.610474,436
876.7276,442
876.844727,452
876.961853,463
877.078918,466
877.195984,454
877.313171,465
877.430237,448
877.547302,456
877.664368,458
877.781433,453
877.898499,461
878.015625,465
878.13269,443
878.249695,440
878.366821,465
878.483887,470
878.600952,470
878.717957,458
878.834961,422
878.952087,467
879.069092,446
879.186157,464
879.303162,448
879.420227,459
879.537231,455
879.654236,463
879.77124,454
879.888306,445
880.005249,440
880.122314,461
880.239319,446
880.356323,457
880.473328,438
880.590271,451
880.707275,450
880.824341,478
880.941284,454
881.058228,457
881.175232,442
881.292236,460
881.40918,449
881.526123,441
881.643066,441
881.760071,445
881.877014,443
881.993958,454
882.11084,436
882.227783,469
882.344727,460
882.46167,440
882.578613,438
882.695618,462
882.812439,450
882.929382,443
883.046326,469
883.163208,467
883.280151,445
883.397034,478
883.513916,432
883.630798,471
883.747742,449
883.864563,473
883.981506,447
884.098389,463
884.21521,434
884.332153,463
884.448975,450
884.565796,458
884.682678,447
884.7995,481
884.916443,443
885.033264,452
885.150085,462
885.266968,463
885.383789,443
885.500671,453
885.617493,468
885.734314,467
885.851196,446
885.967896,468
886.084717,472
886.201599,467
886.318359,469
886.435181,453
886.552002,470
886.668762,458
886.785645,468
886.902344,454
887.019165,449
887.135925,464
887.252747,459
887.369446,464
887.486267,459
887.603027,462
887.719788,449
887.836548,459
887.953247,444
888.070068,466
888.186829,431
888.303528,465
888.420288,428
888.536987,467
888.653687,466
888.770447,456
888.887146,450
889.003967,457
889.120667,465
889.237305,450
889.354065,435
889.470703,460
889.587463,463
889.704163,462
889.820862,434
889.937561,448
890.054199,450
890.170837,460
890.287598,447
890.404236,465
890.520874,464
890.637634,467
890.754211,469
890.87085,455
890.987549,449
891.104187,467
891.220886,461
891.337463,470
891.454102,468
891.57074,470
891.687378,450
891.804077,464
891.920654,459
892.037231,467
892.15387,466
892.270447,466
892.387085,449
892.503723,459
892.6203,458
892.736877,459
892.853516,448
892.970032,468
893.08667,461
893.203186,488
893.319763,460
893.43634,449
893.552917,451
893.669556,439
893.786011,458
893.902588,476
894.019165,454
894.135681,472
894.252197,457
894.368835,464
894.485291,455
894.601868,461
894.718384,477
894.8349,456
894.951355,464
895.067932,444
895.184448,442
895.300964,475
895.417419,458
895.533936,472
895.650452,464
895.766907,462
895.883423,451
895.999878,458
896.116333,481
896.232849,456
896.349304,469
896.465759,457
896.582214,445
896.698669,465
896.815125,465
896.931641,456
897.048035,441
897.164551,485
897.280884,477
897.397339,462
897.513794,456
897.630249,468
897.746582,465
897.863098,481
897.979431,447
898.095886,454
898.212341,462
898.328674,471
898.445129,464
898.561462,475
898.677795,480
898.794312,474
898.910645,457
899.026978,461
899.143433,466
899.259766,457
899.37616,474
899.492493,449
899.608765,456
899.725159,466
899.841553,457
899.957947,463
900.07428,460
900.190552,481
900.306946,466
900.423157,449
900.53949,462
900.655884,465
900.772156,462
900.888489,451
901.004822,447
901.121033,482
901.237366,464
901.353699,475
901.46991,471
901.586304,456
901.702515,461
901.818787,457
901.93512,446
902.051331,479
902.167603,466
902.283875,479
902.400085,446
902.516418,458
902.632629,451
902.74884,478
902.865112,467
902.981384,459
903.097595,459
903.213867,463
903.330017,467
903.446289,449
903.5625,456
903.67865,476
903.794922,473
903.911072,467
904.027344,471
904.143494,466
904.259705,458
904.375916,483
904.492065,476
904.608215,478
904.724426,475
904.840576,473
904.956726,461
905.072876,454
905.189087,491
905.305176,462
905.421387,478
905.537537,480
905.653687,452
905.769775,458
905.885925,458
906.002014,477
906.118164,466
906.234314,476
906.350403,467
906.466492,471
906.582642,471
906.69873,487
906.814758,476
906.930908,480
907.046936,466
907.163086,475
907.279175,443
907.395264,452
907.511353,444
907.62738,459
907.743408,464
907.859497,452
907.975525,461
908.091553,478
908.207703,453
908.32373,459
908.439758,479
908.555786,464
908.671814,473
908.787842,486
908.90387,470
909.019775,459
909.135864,468
909.251892,484
909.367859,475
909.483826,496
909.599854,476
909.715881,475
909.831848,444
909.947815,473
910.063782,474
910.179749,465
910.295776,466
910.411743,488
910.527649,465
910.643616,466
910.759583,458
910.875488,453
910.991455,448
911.107361,480
911.223267,446
911.339294,487
911.4552,460
911.571106,485
911.687073,460
911.802979,482
911.918823,467
912.034729,477
912.150635,450
912.266602,459
912.382446,466
912.498352,474
912.614197,450
912.730103,462
912.846008,458
792.44574,630
792.56488,642
792.68396,708
792.80304,661
792.92218,617
793.041199,603
793.160339,596
793.279419,610
793.398499,602
793.517578,607
793.636658,603
793.755737,609
793.874817,628
793.993896,617
794.112976,589
794.232056,601
794.351074,596
794.470215,598
794.589233,599
794.708313,608
794.827393,592
794.946411,599
795.065552,615
795.18457,605
795.303589,585
795.422668,598
795.541687,567
795.660767,577
795.779846,590
795.898865,590
796.017883,593
796.136963,584
796.255981,596
796.375061,594
796.49408,572
796.613037,569
796.732117,574
796.851135,578
796.970154,579
797.089233,562
797.208191,577
797.327271,594
797.446228,598
797.565186,568
797.684265,586
797.803223,581
797.922241,585
798.04126,573
798.160278,574
798.279297,597
798.398315,561
798.517273,603
798.636292,583
798.75531,576
798.874268,586
798.993286,587
799.112244,564
799.231323,572
799.350281,597
799.469238,586
799.588257,572
799.707153,560
799.826111,594
799.945129,573
800.064087,576
800.183044,589
800.302063,582
800.421021,604
800.539978,572
800.658936,599
800.777893,570
800.896912,573
801.015747,575
801.134705,580
801.253723,591
801.37262,577
801.491638,584
801.610535,582
801.729492,570
801.84845,580
801.967407,580
802.086243,594
802.205261,612
802.324158,594
802.443115,601
802.562073,594
802.680969,597
802.799927,598
802.918762,575
803.037659,557
803.156677,580
803.275574,565
803.39447,580
803.513428,590
803.632263,613
803.751221,610
803.870117,586
803.989014,605
804.107971,591
804.226746,610
804.345642,621
804.4646,611
804.583496,613
804.702393,598
804.821228,597
804.940125,599
805.059021,591
805.177917,620
805.296814,636
805.415649,612
805.534546,607
805.653442,630
805.772278,612
805.891113,593
806.01001,612
806.128906,635
806.247742,631
806.366577,603
806.485413,628
806.604309,609
806.723145,614
806.84198,617
806.960876,609
807.079712,618
807.198486,622
807.317383,603
807.436218,604
807.554993,613
807.673889,642
807.792725,643
807.91156,618
808.030396,635
808.14917,609
808.268005,619
808.386841,608
808.505676,626
808.624451,617
808.743286,634
808.862122,613
808.980896,629
809.099731,639
809.218506,621
809.337341,623
809.456116,625
809.57489,630
809.693726,638
809.8125,606
809.931274,659
810.050049,633
810.168884,618
810.287659,640
810.406372,647
810.525269,643
810.643982,657
810.762756,629
810.881531,605
811.000305,657
811.11908,621
811.237854,639
811.356567,635
811.475403,611
811.594116,620
811.71283,652
811.831604,646
811.950378,624
812.069153,622
812.187927,636
812.30658,644
812.425415,610
812.544128,657
812.662781,639
812.781616,627
812.900269,606
813.019043,632
813.137756,643
813.256531,638
813.375244,639
813.493896,638
813.612671,641
813.731384,629
813.850037,602
813.96875,629
814.087524,616
814.206238,624
814.324951,617
814.443604,611
814.562256,601
814.68103,616
814.799683,625
814.918335,630
815.037109,586
815.155762,621
815.274475,609
815.393188,642
815.511841,628
815.630554,620
815.749146,613
815.867859,594
815.986572,623
816.105164,624
816.223877,615
816.342529,616
816.461182,613
816.579895,632
816.698486,602
816.817139,596
816.935791,623
817.054504,623
817.173096,632
817.291748,610
817.4104,613
817.529053,578
817.647644,572
817.766235,572
817.884949,553
818.00354,568
818.122192,561
818.240845,553
818.359436,587
818.478088,566
818.59668,540
818.715271,526
818.833923,544
818.952515,514
819.071106,485
819.189758,505
819.30835,517
819.426941,513
819.545532,504
819.664124,514
819.782715,505
819.901306,506
820.019897,478
820.138489,498
820.25708,494
820.375671,519
820.494202,494
820.612732,499
820.731384,472
820.849915,491
820.968506,491
821.087097,502
821.205627,484
821.324158,500
821.442749,479
821.561279,492
821.679871,506
821.798401,474
821.916931,474
822.035461,488
822.154053,505
822.272583,469
822.391174,471
822.509583,495
822.628174,484
822.746704,496
822.865234,476
822.983765,478
823.102295,471
823.220825,480
823.339294,485
823.457825,474
823.576355,504
823.694824,481
823.813354,490
823.931885,466
824.050354,497
824.168884,496
824.287354,481
824.405823,471
824.524353,489
824.642822,491
824.761353,490
824.879822,477
824.998291,493
825.116699,505
825.235291,489
825.353699,485
825.472168,500
825.590637,476
825.709106,485
825.827576,477
825.946045,485
826.064453,482
826.182983,463
826.301392,468
826.4198,481
826.53833,482
826.656738,467
826.775208,491
826.893677,447
827.012024,457
827.130493,474
827.248962,463
827.36731,478
827.485779,449
827.604248,467
827.722595,462
827.841064,467
827.959412,477
828.077942,480
828.196289,463
828.314636,466
828.433105,473
828.551514,446
828.669861,460
828.78833,457
828.906677,475
829.025085,469
829.143433,470
829.261841,464
829.38031,475
829.498657,444
829.617004,461
829.735413,463
829.85376,481
829.972107,451
830.090515,443
830.208862,460
830.327209,468
830.445557,466
830.563904,477
830.682312,468
830.800659,453
830.919006,468
831.037354,462
831.155701,467
831.274048,442
831.392395,468
831.51062,479
831.629028,480
831.747314,472
831.865662,456
831.984009,475
832.102356,443
832.220642,467
832.338928,460
832.457275,460
832.575623,481
832.693909,452
832.812134,466
832.930481,464
833.048828,466
833.167114,467
833.2854,445
833.403687,459
833.521973,450
833.640259,458
833.758545,451
833.876831,465
833.995056,470
834.113281,443
834.231628,459
834.349915,475
834.468201,444
834.586426,456
834.704651,443
834.822998,444
834.941162,471
835.059448,474
835.177673,453
835.295959,471
835.414246,427
835.53241,466
835.650635,451
835.768921,479
835.887146,475
836.005371,462
836.123596,460
836.241821,464
836.360046,465
836.478271,477
836.596497,492
836.714722,475
836.832886,477
836.95105,467
837.069336,486
837.1875,493
837.305725,470
837.423889,477
837.542053,482
837.660339,493
837.778503,476
837.896667,485
838.014832,486
838.132996,498
838.25116,468
838.369385,487
838.487488,481
838.605713,473
838.723877,481
838.84198,483
838.960205,472
839.078308,464
839.196472,473
839.314636,481
839.4328,467
839.550964,471
839.669067,453
839.787231,473
839.905396,491
840.023499,451
840.141602,457
840.259766,479
840.377869,468
840.495972,460
840.614136,462
840.732239,494
840.850342,456
840.968445,469
841.086548,456
841.204651,464
841.322754,455
841.440918,464
841.55896,445
841.677002,468
841.795166,453
841.913208,447
842.031311,464
842.149353,444
842.267456,478
842.385498,453
842.503601,431
842.621643,455
842.739746,438
842.857788,449
842.97583,440
843.093933,466
843.211975,459
843.330017,463
843.44812,462
843.566101,451
843.684204,432
843.802246,469
843.920227,462
844.038269,445
844.156311,455
844.274292,459
844.392395,444
844.510376,451
844.628357,457
844.74646,438
844.864441,456
844.982422,464
845.100403,444
845.218384,452
845.336426,433
845.454468,467
845.572449,451
845.69043,458
845.808411,454
845.926453,445
846.044373,440
846.162354,452
846.280396,437
846.398315,447
846.516296,440
846.634216,438
846.752197,454
846.870178,458
846.988098,459
847.106079,437
847.22406,433
847.34198,440
847.4599,452
847.577881,433
847.695801,454
847.813782,440
847.931641,457
848.049561,459
848.167603,454
848.285461,449
848.403381,444
848.521362,439
848.639221,449
848.75708,460
848.875,448
848.99292,432
849.110901,444
849.22876,458
849.34668,455
849.464539,466
849.582458,460
849.700317,456
849.818176,441
849.936096,431
850.053955,469
850.171875,435
850.289673,440
850.407593,459
850.525452,469
850.643311,460
850.761169,439
850.878967,463
850.996887,436
851.114746,443
851.232544,443
851.350403,450
851.468262,443
851.58606,450
851.703979,459
851.821777,447
851.939636,457
852.057434,447
852.175232,434
852.293091,444
852.410889,458
852.528687,479
852.646545,463
852.764343,452
852.88208,461
852.999939,436
853.117676,449
853.235535,451
853.353271,438
853.471069,456
853.588928,464
853.706604,449
853.824402,467
853.9422,456
854.059998,435
854.177734,444
854.295532,444
854.413269,456
854.531006,452
854.648804,461
854.766541,454
854.884277,446
855.002014,439
855.119751,449
855.237549,467
855.355225,442
855.473022,449
855.590698,449
855.708435,452
855.826172,460
855.943848,451
856.061646,463
856.179321,446
856.296997,483
856.414795,430
856.53241,446
856.650085,457
856.767822,466
856.885559,456
857.003174,440
857.120911,463
857.238586,453
857.356201,458
857.473938,477
857.591614,462
857.709351,453
857.826965,480
857.944641,466
858.062317,455
858.179993,465
858.297668,453
858.415283,455
858.532959,446
858.650574,463
858.768188,437
858.885803,461
859.003479,471
859.121094,436
859.23877,435
859.356384,453
859.473999,473
859.591675,456
859.709229,455
859.826843,474
859.944458,447
860.062012,437
860.179626,470
860.297302,448
860.414856,458
860.532471,452
860.650024,461
860.767639,445
860.885193,460
861.002808,445
861.120361,442
861.237976,457
861.35553,435
861.473022,463
861.590698,442
861.708191,464
861.825745,441
861.943298,448
862.060852,450
862.178406,472
862.295959,456
862.413513,451
862.531006,443
862.64856,462
862.766113,430
862.883667,439
863.00116,442
863.118713,456
863.236206,446
863.353699,445
863.471252,451
863.588745,467
863.706177,438
863.82373,461
863.941162,452
864.058716,467
864.176208,449
864.29364,453
864.411194,444
864.528687,449
864.646118,473
864.763611,453
864.881042,470
864.998535,451
865.116028,454
865.233459,456
865.350891,472
865.468384,463
865.585754,447
865.703308,443
865.820679,453
865.938171,457
866.055542,451
866.173035,450
866.290466,449
866.407837,442
866.52533,443
866.6427,468
866.760071,435
866.877563,449
866.994934,475
867.112305,447
867.229736,469
867.347107,436
867.464539,459
867.58197,439
867.699341,433
867.81665,468
867.934082,437
868.051453,451
868.168823,465
868.286194,468
868.403564,431
868.520935,457
868.638306,456
868.755676,461
868.872986,436
868.990295,450
869.107727,462
869.225037,457
869.342346,445
869.459717,440
869.577026,465
869.694336,453
869.811707,451
869.929016,462
870.046326,431
870.163635,445
870.280945,460
870.398254,450
870.515564,448
870.632812,442
870.750183,468
870.867432,471
870.984741,457
871.102051,446
871.219299,447
871.336609,460
871.453918,445
871.571106,457
871.688416,449
871.805664,460
871.922852,435
872.040222,461
872.157471,461
872.274719,445
872.391968,457
872.509155,458
872.626465,463
872.743652,462
872.860962,441
872.978149,456
873.095337,466
873.212646,458
873.329834,446
873.44696,451
873.564209,450
873.681396,441
873.798645,446
873.915894,453
874.03302,461
874.150208,454
874.267456,440
874.384583,469
874.501831,435
874.618958,469
874.736145,450
874.853333,457
874.970459,461
875.087646,463
875.204834,440
875.32196,453
875.439148,452
875.556274,454
875.673401,453
875.790527,457
875.907715,448
876.024841,453
876.141968,440
876.259094,455
876.376282,451
876.493347,453
876.610474,443
876.7276,448
876.844727,442
876.961853,458
877.078918,458
877.195984,442
877.313171,434
877.430237,461
877.547302,457
877.664368,472
877.781433,448
877.898499,449
878.015625,455
878.13269,452
878.249695,445
878.366821,463
878.483887,463
878.600952,455
878.717957,456
878.834961,456
878.952087,466
879.069092,463
879.186157,443
879.303162,453
879.420227,449
879.537231,475
879.654236,447
879.77124,451
879.888306,443
880.005249,456
880.122314,455
880.239319,443
880.356323,474
880.473328,455
880.590271,447
880.707275,452
880.824341,460
880.941284,443
881.058228,460
881.175232,451
881.292236,450
881.40918,428
881.526123,447
881.643066,461
881.760071,443
881.877014,446
881.993958,475
882.11084,472
882.227783,440
882.344727,468
882.46167,448
882.578613,455
882.695618,450
882.812439,451
882.929382,459
883.046326,458
883.163208,447
883.280151,441
883.397034,445
883.513916,435
883.630798,440
883.747742,446
883.864563,458
883.981506,454
884.098389,455
884.21521,439
884.332153,478
884.448975,456
884.565796,473
884.682678,461
884.7995,453
884.916443,449
885.033264,441
885.150085,469
885.266968,454
885.383789,469
885.500671,457
885.617493,475
885.734314,473
885.851196,454
885.967896,480
886.084717,454
886.201599,465
886.318359,469
886.435181,455
886.552002,463
886.668762,455
886.785645,460
886.902344,461
887.019165,467
887.135925,464
887.252747,467
887.369446,462
887.486267,455
887.603027,459
887.719788,457
887.836548,445
887.953247,462
888.070068,467
888.186829,463
888.303528,463
888.420288,450
888.536987,435
888.653687,457
888.770447,452
888.887146,466
889.003967,465
889.120667,472
889.237305,470
889.354065,444
889.470703,459
889.587463,449
889.704163,463
889.820862,449
889.937561,453
890.054199,439
890.170837,476
890.287598,454
890.404236,450
890.520874,465
890.637634,459
890.754211,454
890.87085,456
890.987549,466
891.104187,459
891.220886,462
891.337463,468
891.454102,480
891.57074,483
891.687378,473
891.804077,451
891.920654,447
892.037231,473
892.15387,469
892.270447,455
892.387085,451
892.503723,470
892.6203,467
892.736877,440
892.853516,466
892.970032,461
893.08667,475
893.203186,489
893.319763,471
893.43634,464
893.552917,473
893.669556,467
893.786011,467
893.902588,475
894.019165,457
894.135681,458
894.252197,460
894.368835,463
894.485291,444
894.601868,445
894.718384,469
894.8349,463
894.951355,467
895.067932,464
895.184448,443
895.300964,475
895.417419,445
895.533936,460
895.650452,476
895.766907,448
895.883423,465
895.999878,453
896.116333,464
896.232849,452
896.349304,488
896.465759,473
896.582214,464
896.698669,484
896.815125,455
896.931641,458
897.048035,450
897.164551,449
897.280884,473
897.397339,449
897.513794,480
897.630249,462
897.746582,466
897.863098,456
897.979431,466
898.095886,462
898.212341,459
898.328674,470
898.445129,466
898.561462,469
898.677795,467
898.794312,474
898.910645,468
899.026978,448
899.143433,452
899.259766,481
899.37616,464
899.492493,467
899.608765,461
899.725159,458
899.841553,455
899.957947,455
900.07428,452
900.190552,471
900.306946,455
900.423157,458
900.53949,465
900.655884,474
900.772156,477
900.888489,456
901.004822,442
901.121033,453
901.237366,469
901.353699,455
901.46991,462
901.586304,472
901.702515,485
901.818787,464
901.93512,478
902.051331,476
902.167603,464
902.283875,473
902.400085,463
902.516418,454
902.632629,485
902.74884,470
902.865112,461
902.981384,481
903.097595,470
903.213867,464
903.330017,468
903.446289,492
903.5625,452
903.67865,469
903.794922,453
903.911072,476
904.027344,466
904.143494,485
904.259705,489
904.375916,480
904.492065,479
904.608215,451
904.724426,465
904.840576,460
904.956726,471
905.072876,474
905.189087,477
905.305176,441
905.421387,480
905.537537,466
905.653687,462
905.769775,488
905.885925,477
906.002014,476
906.118164,451
906.234314,474
906.350403,442
906.466492,459
906.582642,462
906.69873,479
906.814758,482
906.930908,473
907.046936,469
907.163086,472
907.279175,475
907.395264,455
907.511353,472
907.62738,465
907.743408,472
907.859497,453
907.975525,468
908.091553,471
908.207703,468
908.32373,450
908.439758,474
908.555786,468
908.671814,468
908.787842,461
908.90387,476
909.019775,484
909.135864,460
909.251892,449
909.367859,467
909.483826,467
909.599854,462
909.715881,463
909.831848,475
909.947815,475
910.063782,486
910.179749,460
910.295776,473
910.411743,473
910.527649,464
910.643616,479
910.759583,451
910.875488,464
910.991455,465
911.107361,496
911.223267,485
911.339294,483
911.4552,464
911.571106,490
911.687073,469
911.802979,466
911.918823,470
912.034729,452
912.150635,485
912.266602,481
912.382446,465
912.498352,459
912.614197,453
912.730103,473
912.846008,470
