792.44574,597
792.56488,614
792.68396,675
792.80304,653
792.92218,592
793.041199,588
793.160339,600
793.279419,596
793.398499,589
793.517578,593
793.636658,564
793.755737,595
793.874817,613
793.993896,607
794.112976,583
794.232056,544
794.351074,590
794.470215,589
794.589233,592
794.708313,602
794.827393,561
794.946411,561
795.065552,557
795.18457,612
795.303589,559
795.422668,565
795.541687,571
795.660767,554
795.779846,559
795.898865,556
796.017883,572
796.136963,556
796.255981,565
796.375061,571
796.49408,561
796.613037,575
796.732117,571
796.851135,568
796.970154,555
797.089233,559
797.208191,582
797.327271,560
797.446228,570
797.565186,569
797.684265,535
797.803223,561
797.922241,535
798.04126,576
798.160278,559
798.279297,554
798.398315,567
798.517273,564
798.636292,565
798.75531,571
798.874268,563
798.993286,557
799.112244,566
799.231323,577
799.350281,556
799.469238,581
799.588257,558
799.707153,564
799.826111,571
799.945129,530
800.064087,574
800.183044,547
800.302063,550
800.421021,562
800.539978,558
800.658936,554
800.777893,565
800.896912,543
801.015747,560
801.134705,564
801.253723,570
801.37262,566
801.491638,548
801.610535,561
801.729492,568
801.84845,543
801.967407,564
802.086243,569
802.205261,581
802.324158,584
802.443115,594
802.562073,565
802.680969,574
802.799927,575
802.918762,584
803.037659,555
803.156677,548
803.275574,542
803.39447,569
803.513428,570
803.632263,563
803.751221,567
803.870117,570
803.989014,575
804.107971,570
804.226746,573
804.345642,568
804.4646,574
804.583496,584
804.702393,588
804.821228,587
804.940125,593
805.059021,591
805.177917,592
805.296814,591
805.415649,598
805.534546,597
805.653442,586
805.772278,584
805.891113,598
806.01001,596
806.128906,591
806.247742,582
806.366577,569
806.485413,606
806.604309,581
806.723145,603
806.84198,600
806.960876,590
807.079712,604
807.198486,601
807.317383,600
807.436218,610
807.554993,581
807.673889,585
807.792725,587
807.91156,593
808.030396,591
808.14917,592
808.268005,591
808.386841,605
808.505676,583
808.624451,606
808.743286,589
808.862122,591
808.980896,582
809.099731,602
809.218506,608
809.337341,591
809.456116,570
809.57489,611
809.693726,600
809.8125,598
809.931274,595
810.050049,601
810.168884,609
810.287659,630
810.406372,608
810.525269,621
810.643982,599
810.762756,593
810.881531,595
811.000305,615
811.11908,605
811.237854,613
811.356567,601
811.475403,607
811.594116,606
811.71283,618
811.831604,608
811.950378,604
812.069153,607
812.187927,601
812.30658,583
812.425415,593
812.544128,603
812.662781,596
812.781616,615
812.900269,615
813.019043,602
813.137756,602
813.256531,615
813.375244,599
813.493896,628
813.612671,590
813.731384,604
813.850037,613
813.96875,605
814.087524,588
814.206238,587
814.324951,612
814.443604,592
814.562256,599
814.68103,596
814.799683,619
814.918335,626
815.037109,598
815.155762,602
815.274475,603
815.393188,615
815.511841,581
815.630554,594
815.749146,583
815.867859,587
815.986572,598
816.105164,572
816.223877,594
816.342529,599
816.461182,592
816.579895,610
816.698486,589
816.817139,582
816.935791,587
817.054504,602
817.173096,598
817.291748,566
817.4104,584
817.529053,560
817.647644,574
817.766235,580
817.884949,547
818.00354,567
818.122192,541
818.240845,532
818.359436,535
818.478088,542
818.59668,534
818.715271,516
818.833923,550
818.952515,506
819.071106,521
819.189758,513
819.30835,491
819.426941,484
819.545532,495
819.664124,493
819.782715,492
819.901306,494
820.019897,489
820.138489,487
820.25708,484
820.375671,474
820.494202,491
820.612732,484
820.731384,479
820.849915,495
820.968506,471
821.087097,478
821.205627,471
821.324158,477
821.442749,471
821.561279,479
821.679871,473
821.798401,487
821.916931,498
822.035461,480
822.154053,478
822.272583,493
822.391174,471
822.509583,484
822.628174,492
822.746704,453
822.865234,478
822.983765,462
823.102295,478
823.220825,470
823.339294,468
823.457825,472
823.576355,482
823.694824,487
823.813354,475
823.931885,478
824.050354,474
824.168884,477
824.287354,476
824.405823,473
824.524353,467
824.642822,481
824.761353,488
824.879822,479
824.998291,475
825.116699,464
825.235291,478
825.353699,471
825.472168,476
825.590637,485
825.709106,472
825.827576,477
825.946045,465
826.064453,489
826.182983,474
826.301392,468
826.4198,462
826.53833,449
826.656738,474
826.775208,439
826.893677,467
827.012024,462
827.130493,468
827.248962,458
827.36731,472
827.485779,447
827.604248,469
827.722595,452
827.841064,450
827.959412,475
828.077942,452
828.196289,459
828.314636,438
828.433105,469
828.551514,457
828.669861,459
828.78833,465
828.906677,471
829.025085,430
829.143433,468
829.261841,457
829.38031,464
829.498657,449
829.617004,470
829.735413,449
829.85376,469
829.972107,446
830.090515,470
830.208862,460
830.327209,465
830.445557,446
830.563904,447
830.682312,435
830.800659,430
830.919006,455
831.037354,459
831.155701,477
831.274048,451
831.392395,443
831.51062,454
831.629028,447
831.747314,431
831.865662,449
831.984009,450
832.102356,464
832.220642,456
832.338928,464
832.457275,451
832.575623,441
832.693909,456
832.812134,456
832.930481,440
833.048828,460
833.167114,447
833.2854,447
833.403687,475
833.521973,453
833.640259,438
833.758545,459
833.876831,448
833.995056,460
834.113281,471
834.231628,460
834.349915,457
834.468201,466
834.586426,445
834.704651,465
834.822998,470
834.941162,454
835.059448,459
835.177673,456
835.295959,455
835.414246,466
835.53241,470
835.650635,474
835.768921,444
835.887146,463
836.005371,462
836.123596,456
836.241821,459
836.360046,473
836.478271,448
836.596497,481
836.714722,450
836.832886,455
836.95105,445
837.069336,469
837.1875,464
837.305725,474
837.423889,462
837.542053,470
837.660339,471
837.778503,482
837.896667,459
838.014832,481
838.132996,455
838.25116,453
838.369385,448
838.487488,462
838.605713,452
838.723877,490
838.84198,477
838.960205,457
839.078308,453
839.196472,450
839.314636,467
839.4328,467
839.550964,466
839.669067,468
839.787231,461
839.905396,461
840.023499,443
840.141602,477
840.259766,457
840.377869,468
840.495972,454
840.614136,476
840.732239,445
840.850342,448
840.968445,470
841.086548,449
841.204651,453
841.322754,459
841.440918,455
841.55896,455
841.677002,442
841.795166,461
841.913208,445
842.031311,443
842.149353,455
842.267456,440
842.385498,444
842.503601,448
842.621643,446
842.739746,448
842.857788,458
842.97583,454
843.093933,446
843.211975,456
843.330017,448
843.44812,436
843.566101,470
843.684204,433
843.802246,452
843.920227,453
844.038269,446
844.156311,457
844.274292,442
844.392395,444
844.510376,446
844.628357,434
844.74646,459
844.864441,447
844.982422,441
845.100403,452
845.218384,447
845.336426,426
845.454468,433
845.572449,448
845.69043,442
845.808411,444
845.926453,431
846.044373,441
846.162354,429
846.280396,460
846.398315,448
846.516296,464
846.634216,432
846.752197,435
846.870178,449
846.988098,433
847.106079,429
847.22406,448
847.34198,452
847.4599,470
847.577881,440
847.695801,454
847.813782,445
847.931641,448
848.049561,439
848.167603,443
848.285461,446
848.403381,443
848.521362,454
848.639221,450
848.75708,455
848.875,442
848.99292,438
849.110901,454
849.22876,446
849.34668,444
849.464539,445
849.582458,451
849.700317,462
849.818176,448
849.936096,457
850.053955,460
850.171875,428
850.289673,444
850.407593,433
850.525452,456
850.643311,458
850.761169,431
850.878967,449
850.996887,447
851.114746,446
851.232544,453
851.350403,445
851.468262,430
851.58606,452
851.703979,446
851.821777,438
851.939636,455
852.057434,448
852.175232,455
852.293091,435
852.410889,436
852.528687,424
852.646545,446
852.764343,446
852.88208,449
852.999939,425
853.117676,466
853.235535,447
853.353271,452
853.471069,445
853.588928,432
853.706604,436
853.824402,437
853.9422,421
854.059998,444
854.177734,454
854.295532,438
854.413269,435
854.531006,445
854.648804,430
854.766541,451
854.884277,465
855.002014,439
855.119751,443
855.237549,471
855.355225,452
855.473022,454
855.590698,448
855.708435,470
855.826172,443
855.943848,454
856.061646,455
856.179321,458
856.296997,440
856.414795,458
856.53241,451
856.650085,439
856.767822,438
856.885559,450
857.003174,451
857.120911,456
857.238586,440
857.356201,460
857.473938,441
857.591614,453
857.709351,443
857.826965,460
857.944641,446
858.062317,445
858.179993,447
858.297668,447
858.415283,450
858.532959,439
858.650574,452
858.768188,455
858.885803,471
859.003479,451
859.121094,453
859.23877,457
859.356384,462
859.473999,441
859.591675,444
859.709229,460
859.826843,442
859.944458,451
860.062012,442
860.179626,430
860.297302,430
860.414856,451
860.532471,424
860.650024,447
860.767639,445
860.885193,448
861.002808,431
861.120361,458
861.237976,428
861.35553,450
861.473022,444
861.590698,463
861.708191,458
861.825745,437
861.943298,451
862.060852,462
862.178406,435
862.295959,459
862.413513,457
862.531006,439
862.64856,446
862.766113,456
862.883667,444
863.00116,450
863.118713,435
863.236206,453
863.353699,436
863.471252,443
863.588745,441
863.706177,439
863.82373,443
863.941162,435
864.058716,456
864.176208,458
864.29364,430
864.411194,441
864.528687,438
864.646118,456
864.763611,452
864.881042,449
864.998535,460
865.116028,461
865.233459,450
865.350891,455
865.468384,461
865.585754,458
865.703308,432
865.820679,445
865.938171,453
866.055542,452
866.173035,444
866.290466,462
866.407837,439
866.52533,458
866.6427,440
866.760071,445
866.877563,437
866.994934,445
867.112305,437
867.229736,454
867.347107,439
867.464539,442
867.58197,437
867.699341,445
867.81665,439
867.934082,428
868.051453,441
868.168823,447
868.286194,444
868.403564,433
868.520935,431
868.638306,455
868.755676,439
868.872986,436
868.990295,449
869.107727,447
869.225037,450
869.342346,471
869.459717,455
869.577026,462
869.694336,450
869.811707,462
869.929016,456
870.046326,427
870.163635,431
870.280945,441
870.398254,445
870.515564,456
870.632812,447
870.750183,429
870.867432,452
870.984741,462
871.102051,450
871.219299,444
871.336609,469
871.453918,452
871.571106,451
871.688416,448
871.805664,431
871.922852,454
872.040222,444
872.157471,468
872.274719,430
872.391968,458
872.509155,424
872.626465,468
872.743652,433
872.860962,445
872.978149,460
873.095337,461
873.212646,445
873.329834,422
873.44696,454
873.564209,457
873.681396,442
873.798645,461
873.915894,436
874.03302,447
874.150208,451
874.267456,443
874.384583,440
874.501831,437
874.618958,459
874.736145,453
874.853333,446
874.970459,445
875.087646,441
875.204834,453
875.32196,446
875.439148,439
875.556274,444
875.673401,453
875.790527,435
875.907715,454
876.024841,441
876.141968,463
876.259094,424
876.376282,455
876.493347,446
876.610474,450
876.7276,463
876.844727,456
876.961853,436
877.078918,442
877.195984,437
877.313171,436
877.430237,440
877.547302,451
877.664368,426
877.781433,435
877.898499,451
878.015625,453
878.13269,443
878.249695,457
878.366821,438
878.483887,460
878.600952,431
878.717957,461
878.834961,459
878.952087,453
879.069092,438
879.186157,447
879.303162,444
879.420227,450
879.537231,452
879.654236,470
879.77124,433
879.888306,478
880.005249,436
880.122314,438
880.239319,467
880.356323,462
880.473328,449
880.590271,453
880.707275,432
880.824341,444
880.941284,443
881.058228,458
881.175232,449
881.292236,443
881.40918,452
881.526123,431
881.643066,426
881.760071,451
881.877014,445
881.993958,451
882.11084,455
882.227783,474
882.344727,442
882.46167,453
882.578613,451
882.695618,464
882.812439,441
882.929382,452
883.046326,449
883.163208,447
883.280151,454
883.397034,434
883.513916,433
883.630798,437
883.747742,434
883.864563,464
883.981506,445
884.098389,462
884.21521,449
884.332153,463
884.448975,436
884.565796,452
884.682678,466
884.7995,434
884.916443,442
885.033264,447
885.150085,468
885.266968,463
885.383789,458
885.500671,470
885.617493,452
885.734314,460
885.851196,470
885.967896,456
886.084717,439
886.201599,465
886.318359,450
886.435181,462
886.552002,447
886.668762,454
886.785645,440
886.902344,459
887.019165,460
887.135925,452
887.252747,449
887.369446,440
887.486267,441
887.603027,455
887.719788,444
887.836548,461
887.953247,453
888.070068,447
888.186829,457
888.303528,442
888.420288,461
888.536987,453
888.653687,448
888.770447,470
888.887146,455
889.003967,456
889.120667,450
889.237305,460
889.354065,454
889.470703,442
889.587463,441
889.704163,443
889.820862,449
889.937561,454
890.054199,434
890.170837,447
890.287598,446
890.404236,458
890.520874,449
890.637634,446
890.754211,447
890.87085,445
890.987549,465
891.104187,460
891.220886,441
891.337463,442
891.454102,472
891.57074,447
891.687378,447
891.804077,451
891.920654,444
892.037231,447
892.15387,463
892.270447,449
892.387085,454
892.503723,474
892.6203,459
892.736877,461
892.853516,461
892.970032,447
893.08667,453
893.203186,449
893.319763,454
893.43634,451
893.552917,477
893.669556,454
893.786011,457
893.902588,467
894.019165,444
894.135681,460
894.252197,456
894.368835,464
894.485291,467
894.601868,475
894.718384,449
894.8349,458
894.951355,442
895.067932,449
895.184448,463
895.300964,469
895.417419,435
895.533936,463
895.650452,451
895.766907,466
895.883423,470
895.999878,476
896.116333,454
896.232849,462
896.349304,449
896.465759,462
896.582214,466
896.698669,455
896.815125,459
896.931641,468
897.048035,436
897.164551,461
897.280884,459
897.397339,452
897.513794,455
897.630249,462
897.746582,456
897.863098,436
897.979431,459
898.095886,470
898.212341,461
898.328674,438
898.445129,459
898.561462,454
898.677795,450
898.794312,443
898.910645,437
899.026978,457
899.143433,442
899.259766,462
899.37616,442
899.492493,474
899.608765,474
899.725159,452
899.841553,467
899.957947,473
900.07428,457
900.190552,464
900.306946,436
900.423157,470
900.53949,475
900.655884,466
900.772156,466
900.888489,446
901.004822,450
901.121033,457
901.237366,449
901.353699,471
901.46991,462
901.586304,462
901.702515,452
901.818787,469
901.93512,458
902.051331,472
902.167603,466
902.283875,458
902.400085,453
902.516418,454
902.632629,449
902.74884,476
902.865112,459
902.981384,456
903.097595,450
903.213867,461
903.330017,455
903.446289,478
903.5625,466
903.67865,468
903.794922,473
903.911072,464
904.027344,457
904.143494,470
904.259705,450
904.375916,462
904.492065,471
904.608215,440
904.724426,436
904.840576,457
904.956726,445
905.072876,483
905.189087,437
905.305176,466
905.421387,444
905.537537,471
905.653687,462
905.769775,473
905.885925,452
906.002014,457
906.118164,468
906.234314,470
906.350403,450
906.466492,461
906.582642,468
906.69873,489
906.814758,459
906.930908,472
907.046936,479
907.163086,465
907.279175,457
907.395264,478
907.511353,480
907.62738,465
907.743408,453
907.859497,467
907.975525,458
908.091553,455
908.207703,467
908.32373,473
908.439758,470
908.555786,471
908.671814,461
908.787842,439
908.90387,465
909.019775,471
909.135864,465
909.251892,473
909.367859,448
909.483826,463
909.599854,469
909.715881,461
909.831848,468
909.947815,468
910.063782,446
910.179749,465
910.295776,465
910.411743,478
910.527649,469
910.643616,446
910.759583,460
910.875488,474
910.991455,465
911.107361,465
911.223267,456
911.339294,471
911.4552,460
911.571106,471
911.687073,465
911.802979,486
911.918823,471
912.034729,469
912.150635,463
912.266602,468
912.382446,483
912.498352,457
912.614197,465
912.730103,482
912.846008,474
792.44574,613
792.56488,646
792.68396,692
792.80304,664
792.92218,609
793.041199,579
793.160339,608
793.279419,601
793.398499,593
793.517578,571
793.636658,573
793.755737,614
793.874817,587
793.993896,607
794.112976,584
794.232056,586
794.351074,561
794.470215,576
794.589233,565
794.708313,579
794.827393,573
794.946411,570
795.065552,581
795.18457,604
795.303589,592
795.422668,567
795.541687,578
795.660767,564
795.779846,537
795.898865,573
796.017883,565
796.136963,574
796.255981,551
796.375061,585
796.49408,558
796.613037,575
796.732117,587
796.851135,570
796.970154,591
797.089233,591
797.208191,558
797.327271,554
797.446228,567
797.565186,568
797.684265,558
797.803223,571
797.922241,585
798.04126,565
798.160278,546
798.279297,558
798.398315,565
798.517273,575
798.636292,556
798.75531,552
798.874268,553
798.993286,555
799.112244,569
799.231323,556
799.350281,556
799.469238,579
799.588257,555
799.707153,579
799.826111,567
799.945129,568
800.064087,561
800.183044,527
800.302063,587
800.421021,561
800.539978,570
800.658936,553
800.777893,572
800.896912,561
801.015747,572
801.134705,588
801.253723,574
801.37262,572
801.491638,578
801.610535,572
801.729492,576
801.84845,554
801.967407,576
802.086243,564
802.205261,592
802.324158,565
802.443115,580
802.562073,562
802.680969,586
802.799927,576
802.918762,579
803.037659,576
803.156677,594
803.275574,578
803.39447,582
803.513428,611
803.632263,549
803.751221,592
803.870117,557
803.989014,603
804.107971,571
804.226746,590
804.345642,570
804.4646,560
804.583496,563
804.702393,583
804.821228,584
804.940125,593
805.059021,570
805.177917,579
805.296814,609
805.415649,587
805.534546,573
805.653442,589
805.772278,605
805.891113,570
806.01001,589
806.128906,603
806.247742,590
806.366577,598
806.485413,603
806.604309,619
806.723145,593
806.84198,605
806.960876,600
807.079712,570
807.198486,583
807.317383,598
807.436218,581
807.554993,589
807.673889,608
807.792725,606
807.91156,595
808.030396,597
808.14917,591
808.268005,607
808.386841,588
808.505676,606
808.624451,596
808.743286,596
808.862122,628
808.980896,597
809.099731,585
809.218506,612
809.337341,604
809.456116,598
809.57489,609
809.693726,606
809.8125,609
809.931274,628
810.050049,611
810.168884,608
810.287659,599
810.406372,616
810.525269,607
810.643982,608
810.762756,585
810.881531,607
811.000305,600
811.11908,612
811.237854,608
811.356567,618
811.475403,596
811.594116,614
811.71283,604
811.831604,615
811.950378,614
812.069153,604
812.187927,600
812.30658,599
812.425415,627
812.544128,584
812.662781,588
812.781616,589
812.900269,595
813.019043,612
813.137756,619
813.256531,609
813.375244,611
813.493896,595
813.612671,615
813.731384,604
813.850037,623
813.96875,590
814.087524,621
814.206238,602
814.324951,612
814.443604,595
814.562256,591
814.68103,585
814.799683,605
814.918335,605
815.037109,592
815.155762,619
815.274475,626
815.393188,603
815.511841,612
815.630554,603
815.749146,584
815.867859,585
815.986572,586
816.105164,596
816.223877,587
816.342529,609
816.461182,580
816.579895,593
816.698486,619
816.817139,593
816.935791,588
817.054504,619
817.173096,583
817.291748,591
817.4104,580
817.529053,573
817.647644,603
817.766235,581
817.884949,557
818.00354,538
818.122192,550
818.240845,548
818.359436,530
818.478088,535
818.59668,495
818.715271,522
818.833923,491
818.952515,515
819.071106,496
819.189758,506
819.30835,502
819.426941,511
819.545532,490
819.664124,507
819.782715,489
819.901306,492
820.019897,476
820.138489,494
820.25708,499
820.375671,487
820.494202,495
820.612732,489
820.731384,481
820.849915,499
820.968506,487
821.087097,501
821.205627,479
821.324158,477
821.442749,476
821.561279,482
821.679871,489
821.798401,464
821.916931,480
822.035461,474
822.154053,469
822.272583,480
822.391174,479
822.509583,476
822.628174,495
822.746704,471
822.865234,473
822.983765,489
823.102295,476
823.220825,485
823.339294,478
823.457825,462
823.576355,473
823.694824,492
823.813354,448
823.931885,482
824.050354,464
824.168884,481
824.287354,487
824.405823,480
824.524353,494
824.642822,465
824.761353,479
824.879822,469
824.998291,492
825.116699,483
825.235291,491
825.353699,471
825.472168,473
825.590637,480
825.709106,466
825.827576,473
825.946045,455
826.064453,462
826.182983,458
826.301392,467
826.4198,465
826.53833,475
826.656738,469
826.775208,462
826.893677,478
827.012024,450
827.130493,467
827.248962,463
827.36731,460
827.485779,473
827.604248,451
827.722595,445
827.841064,478
827.959412,437
828.077942,466
828.196289,445
828.314636,457
828.433105,448
828.551514,474
828.669861,473
828.78833,446
828.906677,462
829.025085,447
829.143433,458
829.261841,462
829.38031,456
829.498657,452
829.617004,454
829.735413,463
829.85376,452
829.972107,469
830.090515,448
830.208862,470
830.327209,451
830.445557,444
830.563904,479
830.682312,443
830.800659,472
830.919006,462
831.037354,446
831.155701,454
831.274048,451
831.392395,457
831.51062,453
831.629028,460
831.747314,458
831.865662,455
831.984009,444
832.102356,471
832.220642,451
832.338928,441
832.457275,426
832.575623,464
832.693909,452
832.812134,469
832.930481,462
833.048828,444
833.167114,438
833.2854,439
833.403687,461
833.521973,451
833.640259,449
833.758545,445
833.876831,456
833.995056,456
834.113281,465
834.231628,443
834.349915,481
834.468201,457
834.586426,459
834.704651,465
834.822998,438
834.941162,460
835.059448,466
835.177673,431
835.295959,462
835.414246,436
835.53241,465
835.650635,462
835.768921,441
835.887146,464
836.005371,455
836.123596,450
836.241821,443
836.360046,455
836.478271,450
836.596497,483
836.714722,467
836.832886,480
836.95105,465
837.069336,457
837.1875,466
837.305725,472
837.423889,472
837.542053,479
837.660339,479
837.778503,454
837.896667,461
838.014832,491
838.132996,459
838.25116,473
838.369385,475
838.487488,452
838.605713,486
838.723877,448
838.84198,488
838.960205,472
839.078308,478
839.196472,460
839.314636,467
839.4328,460
839.550964,473
839.669067,459
839.787231,441
839.905396,465
840.023499,460
840.141602,459
840.259766,447
840.377869,470
840.495972,457
840.614136,458
840.732239,464
840.850342,479
840.968445,468
841.086548,454
841.204651,481
841.322754,450
841.440918,459
841.55896,460
841.677002,466
841.795166,458
841.913208,446
842.031311,455
842.149353,437
842.267456,448
842.385498,461
842.503601,448
842.621643,433
842.739746,476
842.857788,436
842.97583,442
843.093933,442
843.211975,434
843.330017,454
843.44812,456
843.566101,444
843.684204,464
843.802246,450
843.920227,464
844.038269,459
844.156311,436
844.274292,459
844.392395,455
844.510376,440
844.628357,450
844.74646,435
844.864441,456
844.982422,451
845.100403,466
845.218384,429
845.336426,434
845.454468,451
845.572449,430
845.69043,467
845.808411,436
845.926453,462
846.044373,435
846.162354,451
846.280396,454
846.398315,465
846.516296,454
846.634216,433
846.752197,449
846.870178,443
846.988098,428
847.106079,463
847.22406,449
847.34198,444
847.4599,433
847.577881,447
847.695801,428
847.813782,460
847.931641,435
848.049561,443
848.167603,453
848.285461,439
848.403381,463
848.521362,441
848.639221,442
848.75708,437
848.875,460
848.99292,441
849.110901,457
849.22876,453
849.34668,448
849.464539,458
849.582458,435
849.700317,445
849.818176,449
849.936096,442
850.053955,448
850.171875,444
850.289673,448
850.407593,461
850.525452,441
850.643311,453
850.761169,445
850.878967,446
850.996887,433
851.114746,449
851.232544,428
851.350403,429
851.468262,457
851.58606,453
851.703979,445
851.821777,446
851.939636,438
852.057434,448
852.175232,433
852.293091,453
852.410889,451
852.528687,443
852.646545,468
852.764343,450
852.88208,448
852.999939,454
853.117676,457
853.235535,438
853.353271,456
853.471069,457
853.588928,448
853.706604,447
853.824402,427
853.9422,451
854.059998,444
854.177734,445
854.295532,437
854.413269,448
854.531006,446
854.648804,454
854.766541,435
854.884277,443
855.002014,464
855.119751,446
855.237549,451
855.355225,464
855.473022,445
855.590698,455
855.708435,458
855.826172,453
855.943848,448
856.061646,461
856.179321,463
856.296997,445
856.414795,448
856.53241,432
856.650085,437
856.767822,434
856.885559,456
857.003174,429
857.120911,440
857.238586,449
857.356201,450
857.473938,460
857.591614,451
857.709351,450
857.826965,443
857.944641,460
858.062317,453
858.179993,461
858.297668,424
858.415283,457
858.532959,456
858.650574,445
858.768188,442
858.885803,451
859.003479,441
859.121094,445
859.23877,445
859.356384,461
859.473999,455
859.591675,444
859.709229,438
859.826843,437
859.944458,458
860.062012,437
860.179626,443
860.297302,443
860.414856,464
860.532471,466
860.650024,460
860.767639,450
860.885193,438
861.002808,444
861.120361,451
861.237976,462
861.35553,446
861.473022,451
861.590698,440
861.708191,445
861.825745,438
861.943298,454
862.060852,450
862.178406,434
862.295959,455
862.413513,457
862.531006,442
862.64856,446
862.766113,466
862.883667,450
863.00116,466
863.118713,453
863.236206,445
863.353699,456
863.471252,431
863.588745,454
863.706177,442
863.82373,462
863.941162,434
864.058716,449
864.176208,468
864.29364,444
864.411194,456
864.528687,453
864.646118,455
864.763611,438
864.881042,439
864.998535,476
865.116028,451
865.233459,433
865.350891,463
865.468384,437
865.585754,455
865.703308,458
865.820679,430
865.938171,469
866.055542,446
866.173035,469
866.290466,473
866.407837,451
866.52533,448
866.6427,468
866.760071,454
866.877563,447
866.994934,458
867.112305,449
867.229736,447
867.347107,455
867.464539,452
867.58197,452
867.699341,466
867.81665,449
867.934082,445
868.051453,465
868.168823,436
868.286194,461
868.403564,444
868.520935,450
868.638306,459
868.755676,454
868.872986,448
868.990295,454
869.107727,453
869.225037,447
869.342346,448
869.459717,438
869.577026,460
869.694336,472
869.811707,444
869.929016,465
870.046326,452
870.163635,454
870.280945,436
870.398254,467
870.515564,431
870.632812,446
870.750183,444
870.867432,447
870.984741,455
871.102051,443
871.219299,470
871.336609,444
871.453918,451
871.571106,436
871.688416,453
871.805664,439
871.922852,459
872.040222,468
872.157471,438
872.274719,459
872.391968,446
872.509155,440
872.626465,464
872.743652,453
872.860962,438
872.978149,433
873.095337,454
873.212646,440
873.329834,460
873.44696,449
873.564209,449
873.681396,454
873.798645,453
873.915894,438
874.03302,442
874.150208,466
874.267456,449
874.384583,445
874.501831,446
874.618958,437
874.736145,453
874.853333,443
874.970459,457
875.087646,444
875.204834,452
875.32196,448
875.439148,448
875.556274,451
875.673401,437
875.790527,446
875.907715,455
876.024841,442
876.141968,440
876.259094,454
876.376282,469
876.493347,470
876.610474,432
876.7276,458
876.844727,450
876.961853,457
877.078918,454
877.195984,448
877.313171,445
877.430237,462
877.547302,444
877.664368,439
877.781433,441
877.898499,474
878.015625,450
878.13269,436
878.249695,440
878.366821,447
878.483887,460
878.600952,446
878.717957,442
878.834961,450
878.952087,452
879.069092,444
879.186157,439
879.303162,452
879.420227,457
879.537231,467
879.654236,444
879.77124,462
879.888306,429
880.005249,441
880.122314,456
880.239319,462
880.356323,445
880.473328,438
880.590271,439
880.707275,424
880.824341,441
880.941284,448
881.058228,459
881.175232,455
881.292236,451
881.40918,432
881.526123,456
881.643066,450
881.760071,459
881.877014,465
881.993958,453
882.11084,445
882.227783,423
882.344727,434
882.46167,434
882.578613,451
882.695618,460
882.812439,463
882.929382,448
883.046326,458
883.163208,451
883.280151,461
883.397034,437
883.513916,435
883.630798,463
883.747742,466
883.864563,451
883.981506,437
884.098389,456
884.21521,469
884.332153,456
884.448975,445
884.565796,438
884.682678,452
884.7995,460
884.916443,468
885.033264,466
885.150085,458
885.266968,447
885.383789,459
885.500671,442
885.617493,466
885.734314,452
885.851196,454
885.967896,437
886.084717,458
886.201599,467
886.318359,465
886.435181,446
886.552002,470
886.668762,461
886.785645,450
886.902344,461
887.019165,454
887.135925,454
887.252747,441
887.369446,444
887.486267,456
887.603027,437
887.719788,469
887.836548,465
887.953247,458
888.070068,463
888.186829,439
888.303528,439
888.420288,462
888.536987,458
888.653687,453
888.770447,454
888.887146,473
889.003967,459
889.120667,441
889.237305,449
889.354065,481
889.470703,448
889.587463,466
889.704163,453
889.820862,467
889.937561,451
890.054199,467
890.170837,452
890.287598,460
890.404236,456
890.520874,450
890.637634,459
890.754211,459
890.87085,453
890.987549,461
891.104187,472
891.220886,466
891.337463,460
891.454102,468
891.57074,445
891.687378,486
891.804077,449
891.920654,443
892.037231,456
892.15387,460
892.270447,484
892.387085,457
892.503723,456
892.6203,471
892.736877,455
892.853516,463
892.970032,450
893.08667,462
893.203186,459
893.319763,461
893.43634,451
893.552917,448
893.669556,462
893.786011,455
893.902588,445
894.019165,462
894.135681,457
894.252197,446
894.368835,445
894.485291,441
894.601868,461
894.718384,456
894.8349,442
894.951355,444
895.067932,437
895.184448,445
895.300964,462
895.417419,460
895.533936,463
895.650452,458
895.766907,446
895.883423,477
895.999878,463
896.116333,458
896.232849,451
896.349304,467
896.465759,457
896.582214,459
896.698669,467
896.815125,464
896.931641,462
897.048035,465
897.164551,465
897.280884,459
897.397339,460
897.513794,463
897.630249,448
897.746582,471
897.863098,443
897.979431,456
898.095886,469
898.212341,456
898.328674,470
898.445129,453
898.561462,449
898.677795,466
898.794312,468
898.910645,464
899.026978,456
899.143433,474
899.259766,469
899.37616,470
899.492493,480
899.608765,470
899.725159,447
899.841553,478
899.957947,468
900.07428,466
900.190552,475
900.306946,478
900.423157,462
900.53949,450
900.655884,463
900.772156,464
900.888489,468
901.004822,446
901.121033,447
901.237366,480
901.353699,463
901.46991,449
901.586304,460
901.702515,449
901.818787,460
901.93512,456
902.051331,474
902.167603,446
902.283875,466
902.400085,472
902.516418,444
902.632629,473
902.74884,467
902.865112,479
902.981384,463
903.097595,471
903.213867,454
903.330017,474
903.446289,452
903.5625,469
903.67865,466
903.794922,488
903.911072,444
904.027344,450
904.143494,468
904.259705,453
904.375916,468
904.492065,458
904.608215,469
904.724426,471
904.840576,481
904.956726,466
905.072876,463
905.189087,474
905.305176,441
905.421387,477
905.537537,445
905.653687,488
905.769775,461
905.885925,463
906.002014,465
906.118164,470
906.234314,477
906.350403,463
906.466492,475
906.582642,490
906.69873,468
906.814758,460
906.930908,457
907.046936,451
907.163086,457
907.279175,456
907.395264,470
907.511353,461
907.62738,458
907.743408,473
907.859497,474
907.975525,468
908.091553,455
908.207703,478
908.32373,471
908.439758,470
908.555786,463
908.671814,460
908.787842,471
908.90387,468
909.019775,463
909.135864,477
909.251892,452
909.367859,469
909.483826,458
909.599854,462
909.715881,483
909.831848,469
909.947815,442
910.063782,458
910.179749,465
910.295776,471
910.411743,459
910.527649,473
910.643616,469
910.759583,470
910.875488,474
910.991455,464
911.107361,458
911.223267,480
911.339294,456
911.4552,470
911.571106,472
911.687073,465
911.802979,438
911.918823,484
912.034729,496
912.150635,448
912.266602,464
912.382446,473
912.498352,442
912.614197,466
912.730103,445
912.846008,467
792.44574,597
792.56488,637
792.68396,674
792.80304,658
792.92218,602
793.041199,592
793.160339,595
793.279419,600
793.398499,595
793.517578,581
793.636658,563
793.755737,590
793.874817,598
793.993896,595
794.112976,561
794.232056,586
794.351074,573
794.470215,603
794.589233,558
794.708313,591
794.827393,573
794.946411,592
795.065552,587
795.18457,566
795.303589,585
795.422668,587
795.541687,576
795.660767,574
795.779846,593
795.898865,579
796.017883,575
796.136963,575
796.255981,563
796.375061,573
796.49408,566
796.613037,580
796.732117,567
796.851135,568
796.970154,566
797.089233,579
797.208191,562
797.327271,561
797.446228,564
797.565186,570
797.684265,566
797.803223,562
797.922241,561
798.04126,560
798.160278,552
798.279297,591
798.398315,541
798.517273,572
798.636292,556
798.75531,580
798.874268,566
798.993286,581
799.112244,553
799.231323,567
799.350281,552
799.469238,568
799.588257,560
799.707153,560
799.826111,591
799.945129,574
800.064087,578
800.183044,569
800.302063,581
800.421021,578
800.539978,555
800.658936,563
800.777893,567
800.896912,588
801.015747,565
801.134705,570
801.253723,566
801.37262,581
801.491638,606
801.610535,579
801.729492,546
801.84845,554
801.967407,546
802.086243,569
802.205261,578
802.324158,581
802.443115,583
802.562073,587
802.680969,560
802.799927,580
802.918762,587
803.037659,583
803.156677,574
803.275574,580
803.39447,583
803.513428,575
803.632263,548
803.751221,598
803.870117,574
803.989014,577
804.107971,569
804.226746,606
804.345642,590
804.4646,584
804.583496,566
804.702393,601
804.821228,601
804.940125,594
805.059021,582
805.177917,593
805.296814,604
805.415649,597
805.534546,596
805.653442,588
805.772278,606
805.891113,614
806.01001,580
806.128906,589
806.247742,587
806.366577,599
806.485413,569
806.604309,600
806.723145,609
806.84198,612
806.960876,596
807.079712,583
807.198486,595
807.317383,606
807.436218,596
807.554993,593
807.673889,592
807.792725,571
807.91156,619
808.030396,584
808.14917,581
808.268005,605
808.386841,589
808.505676,601
808.624451,576
808.743286,618
808.862122,612
808.980896,596
809.099731,594
809.218506,621
809.337341,599
809.456116,605
809.57489,626
809.693726,574
809.8125,594
809.931274,607
810.050049,622
810.168884,613
810.287659,630
810.406372,600
810.525269,613
810.643982,608
810.762756,616
810.881531,592
811.000305,595
811.11908,599
811.237854,606
811.356567,596
811.475403,611
811.594116,601
811.71283,617
811.831604,633
811.950378,622
812.069153,619
812.187927,592
812.30658,624
812.425415,614
812.544128,619
812.662781,611
812.781616,607
812.900269,595
813.019043,606
813.137756,604
813.256531,618
813.375244,602
813.493896,607
813.612671,611
813.731384,591
813.850037,639
813.96875,606
814.087524,589
814.206238,600
814.324951,596
814.443604,618
814.562256,598
814.68103,603
814.799683,614
814.918335,598
815.037109,591
815.155762,587
815.274475,606
815.393188,598
815.511841,594
815.630554,618
815.749146,575
815.867859,616
815.986572,577
816.105164,575
816.223877,599
816.342529,598
816.461182,576
816.579895,589
816.698486,600
816.817139,592
816.935791,598
817.054504,610
817.173096,575
817.291748,611
817.4104,593
817.529053,600
817.647644,574
817.766235,568
817.884949,568
818.00354,573
818.122192,551
818.240845,535
818.359436,529
818.478088,529
818.59668,515
818.715271,512
818.833923,525
818.952515,505
819.071106,512
819.189758,507
819.30835,527
819.426941,510
819.545532,497
819.664124,509
819.782715,489
819.901306,501
820.019897,501
820.138489,499
820.25708,489
820.375671,497
820.494202,472
820.612732,485
820.731384,494
820.849915,493
820.968506,494
821.087097,482
821.205627,479
821.324158,492
821.442749,464
821.561279,490
821.679871,460
821.798401,479
821.916931,465
822.035461,485
822.154053,472
822.272583,461
822.391174,479
822.509583,483
822.628174,456
822.746704,472
822.865234,468
822.983765,495
823.102295,469
823.220825,480
823.339294,501
823.457825,491
823.576355,473
823.694824,490
823.813354,480
823.931885,476
824.050354,477
824.168884,471
824.287354,488
824.405823,467
824.524353,503
824.642822,489
824.761353,498
824.879822,483
824.998291,495
825.116699,498
825.235291,490
825.353699,461
825.472168,480
825.590637,485
825.709106,484
825.827576,468
825.946045,488
826.064453,485
826.182983,457
826.301392,492
826.4198,466
826.53833,456
826.656738,478
826.775208,450
826.893677,465
827.012024,460
827.130493,466
827.248962,457
827.36731,445
827.485779,441
827.604248,464
827.722595,462
827.841064,468
827.959412,465
828.077942,446
828.196289,456
828.314636,462
828.433105,460
828.551514,472
828.669861,480
828.78833,463
828.906677,467
829.025085,461
829.143433,441
829.261841,460
829.38031,463
829.498657,454
829.617004,463
829.735413,472
829.85376,451
829.972107,467
830.090515,473
830.208862,462
830.327209,442
830.445557,451
830.563904,462
830.682312,442
830.800659,471
830.919006,440
831.037354,455
831.155701,455
831.274048,462
831.392395,456
831.51062,450
831.629028,456
831.747314,463
831.865662,457
831.984009,453
832.102356,454
832.220642,461
832.338928,445
832.457275,459
832.575623,454
832.693909,442
832.812134,458
832.930481,432
833.048828,458
833.167114,464
833.2854,463
833.403687,470
833.521973,460
833.640259,458
833.758545,445
833.876831,459
833.995056,450
834.113281,437
834.231628,452
834.349915,463
834.468201,459
834.586426,451
834.704651,452
834.822998,475
834.941162,468
835.059448,452
835.177673,478
835.295959,463
835.414246,483
835.53241,460
835.650635,457
835.768921,463
835.887146,455
836.005371,471
836.123596,458
836.241821,475
836.360046,484
836.478271,459
836.596497,468
836.714722,451
836.832886,473
836.95105,475
837.069336,460
837.1875,473
837.305725,465
837.423889,495
837.542053,471
837.660339,490
837.778503,481
837.896667,486
838.014832,476
838.132996,467
838.25116,458
838.369385,476
838.487488,475
838.605713,476
838.723877,476
838.84198,467
838.960205,463
839.078308,484
839.196472,452
839.314636,446
839.4328,477
839.550964,468
839.669067,460
839.787231,463
839.905396,465
840.023499,462
840.141602,465
840.259766,482
840.377869,473
840.495972,457
840.614136,453
840.732239,473
840.850342,452
840.968445,443
841.086548,467
841.204651,450
841.322754,448
841.440918,439
841.55896,464
841.677002,455
841.795166,469
841.913208,467
842.031311,465
842.149353,470
842.267456,450
842.385498,451
842.503601,469
842.621643,437
842.739746,452
842.857788,465
842.97583,448
843.093933,459
843.211975,447
843.330017,447
843.44812,444
843.566101,451
843.684204,436
843.802246,448
843.920227,462
844.038269,449
844.156311,455
844.274292,448
844.392395,449
844.510376,451
844.628357,439
844.74646,453
844.864441,442
844.982422,454
845.100403,449
845.218384,438
845.336426,455
845.454468,434
845.572449,443
845.69043,448
845.808411,446
845.926453,434
846.044373,453
846.162354,433
846.280396,459
846.398315,458
846.516296,449
846.634216,435
846.752197,458
846.870178,451
846.988098,420
847.106079,456
847.22406,434
847.34198,434
847.4599,443
847.577881,438
847.695801,449
847.813782,473
847.931641,431
848.049561,454
848.167603,464
848.285461,445
848.403381,450
848.521362,449
848.639221,445
848.75708,453
848.875,462
848.99292,454
849.110901,450
849.22876,466
849.34668,452
849.464539,436
849.582458,423
849.700317,452
849.818176,431
849.936096,470
850.053955,457
850.171875,443
850.289673,436
850.407593,445
850.525452,413
850.643311,455
850.761169,444
850.878967,447
850.996887,455
851.114746,442
851.232544,445
851.350403,435
851.468262,438
851.58606,439
851.703979,441
851.821777,442
851.939636,448
852.057434,431
852.175232,438
852.293091,457
852.410889,436
852.528687,440
852.646545,452
852.764343,441
852.88208,458
852.999939,452
853.117676,446
853.235535,444
853.353271,446
853.471069,451
853.588928,445
853.706604,453
853.824402,434
853.9422,445
854.059998,431
854.177734,416
854.295532,472
854.413269,455
854.531006,447
854.648804,458
854.766541,445
854.884277,440
855.002014,448
855.119751,448
855.237549,459
855.355225,430
855.473022,456
855.590698,454
855.708435,449
855.826172,451
855.943848,445
856.061646,457
856.179321,421
856.296997,461
856.414795,457
856.53241,449
856.650085,476
856.767822,469
856.885559,461
857.003174,455
857.120911,466
857.238586,459
857.356201,445
857.473938,449
857.591614,468
857.709351,451
857.826965,460
857.944641,443
858.062317,447
858.179993,428
858.297668,453
858.415283,457
858.532959,467
858.650574,461
858.768188,459
858.885803,453
859.003479,450
859.121094,456
859.23877,451
859.356384,441
859.473999,438
859.591675,446
859.709229,445
859.826843,460
859.944458,459
860.062012,427
860.179626,452
860.297302,458
860.414856,443
860.532471,447
860.650024,429
860.767639,458
860.885193,452
861.002808,479
861.120361,437
861.237976,463
861.35553,448
861.473022,444
861.590698,444
861.708191,447
861.825745,439
861.943298,434
862.060852,451
862.178406,453
862.295959,447
862.413513,434
862.531006,447
862.64856,442
862.766113,448
862.883667,455
863.00116,434
863.118713,446
863.236206,463
863.353699,457
863.471252,441
863.588745,443
863.706177,476
863.82373,464
863.941162,453
864.058716,457
864.176208,456
864.29364,448
864.411194,447
864.528687,454
864.646118,470
864.763611,447
864.881042,425
864.998535,441
865.116028,463
865.233459,459
865.350891,462
865.468384,472
865.585754,433
865.703308,457
865.820679,459
865.938171,443
866.055542,462
866.173035,431
866.290466,468
866.407837,465
866.52533,431
866.6427,448
866.760071,459
866.877563,451
866.994934,452
867.112305,460
867.229736,444
867.347107,456
867.464539,443
867.58197,445
867.699341,452
867.81665,442
867.934082,453
868.051453,447
868.168823,450
868.286194,439
868.403564,457
868.520935,449
868.638306,462
868.755676,444
868.872986,441
868.990295,444
869.107727,465
869.225037,460
869.342346,449
869.459717,457
869.577026,454
869.694336,453
869.811707,455
869.929016,463
870.046326,457
870.163635,454
870.280945,441
870.398254,455
870.515564,444
870.632812,455
870.750183,448
870.867432,464
870.984741,468
871.102051,464
871.219299,441
871.336609,453
871.453918,435
871.571106,450
871.688416,450
871.805664,446
871.922852,434
872.040222,438
872.157471,450
872.274719,465
872.391968,447
872.509155,437
872.626465,432
872.743652,462
872.860962,443
872.978149,429
873.095337,455
873.212646,459
873.329834,454
873.44696,464
873.564209,441
873.681396,446
873.798645,463
873.915894,455
874.03302,445
874.150208,430
874.267456,451
874.384583,462
874.501831,477
874.618958,461
874.736145,446
874.853333,425
874.970459,453
875.087646,456
875.204834,440
875.32196,426
875.439148,446
875.556274,457
875.673401,442
875.790527,436
875.907715,454
876.024841,471
876.141968,432
876.259094,449
876.376282,449
876.493347,470
876.610474,463
876.7276,460
876.844727,456
876.961853,443
877.078918,437
877.195984,464
877.313171,462
877.430237,439
877.547302,443
877.664368,443
877.781433,459
877.898499,462
878.015625,455
878.13269,450
878.249695,438
878.366821,449
878.483887,438
878.600952,447
878.717957,456
878.834961,459
878.952087,458
879.069092,465
879.186157,466
879.303162,459
879.420227,444
879.537231,449
879.654236,443
879.77124,455
879.888306,433
880.005249,455
880.122314,463
880.239319,453
880.356323,465
880.473328,448
880.590271,441
880.707275,460
880.824341,416
880.941284,449
881.058228,474
881.175232,451
881.292236,461
881.40918,454
881.526123,463
881.643066,451
881.760071,444
881.877014,453
881.993958,441
882.11084,457
882.227783,461
882.344727,451
882.46167,467
882.578613,461
882.695618,454
882.812439,458
882.929382,439
883.046326,470
883.163208,454
883.280151,447
883.397034,467
883.513916,449
883.630798,453
883.747742,465
883.864563,460
883.981506,459
884.098389,446
884.21521,423
884.332153,456
884.448975,446
884.565796,448
884.682678,447
884.7995,460
884.916443,464
885.033264,460
885.150085,443
885.266968,454
885.383789,457
885.500671,474
885.617493,446
885.734314,442
885.851196,461
885.967896,455
886.084717,465
886.201599,454
886.318359,459
886.435181,460
886.552002,453
886.668762,472
886.785645,449
886.902344,468
887.019165,449
887.135925,454
887.252747,450
887.369446,468
887.486267,475
887.603027,460
887.719788,451
887.836548,440
887.953247,474
888.070068,447
888.186829,457
888.303528,452
888.420288,476
888.536987,433
888.653687,449
888.770447,430
888.887146,442
889.003967,460
889.120667,472
889.237305,460
889.354065,450
889.470703,451
889.587463,443
889.704163,481
889.820862,440
889.937561,453
890.054199,456
890.170837,438
890.287598,449
890.404236,444
890.520874,465
890.637634,448
890.754211,468
890.87085,475
890.987549,458
891.104187,443
891.220886,447
891.337463,443
891.454102,427
891.57074,470
891.687378,459
891.804077,455
891.920654,464
892.037231,469
892.15387,450
892.270447,457
892.387085,437
892.503723,457
892.6203,449
892.736877,446
892.853516,459
892.970032,462
893.08667,454
893.203186,472
893.319763,449
893.43634,451
893.552917,450
893.669556,466
893.786011,462
893.902588,456
894.019165,460
894.135681,474
894.252197,451
894.368835,450
894.485291,468
894.601868,448
894.718384,466
894.8349,454
894.951355,480
895.067932,460
895.184448,455
895.300964,452
895.417419,459
895.533936,462
895.650452,466
895.766907,437
895.883423,455
895.999878,443
896.116333,467
896.232849,468
896.349304,447
896.465759,453
896.582214,448
896.698669,453
896.815125,456
896.931641,456
897.048035,462
897.164551,446
897.280884,460
897.397339,458
897.513794,469
897.630249,455
897.746582,453
897.863098,451
897.979431,436
898.095886,452
898.212341,466
898.328674,461
898.445129,476
898.561462,486
898.677795,472
898.794312,454
898.910645,452
899.026978,482
899.143433,461
899.259766,452
899.37616,473
899.492493,453
899.608765,459
899.725159,458
899.841553,463
899.957947,457
900.07428,456
900.190552,459
900.306946,463
900.423157,461
900.53949,486
900.655884,478
900.772156,480
900.888489,465
901.004822,466
901.121033,444
901.237366,476
901.353699,446
901.46991,450
901.586304,479
901.702515,465
901.818787,447
901.93512,461
902.051331,461
902.167603,469
902.283875,452
902.400085,469
902.516418,446
902.632629,478
902.74884,488
902.865112,457
902.981384,464
903.097595,468
903.213867,476
903.330017,477
903.446289,462
903.5625,463
903.67865,468
903.794922,459
903.911072,470
904.027344,459
904.143494,479
904.259705,465
904.375916,480
904.492065,454
904.608215,454
904.724426,464
904.840576,445
904.956726,480
905.072876,460
905.189087,460
905.305176,451
905.421387,478
905.537537,459
905.653687,477
905.769775,456
905.885925,491
906.002014,452
906.118164,463
906.234314,454
906.350403,460
906.466492,470
906.582642,454
906.69873,463
906.814758,483
906.930908,470
907.046936,491
907.163086,486
907.279175,482
907.395264,456
907.511353,455
907.62738,459
907.743408,460
907.859497,460
907.975525,472
908.091553,457
908.207703,481
908.32373,447
908.439758,483
908.555786,487
908.671814,462
908.787842,474
908.90387,478
909.019775,476
909.135864,473
909.251892,457
909.367859,477
909.483826,460
909.599854,490
909.715881,458
909.831848,474
909.947815,457
910.063782,466
910.179749,461
910.295776,461
910.411743,478
910.527649,462
910.643616,462
910.759583,463
910.875488,482
910.991455,463
911.107361,464
911.223267,475
911.339294,472
911.4552,462
911.571106,464
911.687073,465
911.802979,462
911.918823,450
912.034729,484
912.150635,469
912.266602,476
912.382446,461
912.498352,466
912.614197,471
912.730103,453
912.846008,468
