792.44574,1192
792.56488,1179
792.68396,1207
792.80304,1142
792.92218,1068
793.041199,1062
793.160339,1059
793.279419,1039
793.398499,1005
793.517578,979
793.636658,953
793.755737,947
793.874817,927
793.993896,916
794.112976,904
794.232056,859
794.351074,897
794.470215,881
794.589233,839
794.708313,816
794.827393,849
794.946411,856
795.065552,837
795.18457,809
795.303589,786
795.422668,798
795.541687,793
795.660767,800
795.779846,776
795.898865,769
796.017883,750
796.136963,746
796.255981,751
796.375061,730
796.49408,747
796.613037,741
796.732117,722
796.851135,719
796.970154,703
797.089233,715
797.208191,713
797.327271,684
797.446228,687
797.565186,696
797.684265,666
797.803223,672
797.922241,673
798.04126,683
798.160278,672
798.279297,670
798.398315,679
798.517273,681
798.636292,659
798.75531,680
798.874268,676
798.993286,680
799.112244,667
799.231323,667
799.350281,676
799.469238,671
799.588257,644
799.707153,651
799.826111,643
799.945129,639
800.064087,648
800.183044,645
800.302063,617
800.421021,648
800.539978,623
800.658936,622
800.777893,627
800.896912,626
801.015747,591
801.134705,604
801.253723,620
801.37262,620
801.491638,634
801.610535,623
801.729492,598
801.84845,617
801.967407,610
802.086243,626
802.205261,614
802.324158,623
802.443115,602
802.562073,624
802.680969,600
802.799927,609
802.918762,608
803.037659,605
803.156677,615
803.275574,589
803.39447,619
803.513428,605
803.632263,592
803.751221,619
803.870117,606
803.989014,588
804.107971,619
804.226746,586
804.345642,597
804.4646,602
804.583496,589
804.702393,572
804.821228,584
804.940125,607
805.059021,557
805.177917,587
805.296814,582
805.415649,611
805.534546,599
805.653442,587
805.772278,579
805.891113,580
806.01001,585
806.128906,596
806.247742,595
806.366577,592
806.485413,562
806.604309,580
806.723145,600
806.84198,574
806.960876,575
807.079712,568
807.198486,567
807.317383,586
807.436218,572
807.554993,578
807.673889,571
807.792725,579
807.91156,584
808.030396,569
808.14917,578
808.268005,561
808.386841,567
808.505676,544
808.624451,561
808.743286,590
808.862122,577
808.980896,556
809.099731,554
809.218506,545
809.337341,583
809.456116,596
809.57489,545
809.693726,583
809.8125,559
809.931274,571
810.050049,554
810.168884,547
810.287659,568
810.406372,580
810.525269,556
810.643982,562
810.762756,593
810.881531,572
811.000305,587
811.11908,576
811.237854,572
811.356567,579
811.475403,560
811.594116,556
811.71283,562
811.831604,588
811.950378,574
812.069153,587
812.187927,563
812.30658,602
812.425415,586
812.544128,575
812.662781,587
812.781616,592
812.900269,569
813.019043,580
813.137756,580
813.256531,572
813.375244,565
813.493896,575
813.612671,564
813.731384,562
813.850037,544
813.96875,550
814.087524,548
814.206238,569
814.324951,569
814.443604,563
814.562256,567
814.68103,584
814.799683,565
814.918335,550
815.037109,556
815.155762,568
815.274475,554
815.393188,562
815.511841,553
815.630554,557
815.749146,544
815.867859,576
815.986572,575
816.105164,576
816.223877,548
816.342529,553
816.461182,565
816.579895,564
816.698486,550
816.817139,550
816.935791,563
817.054504,563
817.173096,564
817.291748,569
817.4104,559
817.529053,568
817.647644,560
817.766235,552
817.884949,540
818.00354,563
818.122192,560
818.240845,535
818.359436,526
818.478088,566
818.59668,519
818.715271,511
818.833923,518
818.952515,542
819.071106,524
819.189758,528
819.30835,532
819.426941,520
819.545532,524
819.664124,508
819.782715,523
819.901306,532
820.019897,513
820.138489,519
820.25708,534
820.375671,540
820.494202,519
820.612732,547
820.731384,514
820.849915,527
820.968506,525
821.087097,513
821.205627,513
821.324158,521
821.442749,516
821.561279,504
821.679871,487
821.798401,485
821.916931,492
822.035461,521
822.154053,529
822.272583,512
822.391174,492
822.509583,502
822.628174,485
822.746704,507
822.865234,498
822.983765,508
823.102295,516
823.220825,480
823.339294,503
823.457825,497
823.576355,488
823.694824,492
823.813354,512
823.931885,529
824.050354,511
824.168884,517
824.287354,485
824.405823,517
824.524353,506
824.642822,501
824.761353,513
824.879822,512
824.998291,509
825.116699,501
825.235291,500
825.353699,487
825.472168,485
825.590637,518
825.709106,513
825.827576,514
825.946045,485
826.064453,495
826.182983,512
826.301392,485
826.4198,499
826.53833,459
826.656738,501
826.775208,488
826.893677,517
827.012024,483
827.130493,496
827.248962,517
827.36731,496
827.485779,497
827.604248,495
827.722595,495
827.841064,479
827.959412,495
828.077942,491
828.196289,493
828.314636,483
828.433105,481
828.551514,496
828.669861,509
828.78833,482
828.906677,479
829.025085,484
829.143433,490
829.261841,494
829.38031,500
829.498657,482
829.617004,485
829.735413,478
829.85376,518
829.972107,482
830.090515,479
830.208862,486
830.327209,488
830.445557,465
830.563904,498
830.682312,490
830.800659,492
830.919006,515
831.037354,479
831.155701,502
831.274048,503
831.392395,510
831.51062,502
831.629028,502
831.747314,484
831.865662,501
831.984009,484
832.102356,506
832.220642,517
832.338928,498
832.457275,488
832.575623,497
832.693909,479
832.812134,501
832.930481,494
833.048828,496
833.167114,509
833.2854,500
833.403687,497
833.521973,497
833.640259,479
833.758545,491
833.876831,506
833.995056,510
834.113281,520
834.231628,503
834.349915,493
834.468201,483
834.586426,491
834.704651,496
834.822998,502
834.941162,518
835.059448,491
835.177673,502
835.295959,500
835.414246,491
835.53241,507
835.650635,486
835.768921,487
835.887146,501
836.005371,499
836.123596,500
836.241821,507
836.360046,498
836.478271,492
836.596497,505
836.714722,492
836.832886,491
836.95105,487
837.069336,486
837.1875,500
837.305725,497
837.423889,496
837.542053,498
837.660339,515
837.778503,497
837.896667,488
838.014832,507
838.132996,513
838.25116,494
838.369385,490
838.487488,479
838.605713,499
838.723877,493
838.84198,517
838.960205,513
839.078308,503
839.196472,506
839.314636,532
839.4328,542
839.550964,496
839.669067,508
839.787231,527
839.905396,528
840.023499,521
840.141602,517
840.259766,536
840.377869,510
840.495972,541
840.614136,531
840.732239,527
840.850342,512
840.968445,527
841.086548,524
841.204651,544
841.322754,530
841.440918,545
841.55896,521
841.677002,547
841.795166,551
841.913208,524
842.031311,531
842.149353,533
842.267456,549
842.385498,541
842.503601,543
842.621643,543
842.739746,524
842.857788,538
842.97583,535
843.093933,524
843.211975,545
843.330017,542
843.44812,545
843.566101,547
843.684204,535
843.802246,526
843.920227,528
844.038269,536
844.156311,538
844.274292,514
844.392395,543
844.510376,524
844.628357,536
844.74646,529
844.864441,539
844.982422,536
845.100403,526
845.218384,534
845.336426,485
845.454468,521
845.572449,517
845.69043,528
845.808411,542
845.926453,504
846.044373,518
846.162354,532
846.280396,530
846.398315,521
846.516296,504
846.634216,530
846.752197,546
846.870178,545
846.988098,526
847.106079,532
847.22406,532
847.34198,529
847.4599,539
847.577881,530
847.695801,525
847.813782,513
847.931641,513
848.049561,527
848.167603,517
848.285461,539
848.403381,532
848.521362,517
848.639221,525
848.75708,515
848.875,537
848.99292,548
849.110901,535
849.22876,557
849.34668,543
849.464539,530
849.582458,530
849.700317,541
849.818176,504
849.936096,560
850.053955,543
850.171875,516
850.289673,538
850.407593,508
850.525452,513
850.643311,526
850.761169,535
850.878967,544
850.996887,518
851.114746,528
851.232544,526
851.350403,499
851.468262,524
851.58606,544
851.703979,526
851.821777,522
851.939636,538
852.057434,507
852.175232,530
852.293091,542
852.410889,528
852.528687,550
852.646545,573
852.764343,557
852.88208,571
852.999939,547
853.117676,535
853.235535,531
853.353271,540
853.471069,530
853.588928,520
853.706604,515
853.824402,516
853.9422,533
854.059998,529
854.177734,540
854.295532,517
854.413269,543
854.531006,535
854.648804,550
854.766541,532
854.884277,520
855.002014,537
855.119751,521
855.237549,515
855.355225,526
855.473022,517
855.590698,521
855.708435,525
855.826172,545
855.943848,513
856.061646,516
856.179321,542
856.296997,529
856.414795,518
856.53241,561
856.650085,541
856.767822,556
856.885559,554
857.003174,553
857.120911,552
857.238586,548
857.356201,548
857.473938,551
857.591614,538
857.709351,549
857.826965,530
857.944641,513
858.062317,544
858.179993,526
858.297668,549
858.415283,540
858.532959,535
858.650574,531
858.768188,531
858.885803,527
859.003479,526
859.121094,539
859.23877,534
859.356384,542
859.473999,519
859.591675,534
859.709229,536
859.826843,532
859.944458,552
860.062012,520
860.179626,531
860.297302,520
860.414856,524
860.532471,516
860.650024,530
860.767639,502
860.885193,510
861.002808,530
861.120361,519
861.237976,510
861.35553,514
861.473022,560
861.590698,518
861.708191,539
861.825745,512
861.943298,516
862.060852,506
862.178406,503
862.295959,512
862.413513,500
862.531006,502
862.64856,507
862.766113,499
862.883667,513
863.00116,519
863.118713,526
863.236206,502
863.353699,480
863.471252,497
863.588745,520
863.706177,510
863.82373,513
863.941162,518
864.058716,515
864.176208,508
864.29364,523
864.411194,504
864.528687,519
864.646118,534
864.763611,499
864.881042,500
864.998535,509
865.116028,505
865.233459,513
865.350891,507
865.468384,481
865.585754,508
865.703308,516
865.820679,518
865.938171,509
866.055542,495
866.173035,484
866.290466,499
866.407837,528
866.52533,512
866.6427,494
866.760071,496
866.877563,508
866.994934,517
867.112305,521
867.229736,498
867.347107,504
867.464539,510
867.58197,525
867.699341,509
867.81665,510
867.934082,498
868.051453,505
868.168823,494
868.286194,512
868.403564,501
868.520935,517
868.638306,499
868.755676,520
868.872986,523
868.990295,515
869.107727,510
869.225037,509
869.342346,517
869.459717,544
869.577026,531
869.694336,531
869.811707,509
869.929016,533
870.046326,521
870.163635,540
870.280945,498
870.398254,536
870.515564,563
870.632812,539
870.750183,520
870.867432,546
870.984741,542
871.102051,556
871.219299,526
871.336609,547
871.453918,543
871.571106,538
871.688416,556
871.805664,561
871.922852,551
872.040222,566
872.157471,558
872.274719,570
872.391968,571
872.509155,543
872.626465,544
872.743652,561
872.860962,510
872.978149,555
873.095337,522
873.212646,545
873.329834,509
873.44696,538
873.564209,526
873.681396,527
873.798645,538
873.915894,530
874.03302,538
874.150208,533
874.267456,534
874.384583,559
874.501831,547
874.618958,558
874.736145,577
874.853333,547
874.970459,560
875.087646,575
875.204834,552
875.32196,535
875.439148,545
875.556274,554
875.673401,541
875.790527,524
875.907715,531
876.024841,550
876.141968,515
876.259094,521
876.376282,527
876.493347,522
876.610474,557
876.7276,520
876.844727,514
876.961853,526
877.078918,529
877.195984,532
877.313171,522
877.430237,519
877.547302,503
877.664368,525
877.781433,541
877.898499,508
878.015625,513
878.13269,506
878.249695,530
878.366821,494
878.483887,528
878.600952,497
878.717957,520
878.834961,489
878.952087,525
879.069092,527
879.186157,520
879.303162,510
879.420227,495
879.537231,488
879.654236,498
879.77124,487
879.888306,512
880.005249,485
880.122314,495
880.239319,501
880.356323,501
880.473328,517
880.590271,488
880.707275,496
880.824341,476
880.941284,495
881.058228,490
881.175232,491
881.292236,474
881.40918,493
881.526123,478
881.643066,490
881.760071,502
881.877014,491
881.993958,511
882.11084,484
882.227783,497
882.344727,493
882.46167,499
882.578613,504
882.695618,490
882.812439,488
882.929382,496
883.046326,492
883.163208,501
883.280151,489
883.397034,513
883.513916,505
883.630798,499
883.747742,498
883.864563,498
883.981506,524
884.098389,507
884.21521,499
884.332153,510
884.448975,525
884.565796,512
884.682678,542
884.7995,554
884.916443,556
885.033264,571
885.150085,581
885.266968,580
885.383789,621
885.500671,623
885.617493,616
885.734314,603
885.851196,635
885.967896,626
886.084717,623
886.201599,598
886.318359,599
886.435181,601
886.552002,600
886.668762,593
886.785645,573
886.902344,606
887.019165,571
887.135925,583
887.252747,562
887.369446,578
887.486267,542
887.603027,556
887.719788,534
887.836548,554
887.953247,535
888.070068,520
888.186829,529
888.303528,505
888.420288,511
888.536987,504
888.653687,500
888.770447,508
888.887146,486
889.003967,498
889.120667,481
889.237305,487
889.354065,459
889.470703,479
889.587463,483
889.704163,461
889.820862,469
889.937561,476
890.054199,476
890.170837,482
890.287598,496
890.404236,460
890.520874,488
890.637634,466
890.754211,480
890.87085,467
890.987549,480
891.104187,459
891.220886,487
891.337463,476
891.454102,488
891.57074,479
891.687378,471
891.804077,466
891.920654,482
892.037231,478
892.15387,504
892.270447,472
892.387085,500
892.503723,470
892.6203,498
892.736877,474
892.853516,476
892.970032,470
893.08667,461
893.203186,475
893.319763,463
893.43634,492
893.552917,470
893.669556,470
893.786011,492
893.902588,477
894.019165,485
894.135681,475
894.252197,478
894.368835,462
894.485291,490
894.601868,480
894.718384,486
894.8349,474
894.951355,474
895.067932,471
895.184448,465
895.300964,482
895.417419,474
895.533936,473
895.650452,482
895.766907,462
895.883423,466
895.999878,471
896.116333,453
896.232849,478
896.349304,477
896.465759,476
896.582214,480
896.698669,465
896.815125,494
896.931641,468
897.048035,473
897.164551,487
897.280884,487
897.397339,477
897.513794,475
897.630249,481
897.746582,479
897.863098,457
897.979431,471
898.095886,477
898.212341,476
898.328674,485
898.445129,485
898.561462,471
898.677795,512
898.794312,469
898.910645,477
899.026978,484
899.143433,479
899.259766,500
899.37616,475
899.492493,483
899.608765,474
899.725159,496
899.841553,468
899.957947,487
900.07428,488
900.190552,482
900.306946,499
900.423157,473
900.53949,496
900.655884,475
900.772156,484
900.888489,465
901.004822,484
901.121033,480
901.237366,494
901.353699,500
901.46991,494
901.586304,493
901.702515,505
901.818787,489
901.93512,513
902.051331,520
902.167603,522
902.283875,518
902.400085,516
902.516418,514
902.632629,539
902.74884,545
902.865112,530
902.981384,526
903.097595,550
903.213867,540
903.330017,533
903.446289,527
903.5625,523
903.67865,537
903.794922,524
903.911072,520
904.027344,533
904.143494,512
904.259705,505
904.375916,514
904.492065,516
904.608215,526
904.724426,507
904.840576,483
904.956726,486
905.072876,488
905.189087,472
905.305176,491
905.421387,482
905.537537,480
905.653687,495
905.769775,480
905.885925,459
906.002014,464
906.118164,470
906.234314,470
906.350403,453
906.466492,472
906.582642,469
906.69873,476
906.814758,477
906.930908,472
907.046936,481
907.163086,486
907.279175,465
907.395264,474
907.511353,457
907.62738,462
907.743408,478
907.859497,463
907.975525,470
908.091553,469
908.207703,463
908.32373,473
908.439758,486
908.555786,474
908.671814,477
908.787842,487
908.90387,471
909.019775,470
909.135864,466
909.251892,482
909.367859,468
909.483826,481
909.599854,476
909.715881,471
909.831848,475
909.947815,467
910.063782,480
910.179749,480
910.295776,476
910.411743,467
910.527649,487
910.643616,481
910.759583,465
910.875488,478
910.991455,472
911.107361,465
911.223267,481
911.339294,480
911.4552,466
911.571106,479
911.687073,468
911.802979,458
911.918823,494
912.034729,440
912.150635,448
912.266602,475
912.382446,479
912.498352,469
912.614197,469
912.730103,478
912.846008,472
792.44574,1170
792.56488,1198
792.68396,1193
792.80304,1174
792.92218,1086
793.041199,1083
793.160339,1044
793.279419,1043
793.398499,1006
793.517578,974
793.636658,965
793.755737,937
793.874817,935
793.993896,946
794.112976,916
794.232056,893
794.351074,901
794.470215,858
794.589233,882
794.708313,849
794.827393,840
794.946411,839
795.065552,810
795.18457,833
795.303589,792
795.422668,784
795.541687,787
795.660767,771
795.779846,784
795.898865,752
796.017883,771
796.136963,724
796.255981,757
796.375061,740
796.49408,738
796.613037,722
796.732117,721
796.851135,705
796.970154,710
797.089233,712
797.208191,698
797.327271,677
797.446228,667
797.565186,702
797.684265,695
797.803223,697
797.922241,697
798.04126,693
798.160278,670
798.279297,650
798.398315,681
798.517273,675
798.636292,686
798.75531,663
798.874268,681
798.993286,679
799.112244,652
799.231323,662
799.350281,670
799.469238,659
799.588257,649
799.707153,659
799.826111,655
799.945129,664
800.064087,638
800.183044,667
800.302063,640
800.421021,654
800.539978,633
800.658936,638
800.777893,641
800.896912,640
801.015747,625
801.134705,630
801.253723,630
801.37262,645
801.491638,633
801.610535,613
801.729492,612
801.84845,635
801.967407,604
802.086243,618
802.205261,613
802.324158,633
802.443115,604
802.562073,617
802.680969,607
802.799927,594
802.918762,606
803.037659,601
803.156677,609
803.275574,595
803.39447,594
803.513428,615
803.632263,621
803.751221,604
803.870117,587
803.989014,600
804.107971,589
804.226746,621
804.345642,584
804.4646,602
804.583496,596
804.702393,588
804.821228,582
804.940125,607
805.059021,600
805.177917,596
805.296814,594
805.415649,568
805.534546,581
805.653442,586
805.772278,601
805.891113,610
806.01001,576
806.128906,586
806.247742,581
806.366577,602
806.485413,559
806.604309,612
806.723145,567
806.84198,591
806.960876,582
807.079712,580
807.198486,584
807.317383,582
807.436218,590
807.554993,582
807.673889,581
807.792725,588
807.91156,576
808.030396,549
808.14917,576
808.268005,589
808.386841,564
808.505676,551
808.624451,551
808.743286,590
808.862122,586
808.980896,565
809.099731,556
809.218506,554
809.337341,593
809.456116,556
809.57489,577
809.693726,566
809.8125,553
809.931274,570
810.050049,577
810.168884,556
810.287659,564
810.406372,569
810.525269,567
810.643982,555
810.762756,558
810.881531,556
811.000305,573
811.11908,561
811.237854,567
811.356567,556
811.475403,566
811.594116,573
811.71283,596
811.831604,562
811.950378,578
812.069153,569
812.187927,574
812.30658,581
812.425415,581
812.544128,586
812.662781,576
812.781616,574
812.900269,575
813.019043,572
813.137756,556
813.256531,574
813.375244,586
813.493896,576
813.612671,590
813.731384,563
813.850037,570
813.96875,578
814.087524,556
814.206238,578
814.324951,554
814.443604,560
814.562256,555
814.68103,571
814.799683,569
814.918335,549
815.037109,574
815.155762,572
815.274475,566
815.393188,556
815.511841,564
815.630554,550
815.749146,536
815.867859,568
815.986572,560
816.105164,556
816.223877,580
816.342529,560
816.461182,575
816.579895,565
816.698486,551
816.817139,571
816.935791,573
817.054504,572
817.173096,579
817.291748,567
817.4104,550
817.529053,553
817.647644,560
817.766235,552
817.884949,543
818.00354,551
818.122192,523
818.240845,544
818.359436,541
818.478088,535
818.59668,533
818.715271,552
818.833923,513
818.952515,525
819.071106,519
819.189758,537
819.30835,538
819.426941,521
819.545532,516
819.664124,515
819.782715,511
819.901306,506
820.019897,531
820.138489,520
820.25708,519
820.375671,521
820.494202,494
820.612732,531
820.731384,509
820.849915,526
820.968506,532
821.087097,507
821.205627,497
821.324158,520
821.442749,482
821.561279,514
821.679871,503
821.798401,528
821.916931,504
822.035461,523
822.154053,494
822.272583,486
822.391174,500
822.509583,509
822.628174,492
822.746704,494
822.865234,503
822.983765,504
823.102295,522
823.220825,495
823.339294,511
823.457825,499
823.576355,503
823.694824,488
823.813354,511
823.931885,497
824.050354,503
824.168884,500
824.287354,498
824.405823,511
824.524353,513
824.642822,505
824.761353,499
824.879822,498
824.998291,516
825.116699,507
825.235291,508
825.353699,504
825.472168,506
825.590637,508
825.709106,494
825.827576,516
825.946045,503
826.064453,519
826.182983,497
826.301392,510
826.4198,501
826.53833,503
826.656738,500
826.775208,493
826.893677,486
827.012024,485
827.130493,485
827.248962,505
827.36731,502
827.485779,505
827.604248,509
827.722595,495
827.841064,482
827.959412,500
828.077942,485
828.196289,489
828.314636,494
828.433105,488
828.551514,499
828.669861,504
828.78833,488
828.906677,490
829.025085,488
829.143433,488
829.261841,489
829.38031,482
829.498657,488
829.617004,489
829.735413,503
829.85376,499
829.972107,489
830.090515,483
830.208862,481
830.327209,488
830.445557,474
830.563904,514
830.682312,482
830.800659,509
830.919006,509
831.037354,499
831.155701,507
831.274048,546
831.392395,493
831.51062,506
831.629028,507
831.747314,507
831.865662,486
831.984009,503
832.102356,487
832.220642,508
832.338928,508
832.457275,500
832.575623,505
832.693909,502
832.812134,512
832.930481,506
833.048828,489
833.167114,499
833.2854,487
833.403687,526
833.521973,490
833.640259,486
833.758545,495
833.876831,494
833.995056,499
834.113281,501
834.231628,489
834.349915,514
834.468201,507
834.586426,484
834.704651,497
834.822998,503
834.941162,503
835.059448,507
835.177673,488
835.295959,500
835.414246,496
835.53241,509
835.650635,491
835.768921,482
835.887146,494
836.005371,503
836.123596,497
836.241821,507
836.360046,504
836.478271,491
836.596497,511
836.714722,485
836.832886,507
836.95105,501
837.069336,483
837.1875,484
837.305725,496
837.423889,486
837.542053,507
837.660339,490
837.778503,503
837.896667,485
838.014832,504
838.132996,498
838.25116,491
838.369385,515
838.487488,509
838.605713,511
838.723877,501
838.84198,510
838.960205,519
839.078308,497
839.196472,494
839.314636,505
839.4328,510
839.550964,510
839.669067,520
839.787231,503
839.905396,518
840.023499,503
840.141602,517
840.259766,526
840.377869,520
840.495972,533
840.614136,543
840.732239,530
840.850342,532
840.968445,538
841.086548,528
841.204651,541
841.322754,535
841.440918,545
841.55896,514
841.677002,539
841.795166,544
841.913208,566
842.031311,544
842.149353,544
842.267456,554
842.385498,542
842.503601,544
842.621643,539
842.739746,552
842.857788,528
842.97583,526
843.093933,546
843.211975,533
843.330017,552
843.44812,511
843.566101,540
843.684204,529
843.802246,536
843.920227,505
844.038269,538
844.156311,522
844.274292,541
844.392395,512
844.510376,540
844.628357,558
844.74646,550
844.864441,546
844.982422,511
845.100403,506
845.218384,530
845.336426,552
845.454468,502
845.572449,531
845.69043,525
845.808411,513
845.926453,527
846.044373,522
846.162354,527
846.280396,539
846.398315,536
846.516296,543
846.634216,532
846.752197,525
846.870178,508
846.988098,531
847.106079,545
847.22406,542
847.34198,526
847.4599,555
847.577881,530
847.695801,528
847.813782,507
847.931641,510
848.049561,525
848.167603,546
848.285461,520
848.403381,526
848.521362,523
848.639221,534
848.75708,518
848.875,507
848.99292,530
849.110901,513
849.22876,536
849.34668,552
849.464539,517
849.582458,517
849.700317,548
849.818176,528
849.936096,534
850.053955,515
850.171875,547
850.289673,505
850.407593,533
850.525452,515
850.643311,529
850.761169,517
850.878967,522
850.996887,523
851.114746,527
851.232544,508
851.350403,512
851.468262,524
851.58606,517
851.703979,527
851.821777,521
851.939636,528
852.057434,539
852.175232,530
852.293091,521
852.410889,528
852.528687,561
852.646545,562
852.764343,564
852.88208,548
852.999939,550
853.117676,534
853.235535,540
853.353271,524
853.471069,519
853.588928,536
853.706604,526
853.824402,524
853.9422,509
854.059998,519
854.177734,512
854.295532,545
854.413269,530
854.531006,565
854.648804,542
854.766541,548
854.884277,544
855.002014,544
855.119751,522
855.237549,525
855.355225,519
855.473022,525
855.590698,520
855.708435,525
855.826172,519
855.943848,524
856.061646,546
856.179321,523
856.296997,543
856.414795,519
856.53241,546
856.650085,526
856.767822,541
856.885559,557
857.003174,577
857.120911,550
857.238586,534
857.356201,528
857.473938,554
857.591614,525
857.709351,548
857.826965,550
857.944641,544
858.062317,516
858.179993,553
858.297668,529
858.415283,538
858.532959,547
858.650574,557
858.768188,525
858.885803,526
859.003479,533
859.121094,530
859.23877,528
859.356384,528
859.473999,513
859.591675,535
859.709229,514
859.826843,495
859.944458,494
860.062012,534
860.179626,537
860.297302,518
860.414856,533
860.532471,525
860.650024,521
860.767639,541
860.885193,517
861.002808,515
861.120361,529
861.237976,536
861.35553,525
861.473022,528
861.590698,535
861.708191,512
861.825745,529
861.943298,517
862.060852,509
862.178406,535
862.295959,535
862.413513,515
862.531006,511
862.64856,503
862.766113,486
862.883667,489
863.00116,487
863.118713,509
863.236206,512
863.353699,500
863.471252,534
863.588745,524
863.706177,520
863.82373,518
863.941162,503
864.058716,516
864.176208,500
864.29364,516
864.411194,508
864.528687,502
864.646118,509
864.763611,500
864.881042,494
864.998535,498
865.116028,500
865.233459,501
865.350891,521
865.468384,498
865.585754,510
865.703308,493
865.820679,505
865.938171,478
866.055542,505
866.173035,507
866.290466,515
866.407837,499
866.52533,501
866.6427,494
866.760071,505
866.877563,512
866.994934,525
867.112305,519
867.229736,515
867.347107,511
867.464539,492
867.58197,535
867.699341,506
867.81665,502
867.934082,512
868.051453,500
868.168823,522
868.286194,510
868.403564,514
868.520935,538
868.638306,501
868.755676,494
868.872986,515
868.990295,538
869.107727,495
869.225037,512
869.342346,524
869.459717,521
869.577026,520
869.694336,525
869.811707,526
869.929016,527
870.046326,520
870.163635,557
870.280945,514
870.398254,535
870.515564,537
870.632812,530
870.750183,564
870.867432,546
870.984741,545
871.102051,530
871.219299,556
871.336609,567
871.453918,541
871.571106,550
871.688416,583
871.805664,565
871.922852,570
872.040222,564
872.157471,580
872.274719,584
872.391968,558
872.509155,584
872.626465,558
872.743652,561
872.860962,546
872.978149,544
873.095337,538
873.212646,545
873.329834,520
873.44696,554
873.564209,541
873.681396,545
873.798645,544
873.915894,540
874.03302,543
874.150208,530
874.267456,553
874.384583,555
874.501831,558
874.618958,557
874.736145,572
874.853333,574
874.970459,565
875.087646,552
875.204834,557
875.32196,559
875.439148,555
875.556274,537
875.673401,548
875.790527,525
875.907715,537
876.024841,536
876.141968,535
876.259094,523
876.376282,526
876.493347,544
876.610474,525
876.7276,543
876.844727,530
876.961853,527
877.078918,506
877.195984,532
877.313171,521
877.430237,533
877.547302,530
877.664368,517
877.781433,533
877.898499,518
878.015625,524
878.13269,522
878.249695,517
878.366821,518
878.483887,518
878.600952,515
878.717957,531
878.834961,513
878.952087,500
879.069092,522
879.186157,512
879.303162,515
879.420227,496
879.537231,502
879.654236,473
879.77124,500
879.888306,504
880.005249,498
880.122314,507
880.239319,517
880.356323,476
880.473328,497
880.590271,484
880.707275,509
880.824341,487
880.941284,518
881.058228,497
881.175232,495
881.292236,498
881.40918,481
881.526123,508
881.643066,493
881.760071,517
881.877014,502
881.993958,490
882.11084,485
882.227783,489
882.344727,495
882.46167,484
882.578613,504
882.695618,507
882.812439,466
882.929382,496
883.046326,508
883.163208,499
883.280151,506
883.397034,500
883.513916,507
883.630798,499
883.747742,513
883.864563,505
883.981506,504
884.098389,529
884.21521,512
884.332153,503
884.448975,515
884.565796,543
884.682678,540
884.7995,545
884.916443,583
885.033264,550
885.150085,581
885.266968,588
885.383789,612
885.500671,589
885.617493,612
885.734314,598
885.851196,635
885.967896,612
886.084717,618
886.201599,617
886.318359,586
886.435181,579
886.552002,584
886.668762,575
886.785645,576
886.902344,564
887.019165,576
887.135925,553
887.252747,570
887.369446,580
887.486267,545
887.603027,571
887.719788,517
887.836548,526
887.953247,531
888.070068,509
888.186829,541
888.303528,510
888.420288,509
888.536987,515
888.653687,497
888.770447,504
888.887146,488
889.003967,489
889.120667,475
889.237305,500
889.354065,490
889.470703,470
889.587463,475
889.704163,482
889.820862,462
889.937561,489
890.054199,493
890.170837,467
890.287598,489
890.404236,453
890.520874,486
890.637634,493
890.754211,480
890.87085,471
890.987549,465
891.104187,484
891.220886,497
891.337463,491
891.454102,466
891.57074,469
891.687378,468
891.804077,473
891.920654,509
892.037231,494
892.15387,496
892.270447,490
892.387085,479
892.503723,468
892.6203,480
892.736877,497
892.853516,491
892.970032,494
893.08667,495
893.203186,482
893.319763,489
893.43634,476
893.552917,471
893.669556,483
893.786011,487
893.902588,470
894.019165,475
894.135681,478
894.252197,486
894.368835,471
894.485291,471
894.601868,476
894.718384,480
894.8349,465
894.951355,485
895.067932,468
895.184448,496
895.300964,481
895.417419,473
895.533936,469
895.650452,466
895.766907,480
895.883423,482
895.999878,461
896.116333,465
896.232849,478
896.349304,482
896.465759,474
896.582214,475
896.698669,473
896.815125,480
896.931641,465
897.048035,490
897.164551,495
897.280884,477
897.397339,469
897.513794,487
897.630249,476
897.746582,474
897.863098,474
897.979431,477
898.095886,473
898.212341,473
898.328674,477
898.445129,493
898.561462,485
898.677795,453
898.794312,488
898.910645,474
899.026978,498
899.143433,486
899.259766,467
899.37616,463
899.492493,467
899.608765,495
899.725159,491
899.841553,497
899.957947,479
900.07428,493
900.190552,489
900.306946,484
900.423157,485
900.53949,476
900.655884,490
900.772156,477
900.888489,482
901.004822,468
901.121033,477
901.237366,492
901.353699,489
901.46991,500
901.586304,488
901.702515,503
901.818787,508
901.93512,513
902.051331,504
902.167603,545
902.283875,517
902.400085,530
902.516418,552
902.632629,550
902.74884,545
902.865112,561
902.981384,528
903.097595,543
903.213867,559
903.330017,527
903.446289,543
903.5625,531
903.67865,528
903.794922,539
903.911072,510
904.027344,521
904.143494,536
904.259705,524
904.375916,500
904.492065,530
904.608215,496
904.724426,482
904.840576,520
904.956726,485
905.072876,489
905.189087,503
905.305176,481
905.421387,481
905.537537,487
905.653687,482
905.769775,471
905.885925,491
906.002014,491
906.118164,476
906.234314,477
906.350403,495
906.466492,452
906.582642,471
906.69873,475
906.814758,468
906.930908,469
907.046936,465
907.163086,474
907.279175,481
907.395264,480
907.511353,479
907.62738,495
907.743408,466
907.859497,478
907.975525,455
908.091553,471
908.207703,439
908.32373,476
908.439758,464
908.555786,456
908.671814,459
908.787842,480
908.90387,490
909.019775,485
909.135864,470
909.251892,458
909.367859,490
909.483826,464
909.599854,475
909.715881,470
909.831848,475
909.947815,476
910.063782,475
910.179749,471
910.295776,484
910.411743,488
910.527649,459
910.643616,492
910.759583,481
910.875488,476
910.991455,479
911.107361,480
911.223267,492
911.339294,487
911.4552,460
911.571106,476
911.687073,469
911.802979,477
911.918823,491
912.034729,487
912.150635,469
912.266602,475
912.382446,467
912.498352,447
912.614197,471
912.730103,456
912.846008,463
792.44574,1182
792.56488,1193
792.68396,1235
792.80304,1185
792.92218,1100
793.041199,1061
793.160339,1040
793.279419,1057
793.398499,1008
793.517578,932
793.636658,963
793.755737,964
793.874817,966
793.993896,966
794.112976,917
794.232056,902
794.351074,903
794.470215,879
794.589233,827
794.708313,857
794.827393,846
794.946411,827
795.065552,816
795.18457,826
795.303589,821
795.422668,808
795.541687,807
795.660767,785
795.779846,775
795.898865,757
796.017883,760
796.136963,743
796.255981,770
796.375061,758
796.49408,720
796.613037,730
796.732117,739
796.851135,718
796.970154,700
797.089233,692
797.208191,741
797.327271,697
797.446228,710
797.565186,674
797.684265,712
797.803223,680
797.922241,687
798.04126,682
798.160278,671
798.279297,681
798.398315,684
798.517273,642
798.636292,666
798.75531,659
798.874268,657
798.993286,667
799.112244,650
799.231323,678
799.350281,660
799.469238,659
799.588257,648
799.707153,656
799.826111,643
799.945129,637
800.064087,637
800.183044,638
800.302063,686
800.421021,621
800.539978,635
800.658936,630
800.777893,630
800.896912,616
801.015747,632
801.134705,630
801.253723,625
801.37262,632
801.491638,609
801.610535,624
801.729492,606
801.84845,615
801.967407,592
802.086243,617
802.205261,630
802.324158,623
802.443115,613
802.562073,607
802.680969,614
802.799927,585
802.918762,620
803.037659,594
803.156677,600
803.275574,586
803.39447,604
803.513428,601
803.632263,632
803.751221,615
803.870117,582
803.989014,592
804.107971,616
804.226746,591
804.345642,595
804.4646,584
804.583496,610
804.702393,591
804.821228,596
804.940125,581
805.059021,587
805.177917,593
805.296814,587
805.415649,558
805.534546,598
805.653442,590
805.772278,588
805.891113,579
806.01001,593
806.128906,579
806.247742,588
806.366577,588
806.485413,592
806.604309,592
806.723145,581
806.84198,582
806.960876,603
807.079712,581
807.198486,587
807.317383,572
807.436218,577
807.554993,555
807.673889,590
807.792725,565
807.91156,582
808.030396,578
808.14917,575
808.268005,572
808.386841,569
808.505676,553
808.624451,577
808.743286,542
808.862122,569
808.980896,573
809.099731,565
809.218506,579
809.337341,576
809.456116,551
809.57489,567
809.693726,558
809.8125,562
809.931274,587
810.050049,580
810.168884,572
810.287659,581
810.406372,559
810.525269,577
810.643982,572
810.762756,568
810.881531,581
811.000305,565
811.11908,562
811.237854,551
811.356567,568
811.475403,588
811.594116,579
811.71283,569
811.831604,551
811.950378,608
812.069153,572
812.187927,571
812.30658,580
812.425415,575
812.544128,607
812.662781,568
812.781616,580
812.900269,554
813.019043,586
813.137756,579
813.256531,574
813.375244,580
813.493896,573
813.612671,575
813.731384,591
813.850037,577
813.96875,586
814.087524,570
814.206238,569
814.324951,568
814.443604,570
814.562256,565
814.68103,567
814.799683,572
814.918335,548
815.037109,564
815.155762,555
815.274475,550
815.393188,577
815.511841,566
815.630554,571
815.749146,555
815.867859,570
815.986572,571
816.105164,571
816.223877,557
816.342529,581
816.461182,570
816.579895,543
816.698486,570
816.817139,577
816.935791,573
817.054504,586
817.173096,570
817.291748,580
817.4104,563
817.529053,568
817.647644,560
817.766235,545
817.884949,554
818.00354,571
818.122192,530
818.240845,526
818.359436,538
818.478088,548
818.59668,544
818.715271,537
818.833923,544
818.952515,535
819.071106,527
819.189758,529
819.30835,534
819.426941,534
819.545532,528
819.664124,520
819.782715,532
819.901306,528
820.019897,526
820.138489,508
820.25708,534
820.375671,523
820.494202,529
820.612732,524
820.731384,527
820.849915,520
820.968506,508
821.087097,512
821.205627,506
821.324158,518
821.442749,527
821.561279,492
821.679871,509
821.798401,514
821.916931,507
822.035461,526
822.154053,508
822.272583,515
822.391174,513
822.509583,501
822.628174,518
822.746704,512
822.865234,517
822.983765,502
823.102295,515
823.220825,515
823.339294,497
823.457825,514
823.576355,513
823.694824,491
823.813354,504
823.931885,502
824.050354,515
824.168884,489
824.287354,505
824.405823,499
824.524353,515
824.642822,494
824.761353,505
824.879822,507
824.998291,512
825.116699,484
825.235291,508
825.353699,509
825.472168,506
825.590637,514
825.709106,517
825.827576,497
825.946045,512
826.064453,484
826.182983,491
826.301392,509
826.4198,497
826.53833,472
826.656738,498
826.775208,480
826.893677,506
827.012024,476
827.130493,501
827.248962,508
827.36731,513
827.485779,510
827.604248,513
827.722595,492
827.841064,491
827.959412,501
828.077942,489
828.196289,501
828.314636,498
828.433105,509
828.551514,508
828.669861,493
828.78833,505
828.906677,497
829.025085,498
829.143433,480
829.261841,491
829.38031,480
829.498657,500
829.617004,501
829.735413,502
829.85376,503
829.972107,506
830.090515,475
830.208862,498
830.327209,484
830.445557,498
830.563904,475
830.682312,508
830.800659,483
830.919006,496
831.037354,480
831.155701,509
831.274048,519
831.392395,510
831.51062,492
831.629028,508
831.747314,480
831.865662,513
831.984009,509
832.102356,517
832.220642,497
832.338928,512
832.457275,497
832.575623,520
832.693909,481
832.812134,476
832.930481,513
833.048828,495
833.167114,498
833.2854,505
833.403687,495
833.521973,479
833.640259,498
833.758545,521
833.876831,501
833.995056,492
834.113281,510
834.231628,501
834.349915,493
834.468201,512
834.586426,494
834.704651,511
834.822998,488
834.941162,502
835.059448,506
835.177673,504
835.295959,504
835.414246,518
835.53241,503
835.650635,507
835.768921,501
835.887146,500
836.005371,504
836.123596,506
836.241821,496
836.360046,492
836.478271,514
836.596497,500
836.714722,482
836.832886,497
836.95105,473
837.069336,499
837.1875,494
837.305725,503
837.423889,489
837.542053,512
837.660339,480
837.778503,501
837.896667,494
838.014832,475
838.132996,517
838.25116,479
838.369385,487
838.487488,501
838.605713,502
838.723877,500
838.84198,493
838.960205,517
839.078308,495
839.196472,519
839.314636,518
839.4328,514
839.550964,507
839.669067,503
839.787231,507
839.905396,531
840.023499,506
840.141602,533
840.259766,509
840.377869,541
840.495972,543
840.614136,552
840.732239,524
840.850342,526
840.968445,542
841.086548,539
841.204651,540
841.322754,531
841.440918,541
841.55896,550
841.677002,538
841.795166,535
841.913208,531
842.031311,558
842.149353,529
842.267456,552
842.385498,528
842.503601,551
842.621643,527
842.739746,547
842.857788,545
842.97583,544
843.093933,530
843.211975,548
843.330017,541
843.44812,532
843.566101,543
843.684204,542
843.802246,542
843.920227,534
844.038269,563
844.156311,534
844.274292,516
844.392395,558
844.510376,529
844.628357,553
844.74646,536
844.864441,534
844.982422,531
845.100403,530
845.218384,519
845.336426,531
845.454468,529
845.572449,539
845.69043,513
845.808411,513
845.926453,531
846.044373,527
846.162354,518
846.280396,509
846.398315,513
846.516296,552
846.634216,498
846.752197,541
846.870178,532
846.988098,534
847.106079,536
847.22406,542
847.34198,517
847.4599,530
847.577881,542
847.695801,537
847.813782,520
847.931641,525
848.049561,515
848.167603,530
848.285461,514
848.403381,510
848.521362,512
848.639221,530
848.75708,520
848.875,542
848.99292,517
849.110901,538
849.22876,525
849.34668,546
849.464539,518
849.582458,528
849.700317,515
849.818176,541
849.936096,525
850.053955,515
850.171875,539
850.289673,521
850.407593,510
850.525452,517
850.643311,530
850.761169,524
850.878967,509
850.996887,535
851.114746,518
851.232544,509
851.350403,529
851.468262,527
851.58606,518
851.703979,515
851.821777,528
851.939636,520
852.057434,525
852.175232,534
852.293091,535
852.410889,532
852.528687,536
852.646545,578
852.764343,557
852.88208,560
852.999939,537
853.117676,521
853.235535,535
853.353271,539
853.471069,522
853.588928,513
853.706604,519
853.824402,532
853.9422,503
854.059998,528
854.177734,532
854.295532,535
854.413269,530
854.531006,535
854.648804,523
854.766541,547
854.884277,531
855.002014,536
855.119751,527
855.237549,532
855.355225,537
855.473022,527
855.590698,531
855.708435,540
855.826172,523
855.943848,549
856.061646,527
856.179321,519
856.296997,528
856.414795,542
856.53241,526
856.650085,554
856.767822,539
856.885559,565
857.003174,557
857.120911,559
857.238586,552
857.356201,541
857.473938,552
857.591614,546
857.709351,555
857.826965,590
857.944641,531
858.062317,557
858.179993,546
858.297668,521
858.415283,542
858.532959,553
858.650574,550
858.768188,545
858.885803,550
859.003479,543
859.121094,549
859.23877,537
859.356384,552
859.473999,523
859.591675,526
859.709229,560
859.826843,545
859.944458,550
860.062012,521
860.179626,526
860.297302,526
860.414856,508
860.532471,524
860.650024,503
860.767639,521
860.885193,520
861.002808,528
861.120361,524
861.237976,524
861.35553,548
861.473022,538
861.590698,519
861.708191,547
861.825745,516
861.943298,526
862.060852,522
862.178406,519
862.295959,511
862.413513,499
862.531006,534
862.64856,503
862.766113,508
862.883667,482
863.00116,512
863.118713,503
863.236206,507
863.353699,511
863.471252,519
863.588745,513
863.706177,493
863.82373,510
863.941162,516
864.058716,505
864.176208,512
864.29364,499
864.411194,497
864.528687,504
864.646118,511
864.763611,513
864.881042,502
864.998535,517
865.116028,503
865.233459,511
865.350891,512
865.468384,526
865.585754,503
865.703308,499
865.820679,510
865.938171,495
866.055542,495
866.173035,500
866.290466,525
866.407837,498
866.52533,491
866.6427,523
866.760071,500
866.877563,526
866.994934,529
867.112305,485
867.229736,513
867.347107,499
867.464539,501
867.58197,509
867.699341,508
867.81665,521
867.934082,502
868.051453,537
868.168823,520
868.286194,508
868.403564,498
868.520935,508
868.638306,511
868.755676,519
868.872986,518
868.990295,537
869.107727,524
869.225037,538
869.342346,535
869.459717,510
869.577026,518
869.694336,504
869.811707,556
869.929016,517
870.046326,525
870.163635,534
870.280945,545
870.398254,543
870.515564,526
870.632812,533
870.750183,554
870.867432,543
870.984741,542
871.102051,547
871.219299,555
871.336609,529
871.453918,583
871.571106,540
871.688416,574
871.805664,561
871.922852,566
872.040222,543
872.157471,563
872.274719,547
872.391968,564
872.509155,554
872.626465,547
872.743652,545
872.860962,549
872.978149,542
873.095337,553
873.212646,573
873.329834,557
873.44696,560
873.564209,541
873.681396,519
873.798645,545
873.915894,539
874.03302,553
874.150208,538
874.267456,566
874.384583,546
874.501831,570
874.618958,550
874.736145,553
874.853333,556
874.970459,557
875.087646,572
875.204834,544
875.32196,555
875.439148,560
875.556274,533
875.673401,563
875.790527,563
875.907715,560
876.024841,519
876.141968,511
876.259094,537
876.376282,520
876.493347,529
876.610474,533
876.7276,541
876.844727,535
876.961853,530
877.078918,540
877.195984,512
877.313171,528
877.430237,549
877.547302,533
877.664368,514
877.781433,543
877.898499,503
878.015625,532
878.13269,524
878.249695,519
878.366821,523
878.483887,528
878.600952,510
878.717957,517
878.834961,502
878.952087,499
879.069092,504
879.186157,518
879.303162,515
879.420227,524
879.537231,505
879.654236,499
879.77124,510
879.888306,518
880.005249,493
880.122314,500
880.239319,497
880.356323,498
880.473328,477
880.590271,496
880.707275,497
880.824341,477
880.941284,469
881.058228,497
881.175232,510
881.292236,474
881.40918,498
881.526123,485
881.643066,498
881.760071,500
881.877014,505
881.993958,503
882.11084,486
882.227783,493
882.344727,495
882.46167,480
882.578613,472
882.695618,490
882.812439,490
882.929382,497
883.046326,488
883.163208,502
883.280151,492
883.397034,515
883.513916,498
883.630798,503
883.747742,511
883.864563,496
883.981506,495
884.098389,538
884.21521,520
884.332153,525
884.448975,496
884.565796,520
884.682678,506
884.7995,563
884.916443,547
885.033264,568
885.150085,599
885.266968,626
885.383789,623
885.500671,607
885.617493,614
885.734314,622
885.851196,601
885.967896,614
886.084717,620
886.201599,611
886.318359,573
886.435181,590
886.552002,590
886.668762,576
886.785645,580
886.902344,605
887.019165,580
887.135925,583
887.252747,586
887.369446,562
887.486267,576
887.603027,544
887.719788,540
887.836548,545
887.953247,527
888.070068,521
888.186829,501
888.303528,508
888.420288,504
888.536987,507
888.653687,499
888.770447,492
888.887146,492
889.003967,508
889.120667,505
889.237305,482
889.354065,489
889.470703,480
889.587463,464
889.704163,479
889.820862,478
889.937561,477
890.054199,469
890.170837,484
890.287598,468
890.404236,476
890.520874,479
890.637634,454
890.754211,461
890.87085,481
890.987549,480
891.104187,483
891.220886,476
891.337463,490
891.454102,478
891.57074,486
891.687378,457
891.804077,509
891.920654,506
892.037231,499
892.15387,485
892.270447,497
892.387085,493
892.503723,478
892.6203,484
892.736877,469
892.853516,489
892.970032,487
893.08667,485
893.203186,493
893.319763,468
893.43634,474
893.552917,470
893.669556,478
893.786011,480
893.902588,485
894.019165,489
894.135681,476
894.252197,474
894.368835,492
894.485291,472
894.601868,471
894.718384,471
894.8349,476
894.951355,499
895.067932,480
895.184448,471
895.300964,490
895.417419,490
895.533936,481
895.650452,478
895.766907,486
895.883423,464
895.999878,483
896.116333,504
896.232849,472
896.349304,456
896.465759,472
896.582214,471
896.698669,481
896.815125,482
896.931641,473
897.048035,479
897.164551,471
897.280884,477
897.397339,486
897.513794,473
897.630249,476
897.746582,469
897.863098,478
897.979431,463
898.095886,497
898.212341,466
898.328674,477
898.445129,490
898.561462,507
898.677795,469
898.794312,470
898.910645,492
899.026978,495
899.143433,475
899.259766,475
899.37616,477
899.492493,486
899.608765,479
899.725159,500
899.841553,475
899.957947,502
900.07428,482
900.190552,477
900.306946,467
900.423157,489
900.53949,493
900.655884,485
900.772156,496
900.888489,495
901.004822,478
901.121033,499
901.237366,476
901.353699,513
901.46991,493
901.586304,487
901.702515,497
901.818787,502
901.93512,517
902.051331,499
902.167603,513
902.283875,531
902.400085,525
902.516418,539
902.632629,541
902.74884,556
902.865112,532
902.981384,543
903.097595,552
903.213867,571
903.330017,549
903.446289,521
903.5625,548
903.67865,525
903.794922,526
903.911072,514
904.027344,534
904.143494,514
904.259705,520
904.375916,524
904.492065,513
904.608215,517
904.724426,478
904.840576,491
904.956726,490
905.072876,488
905.189087,504
905.305176,492
905.421387,494
905.537537,492
905.653687,479
905.769775,483
905.885925,478
906.002014,464
906.118164,485
906.234314,479
906.350403,490
906.466492,477
906.582642,475
906.69873,472
906.814758,476
906.930908,461
907.046936,468
907.163086,473
907.279175,464
907.395264,476
907.511353,489
907.62738,476
907.743408,473
907.859497,487
907.975525,448
908.091553,471
908.207703,464
908.32373,471
908.439758,481
908.555786,480
908.671814,476
908.787842,486
908.90387,467
909.019775,487
909.135864,468
909.251892,488
909.367859,482
909.483826,488
909.599854,471
909.715881,480
909.831848,482
909.947815,463
910.063782,479
910.179749,472
910.295776,473
910.411743,483
910.527649,462
910.643616,463
910.759583,490
910.875488,493
910.991455,476
911.107361,482
911.223267,482
911.339294,476
911.4552,473
911.571106,481
911.687073,471
911.802979,475
911.918823,480
912.034729,483
912.150635,481
912.266602,460
912.382446,473
912.498352,476
912.614197,477
912.730103,464
912.846008,454
