792.44574,826
792.56488,849
792.68396,852
792.80304,829
792.92218,795
793.041199,764
793.160339,761
793.279419,758
793.398499,736
793.517578,698
793.636658,707
793.755737,734
793.874817,699
793.993896,746
794.112976,699
794.232056,677
794.351074,655
794.470215,680
794.589233,687
794.708313,654
794.827393,650
794.946411,652
795.065552,655
795.18457,668
795.303589,644
795.422668,630
795.541687,661
795.660767,628
795.779846,627
795.898865,632
796.017883,627
796.136963,623
796.255981,632
796.375061,632
796.49408,592
796.613037,632
796.732117,617
796.851135,619
796.970154,616
797.089233,598
797.208191,594
797.327271,585
797.446228,612
797.565186,586
797.684265,583
797.803223,583
797.922241,591
798.04126,589
798.160278,577
798.279297,583
798.398315,561
798.517273,565
798.636292,572
798.75531,569
798.874268,594
798.993286,573
799.112244,567
799.231323,580
799.350281,556
799.469238,593
799.588257,565
799.707153,562
799.826111,590
799.945129,551
800.064087,575
800.183044,568
800.302063,559
800.421021,551
800.539978,550
800.658936,563
800.777893,553
800.896912,563
801.015747,561
801.134705,554
801.253723,561
801.37262,562
801.491638,555
801.610535,556
801.729492,549
801.84845,536
801.967407,551
802.086243,564
802.205261,555
802.324158,539
802.443115,532
802.562073,540
802.680969,532
802.799927,543
802.918762,522
803.037659,539
803.156677,572
803.275574,541
803.39447,523
803.513428,540
803.632263,558
803.751221,544
803.870117,542
803.989014,530
804.107971,548
804.226746,549
804.345642,544
804.4646,541
804.583496,539
804.702393,538
804.821228,534
804.940125,539
805.059021,538
805.177917,528
805.296814,540
805.415649,546
805.534546,539
805.653442,521
805.772278,547
805.891113,530
806.01001,536
806.128906,551
806.247742,549
806.366577,534
806.485413,550
806.604309,537
806.723145,555
806.84198,532
806.960876,545
807.079712,543
807.198486,525
807.317383,512
807.436218,532
807.554993,536
807.673889,521
807.792725,538
807.91156,536
808.030396,558
808.14917,544
808.268005,538
808.386841,551
808.505676,510
808.624451,525
808.743286,516
808.862122,559
808.980896,523
809.099731,532
809.218506,528
809.337341,529
809.456116,512
809.57489,533
809.693726,532
809.8125,534
809.931274,542
810.050049,517
810.168884,541
810.287659,536
810.406372,530
810.525269,538
810.643982,535
810.762756,546
810.881531,545
811.000305,552
811.11908,519
811.237854,543
811.356567,537
811.475403,557
811.594116,509
811.71283,542
811.831604,539
811.950378,539
812.069153,535
812.187927,546
812.30658,530
812.425415,535
812.544128,531
812.662781,561
812.781616,512
812.900269,530
813.019043,529
813.137756,535
813.256531,548
813.375244,536
813.493896,545
813.612671,535
813.731384,521
813.850037,529
813.96875,510
814.087524,542
814.206238,524
814.324951,528
814.443604,548
814.562256,521
814.68103,525
814.799683,532
814.918335,529
815.037109,542
815.155762,531
815.274475,519
815.393188,536
815.511841,544
815.630554,544
815.749146,547
815.867859,539
815.986572,521
816.105164,529
816.223877,509
816.342529,511
816.461182,520
816.579895,523
816.698486,520
816.817139,544
816.935791,527
817.054504,524
817.173096,535
817.291748,528
817.4104,529
817.529053,529
817.647644,521
817.766235,519
817.884949,508
818.00354,510
818.122192,511
818.240845,490
818.359436,531
818.478088,499
818.59668,501
818.715271,511
818.833923,497
818.952515,490
819.071106,504
819.189758,484
819.30835,503
819.426941,477
819.545532,478
819.664124,501
819.782715,483
819.901306,477
820.019897,476
820.138489,471
820.25708,478
820.375671,485
820.494202,489
820.612732,500
820.731384,502
820.849915,495
820.968506,507
821.087097,465
821.205627,438
821.324158,467
821.442749,466
821.561279,478
821.679871,488
821.798401,480
821.916931,481
822.035461,476
822.154053,488
822.272583,463
822.391174,493
822.509583,466
822.628174,500
822.746704,466
822.865234,477
822.983765,477
823.102295,511
823.220825,468
823.339294,457
823.457825,484
823.576355,487
823.694824,494
823.813354,474
823.931885,471
824.050354,490
824.168884,451
824.287354,480
824.405823,478
824.524353,474
824.642822,456
824.761353,469
824.879822,494
824.998291,472
825.116699,474
825.235291,466
825.353699,481
825.472168,479
825.590637,464
825.709106,480
825.827576,467
825.946045,479
826.064453,479
826.182983,464
826.301392,463
826.4198,472
826.53833,469
826.656738,467
826.775208,479
826.893677,453
827.012024,465
827.130493,463
827.248962,461
827.36731,471
827.485779,467
827.604248,478
827.722595,469
827.841064,467
827.959412,474
828.077942,468
828.196289,457
828.314636,470
828.433105,448
828.551514,462
828.669861,478
828.78833,456
828.906677,467
829.025085,489
829.143433,472
829.261841,446
829.38031,469
829.498657,467
829.617004,467
829.735413,483
829.85376,480
829.972107,458
830.090515,467
830.208862,459
830.327209,452
830.445557,463
830.563904,449
830.682312,489
830.800659,454
830.919006,460
831.037354,460
831.155701,471
831.274048,472
831.392395,483
831.51062,473
831.629028,464
831.747314,468
831.865662,478
831.984009,470
832.102356,476
832.220642,474
832.338928,459
832.457275,475
832.575623,490
832.693909,471
832.812134,484
832.930481,459
833.048828,486
833.167114,463
833.2854,472
833.403687,478
833.521973,462
833.640259,464
833.758545,459
833.876831,464
833.995056,459
834.113281,477
834.231628,486
834.349915,470
834.468201,475
834.586426,458
834.704651,469
834.822998,454
834.941162,477
835.059448,460
835.177673,462
835.295959,466
835.414246,462
835.53241,449
835.650635,468
835.768921,448
835.887146,448
836.005371,472
836.123596,471
836.241821,467
836.360046,461
836.478271,458
836.596497,472
836.714722,462
836.832886,476
836.95105,474
837.069336,477
837.1875,441
837.305725,477
837.423889,479
837.542053,459
837.660339,477
837.778503,479
837.896667,446
838.014832,471
838.132996,473
838.25116,480
838.369385,477
838.487488,452
838.605713,472
838.723877,482
838.84198,480
838.960205,481
839.078308,453
839.196472,477
839.314636,465
839.4328,492
839.550964,465
839.669067,464
839.787231,476
839.905396,486
840.023499,472
840.141602,471
840.259766,475
840.377869,488
840.495972,482
840.614136,475
840.732239,477
840.850342,488
840.968445,483
841.086548,495
841.204651,496
841.322754,480
841.440918,469
841.55896,494
841.677002,511
841.795166,484
841.913208,475
842.031311,483
842.149353,511
842.267456,500
842.385498,466
842.503601,485
842.621643,482
842.739746,502
842.857788,471
842.97583,472
843.093933,491
843.211975,482
843.330017,498
843.44812,480
843.566101,483
843.684204,495
843.802246,473
843.920227,507
844.038269,492
844.156311,496
844.274292,478
844.392395,489
844.510376,475
844.628357,487
844.74646,468
844.864441,462
844.982422,462
845.100403,471
845.218384,486
845.336426,473
845.454468,479
845.572449,481
845.69043,459
845.808411,486
845.926453,472
846.044373,468
846.162354,472
846.280396,484
846.398315,487
846.516296,467
846.634216,495
846.752197,472
846.870178,468
846.988098,476
847.106079,480
847.22406,477
847.34198,473
847.4599,472
847.577881,458
847.695801,472
847.813782,486
847.931641,469
848.049561,449
848.167603,467
848.285461,448
848.403381,477
848.521362,479
848.639221,486
848.75708,466
848.875,502
848.99292,483
849.110901,476
849.22876,473
849.34668,478
849.464539,488
849.582458,463
849.700317,462
849.818176,491
849.936096,453
850.053955,479
850.171875,455
850.289673,478
850.407593,486
850.525452,477
850.643311,479
850.761169,486
850.878967,489
850.996887,474
851.114746,466
851.232544,471
851.350403,465
851.468262,472
851.58606,482
851.703979,488
851.821777,461
851.939636,477
852.057434,478
852.175232,485
852.293091,485
852.410889,481
852.528687,484
852.646545,486
852.764343,505
852.88208,481
852.999939,490
853.117676,496
853.235535,469
853.353271,511
853.471069,495
853.588928,483
853.706604,477
853.824402,472
853.9422,476
854.059998,487
854.177734,469
854.295532,493
854.413269,454
854.531006,478
854.648804,467
854.766541,505
854.884277,489
855.002014,466
855.119751,487
855.237549,472
855.355225,470
855.473022,478
855.590698,478
855.708435,488
855.826172,479
855.943848,496
856.061646,475
856.179321,476
856.296997,477
856.414795,483
856.53241,479
856.650085,487
856.767822,498
856.885559,500
857.003174,482
857.120911,489
857.238586,495
857.356201,482
857.473938,504
857.591614,485
857.709351,474
857.826965,471
857.944641,473
858.062317,487
858.179993,496
858.297668,491
858.415283,484
858.532959,481
858.650574,493
858.768188,498
858.885803,483
859.003479,487
859.121094,482
859.23877,488
859.356384,468
859.473999,469
859.591675,477
859.709229,470
859.826843,490
859.944458,486
860.062012,458
860.179626,505
860.297302,458
860.414856,466
860.532471,480
860.650024,470
860.767639,480
860.885193,480
861.002808,474
861.120361,476
861.237976,495
861.35553,463
861.473022,479
861.590698,502
861.708191,472
861.825745,497
861.943298,474
862.060852,489
862.178406,480
862.295959,502
862.413513,448
862.531006,484
862.64856,468
862.766113,470
862.883667,462
863.00116,469
863.118713,454
863.236206,477
863.353699,457
863.471252,490
863.588745,473
863.706177,470
863.82373,462
863.941162,458
864.058716,474
864.176208,497
864.29364,485
864.411194,469
864.528687,454
864.646118,470
864.763611,458
864.881042,446
864.998535,467
865.116028,490
865.233459,482
865.350891,473
865.468384,469
865.585754,472
865.703308,479
865.820679,457
865.938171,471
866.055542,454
866.173035,443
866.290466,470
866.407837,472
866.52533,480
866.6427,480
866.760071,472
866.877563,464
866.994934,480
867.112305,471
867.229736,454
867.347107,472
867.464539,493
867.58197,470
867.699341,467
867.81665,490
867.934082,464
868.051453,486
868.168823,470
868.286194,457
868.403564,475
868.520935,477
868.638306,478
868.755676,465
868.872986,480
868.990295,492
869.107727,471
869.225037,477
869.342346,481
869.459717,475
869.577026,465
869.694336,500
869.811707,488
869.929016,464
870.046326,493
870.163635,469
870.280945,484
870.398254,472
870.515564,477
870.632812,497
870.750183,480
870.867432,492
870.984741,484
871.102051,501
871.219299,480
871.336609,475
871.453918,491
871.571106,492
871.688416,508
871.805664,473
871.922852,512
872.040222,477
872.157471,511
872.274719,502
872.391968,492
872.509155,496
872.626465,503
872.743652,517
872.860962,509
872.978149,471
873.095337,480
873.212646,496
873.329834,496
873.44696,467
873.564209,499
873.681396,502
873.798645,509
873.915894,490
874.03302,486
874.150208,501
874.267456,496
874.384583,489
874.501831,483
874.618958,501
874.736145,505
874.853333,515
874.970459,510
875.087646,506
875.204834,498
875.32196,499
875.439148,490
875.556274,483
875.673401,481
875.790527,474
875.907715,490
876.024841,488
876.141968,485
876.259094,469
876.376282,496
876.493347,477
876.610474,487
876.7276,477
876.844727,475
876.961853,471
877.078918,469
877.195984,476
877.313171,454
877.430237,476
877.547302,492
877.664368,460
877.781433,486
877.898499,479
878.015625,476
878.13269,462
878.249695,465
878.366821,482
878.483887,473
878.600952,462
878.717957,491
878.834961,464
878.952087,477
879.069092,482
879.186157,465
879.303162,471
879.420227,465
879.537231,472
879.654236,460
879.77124,465
879.888306,467
880.005249,450
880.122314,478
880.239319,453
880.356323,469
880.473328,431
880.590271,480
880.707275,472
880.824341,465
880.941284,456
881.058228,471
881.175232,476
881.292236,457
881.40918,441
881.526123,453
881.643066,462
881.760071,466
881.877014,470
881.993958,465
882.11084,460
882.227783,480
882.344727,465
882.46167,463
882.578613,436
882.695618,479
882.812439,453
882.929382,456
883.046326,458
883.163208,470
883.280151,465
883.397034,486
883.513916,444
883.630798,466
883.747742,465
883.864563,489
883.981506,461
884.098389,475
884.21521,483
884.332153,485
884.448975,478
884.565796,496
884.682678,467
884.7995,518
884.916443,495
885.033264,540
885.150085,542
885.266968,524
885.383789,527
885.500671,539
885.617493,546
885.734314,541
885.851196,534
885.967896,526
886.084717,534
886.201599,545
886.318359,529
886.435181,513
886.552002,532
886.668762,514
886.785645,502
886.902344,538
887.019165,493
887.135925,504
887.252747,489
887.369446,487
887.486267,505
887.603027,501
887.719788,494
887.836548,489
887.953247,494
888.070068,489
888.186829,482
888.303528,469
888.420288,468
888.536987,473
888.653687,479
888.770447,461
888.887146,456
889.003967,441
889.120667,473
889.237305,460
889.354065,443
889.470703,460
889.587463,452
889.704163,468
889.820862,453
889.937561,463
890.054199,450
890.170837,449
890.287598,468
890.404236,473
890.520874,465
890.637634,466
890.754211,457
890.87085,467
890.987549,444
891.104187,447
891.220886,450
891.337463,474
891.454102,461
891.57074,473
891.687378,474
891.804077,456
891.920654,458
892.037231,469
892.15387,464
892.270447,470
892.387085,482
892.503723,447
892.6203,466
892.736877,482
892.853516,444
892.970032,461
893.08667,469
893.203186,459
893.319763,475
893.43634,461
893.552917,453
893.669556,481
893.786011,461
893.902588,473
894.019165,452
894.135681,477
894.252197,458
894.368835,448
894.485291,470
894.601868,463
894.718384,461
894.8349,473
894.951355,456
895.067932,464
895.184448,466
895.300964,454
895.417419,450
895.533936,456
895.650452,435
895.766907,468
895.883423,442
895.999878,461
896.116333,475
896.232849,463
896.349304,452
896.465759,450
896.582214,451
896.698669,462
896.815125,455
896.931641,452
897.048035,443
897.164551,475
897.280884,470
897.397339,481
897.513794,461
897.630249,450
897.746582,448
897.863098,471
897.979431,466
898.095886,462
898.212341,455
898.328674,462
898.445129,469
898.561462,446
898.677795,448
898.794312,458
898.910645,460
899.026978,448
899.143433,477
899.259766,464
899.37616,448
899.492493,483
899.608765,470
899.725159,475
899.841553,484
899.957947,456
900.07428,453
900.190552,451
900.306946,466
900.423157,472
900.53949,467
900.655884,456
900.772156,472
900.888489,476
901.004822,472
901.121033,479
901.237366,460
901.353699,470
901.46991,459
901.586304,471
901.702515,464
901.818787,489
901.93512,483
902.051331,469
902.167603,485
902.283875,484
902.400085,491
902.516418,518
902.632629,487
902.74884,518
902.865112,500
902.981384,514
903.097595,499
903.213867,494
903.330017,496
903.446289,486
903.5625,476
903.67865,482
903.794922,487
903.911072,486
904.027344,477
904.143494,490
904.259705,475
904.375916,484
904.492065,482
904.608215,488
904.724426,468
904.840576,488
904.956726,474
905.072876,485
905.189087,467
905.305176,481
905.421387,462
905.537537,469
905.653687,448
905.769775,452
905.885925,483
906.002014,464
906.118164,456
906.234314,451
906.350403,462
906.466492,455
906.582642,462
906.69873,459
906.814758,467
906.930908,474
907.046936,446
907.163086,478
907.279175,452
907.395264,464
907.511353,456
907.62738,455
907.743408,454
907.859497,469
907.975525,462
908.091553,472
908.207703,452
908.32373,472
908.439758,459
908.555786,454
908.671814,468
908.787842,462
908.90387,474
909.019775,457
909.135864,451
909.251892,477
909.367859,452
909.483826,482
909.599854,447
909.715881,463
909.831848,455
909.947815,457
910.063782,445
910.179749,471
910.295776,449
910.411743,479
910.527649,446
910.643616,473
910.759583,459
910.875488,475
910.991455,455
911.107361,469
911.223267,460
911.339294,466
911.4552,450
911.571106,451
911.687073,454
911.802979,473
911.918823,431
912.034729,465
912.150635,481
912.266602,454
912.382446,446
912.498352,455
912.614197,466
912.730103,477
912.846008,463
792.44574,825
792.56488,836
792.68396,855
792.80304,837
792.92218,788
793.041199,755
793.160339,771
793.279419,744
793.398499,759
793.517578,712
793.636658,725
793.755737,700
793.874817,724
793.993896,700
794.112976,706
794.232056,673
794.351074,711
794.470215,695
794.589233,683
794.708313,649
794.827393,640
794.946411,657
795.065552,676
795.18457,659
795.303589,644
795.422668,614
795.541687,637
795.660767,634
795.779846,623
795.898865,628
796.017883,567
796.136963,612
796.255981,622
796.375061,597
796.49408,624
796.613037,603
796.732117,593
796.851135,589
796.970154,606
797.089233,581
797.208191,570
797.327271,597
797.446228,574
797.565186,590
797.684265,591
797.803223,589
797.922241,577
798.04126,580
798.160278,572
798.279297,593
798.398315,586
798.517273,586
798.636292,576
798.75531,560
798.874268,579
798.993286,564
799.112244,583
799.231323,579
799.350281,557
799.469238,580
799.588257,574
799.707153,561
799.826111,563
799.945129,554
800.064087,569
800.183044,567
800.302063,569
800.421021,555
800.539978,582
800.658936,572
800.777893,578
800.896912,585
801.015747,558
801.134705,556
801.253723,558
801.37262,552
801.491638,556
801.610535,547
801.729492,546
801.84845,541
801.967407,552
802.086243,571
802.205261,555
802.324158,592
802.443115,566
802.562073,559
802.680969,567
802.799927,543
802.918762,550
803.037659,541
803.156677,543
803.275574,565
803.39447,534
803.513428,522
803.632263,561
803.751221,534
803.870117,556
803.989014,539
804.107971,532
804.226746,553
804.345642,554
804.4646,541
804.583496,532
804.702393,542
804.821228,547
804.940125,551
805.059021,528
805.177917,539
805.296814,527
805.415649,544
805.534546,539
805.653442,527
805.772278,537
805.891113,544
806.01001,534
806.128906,525
806.247742,545
806.366577,530
806.485413,533
806.604309,571
806.723145,564
806.84198,533
806.960876,528
807.079712,531
807.198486,548
807.317383,540
807.436218,533
807.554993,539
807.673889,562
807.792725,535
807.91156,551
808.030396,526
808.14917,534
808.268005,544
808.386841,542
808.505676,547
808.624451,530
808.743286,516
808.862122,535
808.980896,560
809.099731,526
809.218506,534
809.337341,550
809.456116,545
809.57489,523
809.693726,522
809.8125,532
809.931274,528
810.050049,548
810.168884,541
810.287659,533
810.406372,523
810.525269,550
810.643982,512
810.762756,537
810.881531,524
811.000305,528
811.11908,536
811.237854,555
811.356567,530
811.475403,547
811.594116,527
811.71283,557
811.831604,545
811.950378,547
812.069153,547
812.187927,552
812.30658,539
812.425415,549
812.544128,532
812.662781,532
812.781616,534
812.900269,524
813.019043,511
813.137756,519
813.256531,528
813.375244,526
813.493896,524
813.612671,547
813.731384,541
813.850037,536
813.96875,545
814.087524,518
814.206238,495
814.324951,539
814.443604,538
814.562256,523
814.68103,530
814.799683,554
814.918335,513
815.037109,538
815.155762,539
815.274475,525
815.393188,553
815.511841,518
815.630554,525
815.749146,530
815.867859,532
815.986572,527
816.105164,522
816.223877,529
816.342529,505
816.461182,526
816.579895,519
816.698486,539
816.817139,507
816.935791,555
817.054504,512
817.173096,545
817.291748,533
817.4104,528
817.529053,526
817.647644,497
817.766235,514
817.884949,528
818.00354,515
818.122192,519
818.240845,506
818.359436,504
818.478088,505
818.59668,503
818.715271,512
818.833923,494
818.952515,484
819.071106,485
819.189758,460
819.30835,487
819.426941,463
819.545532,495
819.664124,505
819.782715,513
819.901306,471
820.019897,474
820.138489,471
820.25708,492
820.375671,483
820.494202,485
820.612732,469
820.731384,498
820.849915,462
820.968506,484
821.087097,462
821.205627,492
821.324158,460
821.442749,482
821.561279,451
821.679871,482
821.798401,484
821.916931,488
822.035461,481
822.154053,462
822.272583,482
822.391174,478
822.509583,489
822.628174,485
822.746704,485
822.865234,491
822.983765,466
823.102295,485
823.220825,465
823.339294,469
823.457825,481
823.576355,488
823.694824,471
823.813354,480
823.931885,469
824.050354,469
824.168884,478
824.287354,492
824.405823,476
824.524353,499
824.642822,461
824.761353,492
824.879822,458
824.998291,486
825.116699,469
825.235291,487
825.353699,461
825.472168,494
825.590637,477
825.709106,486
825.827576,470
825.946045,486
826.064453,475
826.182983,458
826.301392,477
826.4198,464
826.53833,477
826.656738,484
826.775208,469
826.893677,457
827.012024,475
827.130493,456
827.248962,445
827.36731,471
827.485779,464
827.604248,470
827.722595,468
827.841064,464
827.959412,459
828.077942,440
828.196289,459
828.314636,477
828.433105,465
828.551514,469
828.669861,452
828.78833,473
828.906677,459
829.025085,471
829.143433,438
829.261841,471
829.38031,457
829.498657,472
829.617004,486
829.735413,470
829.85376,457
829.972107,461
830.090515,458
830.208862,453
830.327209,452
830.445557,450
830.563904,469
830.682312,444
830.800659,474
830.919006,454
831.037354,464
831.155701,475
831.274048,474
831.392395,462
831.51062,472
831.629028,470
831.747314,475
831.865662,471
831.984009,448
832.102356,491
832.220642,467
832.338928,482
832.457275,484
832.575623,469
832.693909,454
832.812134,474
832.930481,462
833.048828,469
833.167114,462
833.2854,451
833.403687,444
833.521973,479
833.640259,459
833.758545,468
833.876831,471
833.995056,470
834.113281,482
834.231628,478
834.349915,471
834.468201,470
834.586426,472
834.704651,471
834.822998,450
834.941162,480
835.059448,458
835.177673,469
835.295959,459
835.414246,474
835.53241,471
835.650635,463
835.768921,482
835.887146,467
836.005371,465
836.123596,485
836.241821,490
836.360046,473
836.478271,467
836.596497,462
836.714722,450
836.832886,477
836.95105,461
837.069336,468
837.1875,473
837.305725,457
837.423889,438
837.542053,467
837.660339,471
837.778503,473
837.896667,467
838.014832,476
838.132996,464
838.25116,450
838.369385,468
838.487488,481
838.605713,472
838.723877,480
838.84198,470
838.960205,458
839.078308,478
839.196472,460
839.314636,475
839.4328,468
839.550964,466
839.669067,452
839.787231,477
839.905396,501
840.023499,499
840.141602,477
840.259766,463
840.377869,491
840.495972,497
840.614136,477
840.732239,459
840.850342,475
840.968445,482
841.086548,484
841.204651,493
841.322754,477
841.440918,468
841.55896,489
841.677002,483
841.795166,498
841.913208,479
842.031311,493
842.149353,465
842.267456,478
842.385498,497
842.503601,477
842.621643,461
842.739746,484
842.857788,477
842.97583,494
843.093933,474
843.211975,492
843.330017,487
843.44812,505
843.566101,480
843.684204,480
843.802246,472
843.920227,492
844.038269,465
844.156311,501
844.274292,471
844.392395,489
844.510376,456
844.628357,500
844.74646,499
844.864441,488
844.982422,477
845.100403,466
845.218384,466
845.336426,479
845.454468,466
845.572449,479
845.69043,472
845.808411,469
845.926453,481
846.044373,464
846.162354,477
846.280396,483
846.398315,456
846.516296,477
846.634216,459
846.752197,486
846.870178,479
846.988098,477
847.106079,487
847.22406,487
847.34198,492
847.4599,471
847.577881,469
847.695801,482
847.813782,482
847.931641,472
848.049561,466
848.167603,480
848.285461,467
848.403381,469
848.521362,471
848.639221,493
848.75708,482
848.875,477
848.99292,450
849.110901,499
849.22876,477
849.34668,485
849.464539,460
849.582458,483
849.700317,462
849.818176,476
849.936096,460
850.053955,495
850.171875,481
850.289673,472
850.407593,481
850.525452,482
850.643311,496
850.761169,486
850.878967,490
850.996887,474
851.114746,455
851.232544,489
851.350403,467
851.468262,488
851.58606,449
851.703979,472
851.821777,473
851.939636,468
852.057434,456
852.175232,472
852.293091,477
852.410889,492
852.528687,499
852.646545,486
852.764343,492
852.88208,494
852.999939,489
853.117676,502
853.235535,475
853.353271,484
853.471069,494
853.588928,488
853.706604,490
853.824402,481
853.9422,474
854.059998,461
854.177734,490
854.295532,479
854.413269,479
854.531006,488
854.648804,469
854.766541,505
854.884277,484
855.002014,478
855.119751,479
855.237549,498
855.355225,469
855.473022,478
855.590698,459
855.708435,483
855.826172,469
855.943848,487
856.061646,470
856.179321,473
856.296997,486
856.414795,494
856.53241,481
856.650085,485
856.767822,468
856.885559,489
857.003174,498
857.120911,491
857.238586,471
857.356201,508
857.473938,473
857.591614,483
857.709351,472
857.826965,494
857.944641,506
858.062317,500
858.179993,497
858.297668,484
858.415283,479
858.532959,515
858.650574,477
858.768188,512
858.885803,497
859.003479,511
859.121094,494
859.23877,467
859.356384,486
859.473999,478
859.591675,482
859.709229,480
859.826843,498
859.944458,489
860.062012,474
860.179626,481
860.297302,466
860.414856,468
860.532471,471
860.650024,485
860.767639,473
860.885193,473
861.002808,466
861.120361,485
861.237976,475
861.35553,478
861.473022,490
861.590698,491
861.708191,463
861.825745,469
861.943298,451
862.060852,463
862.178406,492
862.295959,467
862.413513,491
862.531006,472
862.64856,466
862.766113,479
862.883667,480
863.00116,477
863.118713,479
863.236206,479
863.353699,466
863.471252,501
863.588745,456
863.706177,462
863.82373,470
863.941162,488
864.058716,472
864.176208,464
864.29364,473
864.411194,471
864.528687,466
864.646118,476
864.763611,435
864.881042,451
864.998535,460
865.116028,471
865.233459,454
865.350891,482
865.468384,478
865.585754,476
865.703308,473
865.820679,476
865.938171,490
866.055542,471
866.173035,466
866.290466,472
866.407837,471
866.52533,456
866.6427,466
866.760071,465
866.877563,494
866.994934,486
867.112305,489
867.229736,481
867.347107,479
867.464539,478
867.58197,463
867.699341,464
867.81665,467
867.934082,472
868.051453,449
868.168823,476
868.286194,471
868.403564,481
868.520935,483
868.638306,490
868.755676,464
868.872986,490
868.990295,462
869.107727,473
869.225037,485
869.342346,477
869.459717,473
869.577026,489
869.694336,484
869.811707,487
869.929016,449
870.046326,487
870.163635,478
870.280945,505
870.398254,494
870.515564,495
870.632812,482
870.750183,489
870.867432,485
870.984741,484
871.102051,472
871.219299,495
871.336609,489
871.453918,498
871.571106,491
871.688416,507
871.805664,493
871.922852,491
872.040222,515
872.157471,488
872.274719,487
872.391968,487
872.509155,484
872.626465,490
872.743652,496
872.860962,507
872.978149,482
873.095337,480
873.212646,475
873.329834,486
873.44696,498
873.564209,506
873.681396,485
873.798645,509
873.915894,472
874.03302,475
874.150208,495
874.267456,512
874.384583,501
874.501831,500
874.618958,486
874.736145,519
874.853333,510
874.970459,522
875.087646,499
875.204834,526
875.32196,495
875.439148,504
875.556274,504
875.673401,508
875.790527,475
875.907715,500
876.024841,474
876.141968,478
876.259094,483
876.376282,490
876.493347,474
876.610474,501
876.7276,474
876.844727,480
876.961853,462
877.078918,489
877.195984,468
877.313171,470
877.430237,481
877.547302,492
877.664368,488
877.781433,481
877.898499,476
878.015625,475
878.13269,474
878.249695,479
878.366821,503
878.483887,474
878.600952,463
878.717957,475
878.834961,468
878.952087,483
879.069092,464
879.186157,481
879.303162,460
879.420227,484
879.537231,456
879.654236,470
879.77124,478
879.888306,476
880.005249,475
880.122314,476
880.239319,465
880.356323,460
880.473328,464
880.590271,465
880.707275,446
880.824341,472
880.941284,463
881.058228,475
881.175232,465
881.292236,477
881.40918,454
881.526123,454
881.643066,457
881.760071,465
881.877014,447
881.993958,457
882.11084,449
882.227783,474
882.344727,475
882.46167,447
882.578613,482
882.695618,467
882.812439,464
882.929382,462
883.046326,434
883.163208,481
883.280151,464
883.397034,473
883.513916,465
883.630798,467
883.747742,461
883.864563,496
883.981506,470
884.098389,481
884.21521,467
884.332153,458
884.448975,468
884.565796,496
884.682678,498
884.7995,515
884.916443,494
885.033264,532
885.150085,521
885.266968,550
885.383789,521
885.500671,535
885.617493,545
885.734314,541
885.851196,550
885.967896,534
886.084717,527
886.201599,516
886.318359,513
886.435181,558
886.552002,527
886.668762,553
886.785645,521
886.902344,505
887.019165,495
887.135925,528
887.252747,511
887.369446,511
887.486267,510
887.603027,507
887.719788,491
887.836548,502
887.953247,487
888.070068,480
888.186829,481
888.303528,489
888.420288,457
888.536987,472
888.653687,464
888.770447,476
888.887146,463
889.003967,447
889.120667,464
889.237305,466
889.354065,468
889.470703,454
889.587463,450
889.704163,462
889.820862,465
889.937561,464
890.054199,455
890.170837,459
890.287598,437
890.404236,475
890.520874,477
890.637634,450
890.754211,484
890.87085,478
890.987549,452
891.104187,463
891.220886,464
891.337463,472
891.454102,462
891.57074,462
891.687378,467
891.804077,470
891.920654,460
892.037231,458
892.15387,471
892.270447,457
892.387085,474
892.503723,460
892.6203,451
892.736877,475
892.853516,481
892.970032,462
893.08667,450
893.203186,474
893.319763,462
893.43634,483
893.552917,463
893.669556,451
893.786011,463
893.902588,474
894.019165,466
894.135681,459
894.252197,462
894.368835,471
894.485291,455
894.601868,473
894.718384,472
894.8349,464
894.951355,455
895.067932,471
895.184448,436
895.300964,458
895.417419,458
895.533936,459
895.650452,466
895.766907,462
895.883423,455
895.999878,456
896.116333,445
896.232849,464
896.349304,441
896.465759,456
896.582214,440
896.698669,444
896.815125,461
896.931641,466
897.048035,460
897.164551,485
897.280884,473
897.397339,477
897.513794,457
897.630249,472
897.746582,449
897.863098,450
897.979431,459
898.095886,475
898.212341,450
898.328674,462
898.445129,477
898.561462,476
898.677795,459
898.794312,475
898.910645,451
899.026978,470
899.143433,454
899.259766,445
899.37616,463
899.492493,477
899.608765,452
899.725159,466
899.841553,463
899.957947,483
900.07428,458
900.190552,457
900.306946,494
900.423157,479
900.53949,443
900.655884,474
900.772156,454
900.888489,468
901.004822,462
901.121033,452
901.237366,456
901.353699,490
901.46991,463
901.586304,449
901.702515,457
901.818787,494
901.93512,482
902.051331,486
902.167603,483
902.283875,478
902.400085,495
902.516418,498
902.632629,483
902.74884,492
902.865112,479
902.981384,507
903.097595,490
903.213867,477
903.330017,499
903.446289,494
903.5625,491
903.67865,478
903.794922,464
903.911072,491
904.027344,464
904.143494,484
904.259705,478
904.375916,462
904.492065,477
904.608215,490
904.724426,477
904.840576,481
904.956726,481
905.072876,476
905.189087,472
905.305176,477
905.421387,458
905.537537,457
905.653687,457
905.769775,457
905.885925,466
906.002014,479
906.118164,481
906.234314,460
906.350403,478
906.466492,460
906.582642,441
906.69873,474
906.814758,466
906.930908,468
907.046936,464
907.163086,455
907.279175,441
907.395264,472
907.511353,456
907.62738,466
907.743408,453
907.859497,470
907.975525,467
908.091553,461
908.207703,453
908.32373,473
908.439758,459
908.555786,494
908.671814,469
908.787842,474
908.90387,453
909.019775,459
909.135864,452
909.251892,470
909.367859,482
909.483826,483
909.599854,466
909.715881,460
909.831848,483
909.947815,472
910.063782,455
910.179749,469
910.295776,454
910.411743,478
910.527649,468
910.643616,486
910.759583,457
910.875488,468
910.991455,472
911.107361,464
911.223267,466
911.339294,471
911.4552,448
911.571106,471
911.687073,482
911.802979,459
911.918823,457
912.034729,463
912.150635,466
912.266602,480
912.382446,457
912.498352,447
912.614197,468
912.730103,454
912.846008,467
792.44574,827
792.56488,845
792.68396,871
792.80304,850
792.92218,799
793.041199,768
793.160339,736
793.279419,748
793.398499,737
793.517578,718
793.636658,706
793.755737,734
793.874817,721
793.993896,702
794.112976,710
794.232056,654
794.351074,671
794.470215,650
794.589233,687
794.708313,679
794.827393,634
794.946411,641
795.065552,670
795.18457,644
795.303589,612
795.422668,632
795.541687,633
795.660767,634
795.779846,628
795.898865,611
796.017883,617
796.136963,608
796.255981,628
796.375061,628
796.49408,619
796.613037,615
796.732117,601
796.851135,615
796.970154,577
797.089233,585
797.208191,601
797.327271,567
797.446228,590
797.565186,586
797.684265,608
797.803223,585
797.922241,584
798.04126,580
798.160278,576
798.279297,584
798.398315,557
798.517273,588
798.636292,584
798.75531,575
798.874268,583
798.993286,595
799.112244,580
799.231323,568
799.350281,570
799.469238,582
799.588257,574
799.707153,560
799.826111,586
799.945129,564
800.064087,572
800.183044,585
800.302063,568
800.421021,565
800.539978,579
800.658936,573
800.777893,578
800.896912,545
801.015747,559
801.134705,553
801.253723,531
801.37262,576
801.491638,527
801.610535,573
801.729492,557
801.84845,554
801.967407,571
802.086243,567
802.205261,534
802.324158,553
802.443115,557
802.562073,541
802.680969,558
802.799927,568
802.918762,562
803.037659,559
803.156677,555
803.275574,545
803.39447,554
803.513428,545
803.632263,534
803.751221,535
803.870117,559
803.989014,564
804.107971,530
804.226746,528
804.345642,559
804.4646,520
804.583496,521
804.702393,543
804.821228,552
804.940125,527
805.059021,540
805.177917,542
805.296814,540
805.415649,537
805.534546,533
805.653442,553
805.772278,539
805.891113,511
806.01001,561
806.128906,557
806.247742,555
806.366577,535
806.485413,537
806.604309,512
806.723145,553
806.84198,538
806.960876,540
807.079712,536
807.198486,544
807.317383,515
807.436218,529
807.554993,540
807.673889,545
807.792725,539
807.91156,517
808.030396,548
808.14917,547
808.268005,553
808.386841,531
808.505676,527
808.624451,537
808.743286,518
808.862122,520
808.980896,552
809.099731,520
809.218506,531
809.337341,553
809.456116,538
809.57489,550
809.693726,521
809.8125,550
809.931274,526
810.050049,544
810.168884,548
810.287659,533
810.406372,518
810.525269,547
810.643982,534
810.762756,529
810.881531,536
811.000305,554
811.11908,545
811.237854,529
811.356567,542
811.475403,533
811.594116,550
811.71283,529
811.831604,540
811.950378,537
812.069153,538
812.187927,554
812.30658,541
812.425415,524
812.544128,544
812.662781,551
812.781616,545
812.900269,541
813.019043,551
813.137756,535
813.256531,561
813.375244,555
813.493896,541
813.612671,522
813.731384,523
813.850037,539
813.96875,516
814.087524,532
814.206238,524
814.324951,502
814.443604,523
814.562256,516
814.68103,528
814.799683,526
814.918335,506
815.037109,546
815.155762,544
815.274475,538
815.393188,562
815.511841,519
815.630554,514
815.749146,530
815.867859,541
815.986572,536
816.105164,522
816.223877,520
816.342529,552
816.461182,539
816.579895,528
816.698486,552
816.817139,516
816.935791,531
817.054504,532
817.173096,531
817.291748,530
817.4104,545
817.529053,538
817.647644,515
817.766235,491
817.884949,517
818.00354,503
818.122192,521
818.240845,506
818.359436,502
818.478088,504
818.59668,480
818.715271,504
818.833923,522
818.952515,503
819.071106,489
819.189758,502
819.30835,478
819.426941,498
819.545532,507
819.664124,482
819.782715,506
819.901306,476
820.019897,486
820.138489,500
820.25708,485
820.375671,492
820.494202,502
820.612732,476
820.731384,493
820.849915,466
820.968506,485
821.087097,471
821.205627,518
821.324158,483
821.442749,455
821.561279,476
821.679871,483
821.798401,481
821.916931,480
822.035461,479
822.154053,500
822.272583,481
822.391174,486
822.509583,467
822.628174,480
822.746704,493
822.865234,474
822.983765,486
823.102295,477
823.220825,482
823.339294,479
823.457825,470
823.576355,479
823.694824,482
823.813354,478
823.931885,450
824.050354,489
824.168884,468
824.287354,483
824.405823,487
824.524353,458
824.642822,482
824.761353,498
824.879822,495
824.998291,496
825.116699,484
825.235291,487
825.353699,475
825.472168,485
825.590637,460
825.709106,474
825.827576,469
825.946045,464
826.064453,470
826.182983,487
826.301392,463
826.4198,472
826.53833,456
826.656738,473
826.775208,481
826.893677,473
827.012024,456
827.130493,476
827.248962,469
827.36731,485
827.485779,477
827.604248,468
827.722595,486
827.841064,493
827.959412,446
828.077942,474
828.196289,474
828.314636,473
828.433105,453
828.551514,474
828.669861,455
828.78833,450
828.906677,471
829.025085,460
829.143433,482
829.261841,468
829.38031,467
829.498657,460
829.617004,469
829.735413,463
829.85376,453
829.972107,460
830.090515,466
830.208862,452
830.327209,467
830.445557,457
830.563904,459
830.682312,480
830.800659,472
830.919006,469
831.037354,462
831.155701,480
831.274048,452
831.392395,453
831.51062,471
831.629028,480
831.747314,469
831.865662,473
831.984009,473
832.102356,468
832.220642,456
832.338928,472
832.457275,455
832.575623,492
832.693909,470
832.812134,470
832.930481,466
833.048828,463
833.167114,475
833.2854,475
833.403687,473
833.521973,476
833.640259,466
833.758545,463
833.876831,469
833.995056,468
834.113281,459
834.231628,477
834.349915,463
834.468201,465
834.586426,495
834.704651,473
834.822998,454
834.941162,463
835.059448,474
835.177673,462
835.295959,448
835.414246,468
835.53241,457
835.650635,460
835.768921,490
835.887146,459
836.005371,464
836.123596,469
836.241821,463
836.360046,444
836.478271,466
836.596497,471
836.714722,476
836.832886,469
836.95105,454
837.069336,486
837.1875,473
837.305725,480
837.423889,442
837.542053,468
837.660339,475
837.778503,474
837.896667,456
838.014832,500
838.132996,447
838.25116,479
838.369385,471
838.487488,467
838.605713,469
838.723877,491
838.84198,471
838.960205,482
839.078308,466
839.196472,475
839.314636,481
839.4328,492
839.550964,463
839.669067,492
839.787231,472
839.905396,487
840.023499,466
840.141602,489
840.259766,491
840.377869,486
840.495972,497
840.614136,500
840.732239,478
840.850342,508
840.968445,492
841.086548,475
841.204651,465
841.322754,503
841.440918,490
841.55896,473
841.677002,485
841.795166,494
841.913208,472
842.031311,510
842.149353,491
842.267456,487
842.385498,484
842.503601,485
842.621643,488
842.739746,490
842.857788,485
842.97583,492
843.093933,487
843.211975,491
843.330017,467
843.44812,494
843.566101,482
843.684204,490
843.802246,480
843.920227,479
844.038269,486
844.156311,483
844.274292,485
844.392395,485
844.510376,496
844.628357,495
844.74646,471
844.864441,500
844.982422,446
845.100403,494
845.218384,479
845.336426,460
845.454468,472
845.572449,472
845.69043,459
845.808411,472
845.926453,481
846.044373,472
846.162354,452
846.280396,481
846.398315,481
846.516296,501
846.634216,465
846.752197,501
846.870178,488
846.988098,473
847.106079,481
847.22406,479
847.34198,487
847.4599,490
847.577881,489
847.695801,493
847.813782,472
847.931641,474
848.049561,463
848.167603,469
848.285461,488
848.403381,492
848.521362,489
848.639221,471
848.75708,473
848.875,467
848.99292,477
849.110901,475
849.22876,487
849.34668,486
849.464539,479
849.582458,480
849.700317,488
849.818176,463
849.936096,470
850.053955,481
850.171875,466
850.289673,468
850.407593,472
850.525452,494
850.643311,476
850.761169,468
850.878967,480
850.996887,480
851.114746,493
851.232544,489
851.350403,484
851.468262,478
851.58606,477
851.703979,498
851.821777,475
851.939636,463
852.057434,473
852.175232,480
852.293091,468
852.410889,503
852.528687,472
852.646545,492
852.764343,507
852.88208,483
852.999939,478
853.117676,496
853.235535,484
853.353271,468
853.471069,498
853.588928,485
853.706604,477
853.824402,489
853.9422,459
854.059998,475
854.177734,478
854.295532,487
854.413269,463
854.531006,486
854.648804,483
854.766541,462
854.884277,469
855.002014,500
855.119751,469
855.237549,494
855.355225,478
855.473022,481
855.590698,482
855.708435,478
855.826172,493
855.943848,492
856.061646,466
856.179321,490
856.296997,477
856.414795,496
856.53241,490
856.650085,469
856.767822,485
856.885559,505
857.003174,485
857.120911,488
857.238586,495
857.356201,497
857.473938,476
857.591614,512
857.709351,502
857.826965,480
857.944641,467
858.062317,490
858.179993,500
858.297668,486
858.415283,475
858.532959,500
858.650574,484
858.768188,517
858.885803,506
859.003479,498
859.121094,460
859.23877,491
859.356384,481
859.473999,486
859.591675,455
859.709229,477
859.826843,471
859.944458,480
860.062012,459
860.179626,488
860.297302,478
860.414856,467
860.532471,482
860.650024,479
860.767639,473
860.885193,483
861.002808,481
861.120361,477
861.237976,481
861.35553,466
861.473022,485
861.590698,493
861.708191,488
861.825745,481
861.943298,458
862.060852,492
862.178406,460
862.295959,471
862.413513,483
862.531006,473
862.64856,471
862.766113,476
862.883667,457
863.00116,470
863.118713,477
863.236206,473
863.353699,461
863.471252,458
863.588745,475
863.706177,484
863.82373,463
863.941162,487
864.058716,475
864.176208,464
864.29364,470
864.411194,462
864.528687,466
864.646118,482
864.763611,475
864.881042,472
864.998535,462
865.116028,462
865.233459,475
865.350891,485
865.468384,457
865.585754,490
865.703308,456
865.820679,469
865.938171,471
866.055542,474
866.173035,463
866.290466,471
866.407837,458
866.52533,484
866.6427,479
866.760071,459
866.877563,470
866.994934,468
867.112305,461
867.229736,504
867.347107,470
867.464539,485
867.58197,463
867.699341,472
867.81665,444
867.934082,474
868.051453,449
868.168823,492
868.286194,458
868.403564,485
868.520935,462
868.638306,471
868.755676,473
868.872986,481
868.990295,446
869.107727,479
869.225037,480
869.342346,476
869.459717,486
869.577026,479
869.694336,467
869.811707,479
869.929016,485
870.046326,489
870.163635,477
870.280945,491
870.398254,484
870.515564,500
870.632812,486
870.750183,497
870.867432,485
870.984741,488
871.102051,490
871.219299,504
871.336609,489
871.453918,504
871.571106,474
871.688416,484
871.805664,499
871.922852,493
872.040222,481
872.157471,505
872.274719,510
872.391968,508
872.509155,507
872.626465,505
872.743652,498
872.860962,514
872.978149,489
873.095337,487
873.212646,497
873.329834,487
873.44696,498
873.564209,488
873.681396,474
873.798645,486
873.915894,472
874.03302,499
874.150208,490
874.267456,506
874.384583,503
874.501831,499
874.618958,523
874.736145,511
874.853333,504
874.970459,521
875.087646,512
875.204834,509
875.32196,515
875.439148,490
875.556274,498
875.673401,487
875.790527,478
875.907715,498
876.024841,477
876.141968,482
876.259094,472
876.376282,502
876.493347,473
876.610474,520
876.7276,483
876.844727,484
876.961853,478
877.078918,498
877.195984,491
877.313171,506
877.430237,475
877.547302,477
877.664368,471
877.781433,491
877.898499,473
878.015625,480
878.13269,459
878.249695,487
878.366821,492
878.483887,466
878.600952,474
878.717957,477
878.834961,476
878.952087,481
879.069092,481
879.186157,458
879.303162,461
879.420227,488
879.537231,480
879.654236,470
879.77124,452
879.888306,472
880.005249,469
880.122314,468
880.239319,483
880.356323,469
880.473328,451
880.590271,465
880.707275,451
880.824341,471
880.941284,458
881.058228,484
881.175232,458
881.292236,473
881.40918,465
881.526123,465
881.643066,448
881.760071,465
881.877014,473
881.993958,470
882.11084,455
882.227783,489
882.344727,470
882.46167,487
882.578613,463
882.695618,448
882.812439,479
882.929382,462
883.046326,451
883.163208,477
883.280151,469
883.397034,465
883.513916,467
883.630798,478
883.747742,466
883.864563,462
883.981506,479
884.098389,460
884.21521,483
884.332153,478
884.448975,483
884.565796,490
884.682678,492
884.7995,522
884.916443,518
885.033264,504
885.150085,525
885.266968,542
885.383789,531
885.500671,558
885.617493,552
885.734314,547
885.851196,527
885.967896,545
886.084717,532
886.201599,532
886.318359,548
886.435181,523
886.552002,518
886.668762,517
886.785645,500
886.902344,528
887.019165,496
887.135925,519
887.252747,518
887.369446,515
887.486267,515
887.603027,505
887.719788,499
887.836548,503
887.953247,497
888.070068,461
888.186829,482
888.303528,486
888.420288,485
888.536987,473
888.653687,474
888.770447,482
888.887146,469
889.003967,484
889.120667,470
889.237305,455
889.354065,458
889.470703,475
889.587463,444
889.704163,465
889.820862,465
889.937561,464
890.054199,459
890.170837,453
890.287598,456
890.404236,433
890.520874,459
890.637634,486
890.754211,482
890.87085,469
890.987549,481
891.104187,455
891.220886,466
891.337463,442
891.454102,452
891.57074,465
891.687378,475
891.804077,456
891.920654,477
892.037231,460
892.15387,468
892.270447,459
892.387085,474
892.503723,465
892.6203,466
892.736877,462
892.853516,464
892.970032,473
893.08667,472
893.203186,462
893.319763,477
893.43634,459
893.552917,467
893.669556,463
893.786011,454
893.902588,468
894.019165,473
894.135681,456
894.252197,467
894.368835,475
894.485291,457
894.601868,479
894.718384,470
894.8349,471
894.951355,449
895.067932,465
895.184448,435
895.300964,456
895.417419,452
895.533936,447
895.650452,456
895.766907,484
895.883423,472
895.999878,447
896.116333,450
896.232849,455
896.349304,453
896.465759,473
896.582214,460
896.698669,461
896.815125,473
896.931641,468
897.048035,451
897.164551,466
897.280884,468
897.397339,479
897.513794,467
897.630249,466
897.746582,461
897.863098,456
897.979431,467
898.095886,449
898.212341,467
898.328674,455
898.445129,452
898.561462,473
898.677795,475
898.794312,471
898.910645,460
899.026978,486
899.143433,458
899.259766,460
899.37616,503
899.492493,487
899.608765,465
899.725159,472
899.841553,465
899.957947,450
900.07428,462
900.190552,476
900.306946,456
900.423157,460
900.53949,455
900.655884,453
900.772156,473
900.888489,469
901.004822,450
901.121033,448
901.237366,456
901.353699,468
901.46991,462
901.586304,475
901.702515,452
901.818787,485
901.93512,464
902.051331,487
902.167603,496
902.283875,508
902.400085,522
902.516418,504
902.632629,487
902.74884,522
902.865112,502
902.981384,505
903.097595,510
903.213867,516
903.330017,512
903.446289,504
903.5625,474
903.67865,500
903.794922,495
903.911072,503
904.027344,483
904.143494,492
904.259705,489
904.375916,492
904.492065,476
904.608215,487
904.724426,461
904.840576,489
904.956726,469
905.072876,486
905.189087,471
905.305176,470
905.421387,479
905.537537,481
905.653687,462
905.769775,480
905.885925,473
906.002014,460
906.118164,452
906.234314,462
906.350403,470
906.466492,482
906.582642,461
906.69873,468
906.814758,467
906.930908,474
907.046936,470
907.163086,463
907.279175,462
907.395264,467
907.511353,467
907.62738,485
907.743408,468
907.859497,475
907.975525,459
908.091553,467
908.207703,445
908.32373,476
908.439758,467
908.555786,471
908.671814,474
908.787842,448
908.90387,464
909.019775,481
909.135864,456
909.251892,462
909.367859,469
909.483826,457
909.599854,475
909.715881,461
909.831848,461
909.947815,465
910.063782,431
910.179749,505
910.295776,467
910.411743,479
910.527649,474
910.643616,480
910.759583,472
910.875488,489
910.991455,471
911.107361,482
911.223267,470
911.339294,474
911.4552,473
911.571106,473
911.687073,457
911.802979,475
911.918823,447
912.034729,472
912.150635,445
912.266602,478
912.382446,468
912.498352,471
912.614197,463
912.730103,482
912.846008,463
