792.44574,671
792.56488,706
792.68396,740
792.80304,696
792.92218,641
793.041199,625
793.160339,638
793.279419,662
793.398499,641
793.517578,642
793.636658,629
793.755737,647
793.874817,631
793.993896,653
794.112976,585
794.232056,628
794.351074,627
794.470215,610
794.589233,599
794.708313,612
794.827393,618
794.946411,606
795.065552,604
795.18457,635
795.303589,606
795.422668,606
795.541687,605
795.660767,592
795.779846,604
795.898865,595
796.017883,606
796.136963,608
796.255981,612
796.375061,608
796.49408,574
796.613037,589
796.732117,592
796.851135,578
796.970154,585
797.089233,600
797.208191,588
797.327271,595
797.446228,601
797.565186,592
797.684265,596
797.803223,592
797.922241,588
798.04126,570
798.160278,610
798.279297,599
798.398315,587
798.517273,601
798.636292,585
798.75531,558
798.874268,574
798.993286,588
799.112244,597
799.231323,566
799.350281,569
799.469238,583
799.588257,568
799.707153,613
799.826111,564
799.945129,627
800.064087,591
800.183044,592
800.302063,586
800.421021,568
800.539978,576
800.658936,610
800.777893,605
800.896912,595
801.015747,564
801.134705,583
801.253723,582
801.37262,576
801.491638,574
801.610535,613
801.729492,583
801.84845,577
801.967407,586
802.086243,580
802.205261,588
802.324158,594
802.443115,609
802.562073,607
802.680969,608
802.799927,605
802.918762,570
803.037659,596
803.156677,609
803.275574,590
803.39447,610
803.513428,600
803.632263,593
803.751221,602
803.870117,610
803.989014,593
804.107971,597
804.226746,598
804.345642,594
804.4646,610
804.583496,611
804.702393,600
804.821228,598
804.940125,585
805.059021,574
805.177917,593
805.296814,576
805.415649,609
805.534546,588
805.653442,626
805.772278,602
805.891113,610
806.01001,612
806.128906,617
806.247742,602
806.366577,614
806.485413,617
806.604309,619
806.723145,618
806.84198,622
806.960876,593
807.079712,608
807.198486,612
807.317383,599
807.436218,612
807.554993,586
807.673889,599
807.792725,614
807.91156,623
808.030396,613
808.14917,625
808.268005,604
808.386841,616
808.505676,615
808.624451,611
808.743286,623
808.862122,630
808.980896,634
809.099731,632
809.218506,633
809.337341,602
809.456116,624
809.57489,605
809.693726,623
809.8125,614
809.931274,619
810.050049,610
810.168884,614
810.287659,637
810.406372,602
810.525269,628
810.643982,620
810.762756,636
810.881531,604
811.000305,628
811.11908,610
811.237854,610
811.356567,615
811.475403,631
811.594116,640
811.71283,635
811.831604,640
811.950378,615
812.069153,626
812.187927,612
812.30658,630
812.425415,619
812.544128,626
812.662781,625
812.781616,652
812.900269,609
813.019043,618
813.137756,614
813.256531,616
813.375244,622
813.493896,653
813.612671,609
813.731384,629
813.850037,606
813.96875,628
814.087524,592
814.206238,621
814.324951,632
814.443604,635
814.562256,605
814.68103,629
814.799683,625
814.918335,618
815.037109,614
815.155762,607
815.274475,617
815.393188,629
815.511841,626
815.630554,604
815.749146,612
815.867859,619
815.986572,621
816.105164,604
816.223877,592
816.342529,612
816.461182,616
816.579895,618
816.698486,607
816.817139,629
816.935791,638
817.054504,624
817.173096,605
817.291748,618
817.4104,609
817.529053,591
817.647644,584
817.766235,606
817.884949,599
818.00354,567
818.122192,600
818.240845,538
818.359436,548
818.478088,521
818.59668,542
818.715271,543
818.833923,522
818.952515,521
819.071106,525
819.189758,517
819.30835,529
819.426941,517
819.545532,504
819.664124,489
819.782715,512
819.901306,519
820.019897,500
820.138489,509
820.25708,511
820.375671,485
820.494202,485
820.612732,489
820.731384,500
820.849915,494
820.968506,496
821.087097,519
821.205627,498
821.324158,493
821.442749,500
821.561279,485
821.679871,497
821.798401,504
821.916931,493
822.035461,487
822.154053,507
822.272583,480
822.391174,477
822.509583,470
822.628174,489
822.746704,491
822.865234,475
822.983765,475
823.102295,488
823.220825,499
823.339294,494
823.457825,499
823.576355,486
823.694824,491
823.813354,485
823.931885,491
824.050354,488
824.168884,494
824.287354,484
824.405823,499
824.524353,490
824.642822,503
824.761353,484
824.879822,508
824.998291,495
825.116699,486
825.235291,485
825.353699,475
825.472168,501
825.590637,487
825.709106,476
825.827576,476
825.946045,465
826.064453,481
826.182983,481
826.301392,496
826.4198,454
826.53833,467
826.656738,475
826.775208,461
826.893677,468
827.012024,480
827.130493,462
827.248962,478
827.36731,475
827.485779,467
827.604248,468
827.722595,466
827.841064,467
827.959412,468
828.077942,461
828.196289,450
828.314636,452
828.433105,454
828.551514,453
828.669861,454
828.78833,460
828.906677,450
829.025085,461
829.143433,448
829.261841,448
829.38031,480
829.498657,457
829.617004,453
829.735413,467
829.85376,455
829.972107,445
830.090515,469
830.208862,465
830.327209,463
830.445557,452
830.563904,442
830.682312,460
830.800659,466
830.919006,478
831.037354,465
831.155701,458
831.274048,484
831.392395,447
831.51062,474
831.629028,445
831.747314,465
831.865662,463
831.984009,458
832.102356,465
832.220642,452
832.338928,456
832.457275,455
832.575623,463
832.693909,461
832.812134,464
832.930481,477
833.048828,450
833.167114,465
833.2854,447
833.403687,448
833.521973,481
833.640259,461
833.758545,470
833.876831,471
833.995056,466
834.113281,465
834.231628,473
834.349915,442
834.468201,454
834.586426,463
834.704651,449
834.822998,467
834.941162,462
835.059448,485
835.177673,460
835.295959,457
835.414246,458
835.53241,482
835.650635,466
835.768921,463
835.887146,469
836.005371,465
836.123596,466
836.241821,461
836.360046,462
836.478271,473
836.596497,452
836.714722,479
836.832886,478
836.95105,479
837.069336,473
837.1875,484
837.305725,480
837.423889,491
837.542053,482
837.660339,470
837.778503,495
837.896667,473
838.014832,449
838.132996,455
838.25116,481
838.369385,478
838.487488,471
838.605713,464
838.723877,468
838.84198,476
838.960205,493
839.078308,491
839.196472,461
839.314636,479
839.4328,473
839.550964,475
839.669067,485
839.787231,492
839.905396,479
840.023499,472
840.141602,468
840.259766,488
840.377869,474
840.495972,488
840.614136,474
840.732239,489
840.850342,462
840.968445,471
841.086548,461
841.204651,464
841.322754,458
841.440918,477
841.55896,501
841.677002,457
841.795166,472
841.913208,466
842.031311,448
842.149353,471
842.267456,471
842.385498,466
842.503601,450
842.621643,478
842.739746,450
842.857788,460
842.97583,463
843.093933,468
843.211975,429
843.330017,465
843.44812,471
843.566101,466
843.684204,450
843.802246,446
843.920227,472
844.038269,472
844.156311,445
844.274292,445
844.392395,455
844.510376,454
844.628357,457
844.74646,454
844.864441,442
844.982422,476
845.100403,458
845.218384,452
845.336426,451
845.454468,454
845.572449,460
845.69043,462
845.808411,458
845.926453,460
846.044373,462
846.162354,457
846.280396,469
846.398315,451
846.516296,442
846.634216,459
846.752197,464
846.870178,460
846.988098,458
847.106079,467
847.22406,431
847.34198,454
847.4599,462
847.577881,453
847.695801,458
847.813782,448
847.931641,445
848.049561,454
848.167603,448
848.285461,450
848.403381,453
848.521362,443
848.639221,459
848.75708,479
848.875,457
848.99292,436
849.110901,463
849.22876,461
849.34668,436
849.464539,449
849.582458,461
849.700317,461
849.818176,453
849.936096,455
850.053955,434
850.171875,458
850.289673,474
850.407593,452
850.525452,453
850.643311,450
850.761169,451
850.878967,460
850.996887,439
851.114746,473
851.232544,454
851.350403,451
851.468262,460
851.58606,450
851.703979,451
851.821777,462
851.939636,455
852.057434,452
852.175232,472
852.293091,463
852.410889,441
852.528687,455
852.646545,471
852.764343,455
852.88208,426
852.999939,443
853.117676,458
853.235535,448
853.353271,471
853.471069,459
853.588928,447
853.706604,473
853.824402,455
853.9422,449
854.059998,456
854.177734,469
854.295532,447
854.413269,465
854.531006,438
854.648804,464
854.766541,445
854.884277,454
855.002014,462
855.119751,448
855.237549,476
855.355225,457
855.473022,448
855.590698,467
855.708435,460
855.826172,482
855.943848,465
856.061646,459
856.179321,458
856.296997,450
856.414795,467
856.53241,462
856.650085,483
856.767822,466
856.885559,450
857.003174,454
857.120911,484
857.238586,473
857.356201,450
857.473938,452
857.591614,455
857.709351,454
857.826965,446
857.944641,475
858.062317,466
858.179993,478
858.297668,470
858.415283,463
858.532959,468
858.650574,463
858.768188,462
858.885803,447
859.003479,474
859.121094,454
859.23877,434
859.356384,441
859.473999,455
859.591675,462
859.709229,425
859.826843,461
859.944458,459
860.062012,476
860.179626,448
860.297302,451
860.414856,447
860.532471,444
860.650024,459
860.767639,469
860.885193,440
861.002808,462
861.120361,429
861.237976,455
861.35553,449
861.473022,460
861.590698,448
861.708191,476
861.825745,463
861.943298,467
862.060852,462
862.178406,447
862.295959,456
862.413513,446
862.531006,448
862.64856,456
862.766113,445
862.883667,458
863.00116,458
863.118713,448
863.236206,454
863.353699,455
863.471252,443
863.588745,448
863.706177,429
863.82373,465
863.941162,462
864.058716,460
864.176208,458
864.29364,444
864.411194,446
864.528687,460
864.646118,452
864.763611,464
864.881042,457
864.998535,473
865.116028,460
865.233459,449
865.350891,464
865.468384,451
865.585754,454
865.703308,454
865.820679,449
865.938171,457
866.055542,453
866.173035,457
866.290466,457
866.407837,458
866.52533,439
866.6427,475
866.760071,469
866.877563,464
866.994934,439
867.112305,475
867.229736,442
867.347107,463
867.464539,455
867.58197,462
867.699341,475
867.81665,464
867.934082,439
868.051453,466
868.168823,448
868.286194,468
868.403564,465
868.520935,453
868.638306,456
868.755676,455
868.872986,456
868.990295,467
869.107727,450
869.225037,466
869.342346,454
869.459717,447
869.577026,460
869.694336,452
869.811707,470
869.929016,448
870.046326,451
870.163635,457
870.280945,471
870.398254,472
870.515564,464
870.632812,446
870.750183,460
870.867432,467
870.984741,470
871.102051,453
871.219299,452
871.336609,459
871.453918,446
871.571106,456
871.688416,468
871.805664,464
871.922852,472
872.040222,465
872.157471,478
872.274719,463
872.391968,439
872.509155,466
872.626465,442
872.743652,469
872.860962,441
872.978149,450
873.095337,456
873.212646,462
873.329834,452
873.44696,471
873.564209,445
873.681396,451
873.798645,452
873.915894,448
874.03302,448
874.150208,460
874.267456,447
874.384583,462
874.501831,453
874.618958,466
874.736145,462
874.853333,452
874.970459,484
875.087646,468
875.204834,451
875.32196,479
875.439148,441
875.556274,452
875.673401,463
875.790527,446
875.907715,457
876.024841,455
876.141968,458
876.259094,466
876.376282,467
876.493347,457
876.610474,437
876.7276,458
876.844727,460
876.961853,470
877.078918,459
877.195984,461
877.313171,467
877.430237,457
877.547302,442
877.664368,435
877.781433,460
877.898499,451
878.015625,457
878.13269,470
878.249695,444
878.366821,436
878.483887,456
878.600952,466
878.717957,464
878.834961,457
878.952087,439
879.069092,472
879.186157,442
879.303162,459
879.420227,455
879.537231,460
879.654236,439
879.77124,459
879.888306,444
880.005249,458
880.122314,442
880.239319,454
880.356323,466
880.473328,464
880.590271,455
880.707275,460
880.824341,461
880.941284,455
881.058228,439
881.175232,457
881.292236,438
881.40918,460
881.526123,462
881.643066,456
881.760071,457
881.877014,438
881.993958,460
882.11084,465
882.227783,434
882.344727,458
882.46167,469
882.578613,449
882.695618,438
882.812439,457
882.929382,465
883.046326,461
883.163208,481
883.280151,453
883.397034,443
883.513916,451
883.630798,458
883.747742,468
883.864563,459
883.981506,463
884.098389,459
884.21521,453
884.332153,454
884.448975,461
884.565796,459
884.682678,467
884.7995,450
884.916443,471
885.033264,459
885.150085,459
885.266968,465
885.383789,447
885.500671,472
885.617493,478
885.734314,484
885.851196,458
885.967896,461
886.084717,483
886.201599,473
886.318359,460
886.435181,468
886.552002,460
886.668762,460
886.785645,454
886.902344,443
887.019165,473
887.135925,452
887.252747,463
887.369446,450
887.486267,463
887.603027,443
887.719788,453
887.836548,474
887.953247,459
888.070068,466
888.186829,459
888.303528,446
888.420288,459
888.536987,455
888.653687,465
888.770447,445
888.887146,457
889.003967,452
889.120667,479
889.237305,459
889.354065,467
889.470703,439
889.587463,458
889.704163,451
889.820862,448
889.937561,450
890.054199,458
890.170837,443
890.287598,451
890.404236,460
890.520874,460
890.637634,461
890.754211,474
890.87085,455
890.987549,490
891.104187,446
891.220886,460
891.337463,447
891.454102,449
891.57074,443
891.687378,469
891.804077,460
891.920654,465
892.037231,453
892.15387,455
892.270447,462
892.387085,460
892.503723,460
892.6203,461
892.736877,468
892.853516,460
892.970032,457
893.08667,474
893.203186,449
893.319763,451
893.43634,457
893.552917,465
893.669556,453
893.786011,455
893.902588,444
894.019165,465
894.135681,464
894.252197,454
894.368835,454
894.485291,445
894.601868,464
894.718384,479
894.8349,468
894.951355,460
895.067932,451
895.184448,476
895.300964,456
895.417419,461
895.533936,456
895.650452,459
895.766907,470
895.883423,473
895.999878,445
896.116333,446
896.232849,450
896.349304,459
896.465759,455
896.582214,490
896.698669,447
896.815125,454
896.931641,453
897.048035,478
897.164551,452
897.280884,458
897.397339,453
897.513794,468
897.630249,426
897.746582,466
897.863098,477
897.979431,468
898.095886,460
898.212341,465
898.328674,469
898.445129,467
898.561462,456
898.677795,456
898.794312,471
898.910645,472
899.026978,469
899.143433,468
899.259766,461
899.37616,448
899.492493,433
899.608765,471
899.725159,458
899.841553,441
899.957947,464
900.07428,478
900.190552,481
900.306946,463
900.423157,462
900.53949,460
900.655884,462
900.772156,470
900.888489,467
901.004822,470
901.121033,456
901.237366,461
901.353699,457
901.46991,469
901.586304,463
901.702515,469
901.818787,460
901.93512,462
902.051331,463
902.167603,466
902.283875,466
902.400085,463
902.516418,451
902.632629,477
902.74884,472
902.865112,487
902.981384,495
903.097595,488
903.213867,468
903.330017,464
903.446289,471
903.5625,486
903.67865,484
903.794922,484
903.911072,455
904.027344,465
904.143494,463
904.259705,466
904.375916,463
904.492065,464
904.608215,468
904.724426,458
904.840576,462
904.956726,486
905.072876,463
905.189087,480
905.305176,470
905.421387,475
905.537537,467
905.653687,452
905.769775,455
905.885925,472
906.002014,468
906.118164,477
906.234314,480
906.350403,458
906.466492,446
906.582642,482
906.69873,465
906.814758,456
906.930908,453
907.046936,459
907.163086,464
907.279175,466
907.395264,464
907.511353,472
907.62738,445
907.743408,456
907.859497,446
907.975525,480
908.091553,468
908.207703,467
908.32373,475
908.439758,485
908.555786,469
908.671814,454
908.787842,462
908.90387,458
909.019775,458
909.135864,479
909.251892,471
909.367859,480
909.483826,472
909.599854,456
909.715881,468
909.831848,478
909.947815,464
910.063782,480
910.179749,457
910.295776,469
910.411743,457
910.527649,464
910.643616,474
910.759583,473
910.875488,470
910.991455,477
911.107361,462
911.223267,468
911.339294,445
911.4552,473
911.571106,465
911.687073,481
911.802979,463
911.918823,466
912.034729,451
912.150635,458
912.266602,452
912.382446,476
912.498352,473
912.614197,459
912.730103,448
912.846008,477
792.44574,670
792.56488,713
792.68396,736
792.80304,712
792.92218,647
793.041199,639
793.160339,657
793.279419,648
793.398499,654
793.517578,644
793.636658,643
793.755737,628
793.874817,639
793.993896,625
794.112976,622
794.232056,611
794.351074,607
794.470215,645
794.589233,645
794.708313,613
794.827393,601
794.946411,622
795.065552,622
795.18457,606
795.303589,614
795.422668,592
795.541687,606
795.660767,586
795.779846,607
795.898865,579
796.017883,606
796.136963,600
796.255981,579
796.375061,565
796.49408,587
796.613037,606
796.732117,606
796.851135,577
796.970154,611
797.089233,578
797.208191,586
797.327271,599
797.446228,577
797.565186,587
797.684265,578
797.803223,583
797.922241,578
798.04126,580
798.160278,583
798.279297,596
798.398315,583
798.517273,582
798.636292,577
798.75531,579
798.874268,575
798.993286,590
799.112244,578
799.231323,577
799.350281,591
799.469238,585
799.588257,616
799.707153,585
799.826111,595
799.945129,591
800.064087,568
800.183044,597
800.302063,580
800.421021,578
800.539978,598
800.658936,578
800.777893,583
800.896912,606
801.015747,563
801.134705,587
801.253723,583
801.37262,565
801.491638,583
801.610535,601
801.729492,586
801.84845,583
801.967407,578
802.086243,591
802.205261,608
802.324158,585
802.443115,586
802.562073,563
802.680969,591
802.799927,581
802.918762,602
803.037659,606
803.156677,606
803.275574,578
803.39447,611
803.513428,586
803.632263,590
803.751221,596
803.870117,588
803.989014,592
804.107971,591
804.226746,597
804.345642,591
804.4646,620
804.583496,604
804.702393,607
804.821228,617
804.940125,608
805.059021,607
805.177917,613
805.296814,600
805.415649,617
805.534546,610
805.653442,635
805.772278,619
805.891113,615
806.01001,621
806.128906,621
806.247742,607
806.366577,611
806.485413,603
806.604309,602
806.723145,618
806.84198,615
806.960876,613
807.079712,615
807.198486,594
807.317383,632
807.436218,620
807.554993,621
807.673889,607
807.792725,603
807.91156,598
808.030396,616
808.14917,596
808.268005,616
808.386841,638
808.505676,613
808.624451,636
808.743286,634
808.862122,591
808.980896,619
809.099731,605
809.218506,601
809.337341,630
809.456116,605
809.57489,630
809.693726,626
809.8125,630
809.931274,617
810.050049,610
810.168884,618
810.287659,626
810.406372,631
810.525269,634
810.643982,624
810.762756,616
810.881531,636
811.000305,628
811.11908,621
811.237854,627
811.356567,648
811.475403,619
811.594116,607
811.71283,635
811.831604,629
811.950378,636
812.069153,608
812.187927,619
812.30658,627
812.425415,622
812.544128,636
812.662781,636
812.781616,621
812.900269,615
813.019043,629
813.137756,620
813.256531,646
813.375244,601
813.493896,636
813.612671,618
813.731384,644
813.850037,623
813.96875,623
814.087524,608
814.206238,609
814.324951,609
814.443604,622
814.562256,608
814.68103,615
814.799683,595
814.918335,587
815.037109,601
815.155762,623
815.274475,617
815.393188,595
815.511841,625
815.630554,608
815.749146,631
815.867859,628
815.986572,595
816.105164,624
816.223877,625
816.342529,590
816.461182,604
816.579895,621
816.698486,632
816.817139,631
816.935791,606
817.054504,626
817.173096,599
817.291748,613
817.4104,610
817.529053,583
817.647644,589
817.766235,595
817.884949,568
818.00354,573
818.122192,545
818.240845,558
818.359436,569
818.478088,549
818.59668,525
818.715271,549
818.833923,527
818.952515,524
819.071106,530
819.189758,530
819.30835,490
819.426941,521
819.545532,514
819.664124,518
819.782715,488
819.901306,509
820.019897,498
820.138489,506
820.25708,513
820.375671,512
820.494202,525
820.612732,522
820.731384,497
820.849915,496
820.968506,488
821.087097,504
821.205627,507
821.324158,507
821.442749,485
821.561279,491
821.679871,478
821.798401,492
821.916931,483
822.035461,490
822.154053,488
822.272583,475
822.391174,490
822.509583,469
822.628174,466
822.746704,479
822.865234,485
822.983765,489
823.102295,492
823.220825,493
823.339294,491
823.457825,489
823.576355,489
823.694824,487
823.813354,491
823.931885,502
824.050354,486
824.168884,487
824.287354,481
824.405823,496
824.524353,501
824.642822,515
824.761353,487
824.879822,477
824.998291,475
825.116699,484
825.235291,499
825.353699,493
825.472168,472
825.590637,496
825.709106,470
825.827576,466
825.946045,470
826.064453,482
826.182983,471
826.301392,479
826.4198,465
826.53833,462
826.656738,459
826.775208,475
826.893677,470
827.012024,464
827.130493,459
827.248962,481
827.36731,452
827.485779,457
827.604248,474
827.722595,480
827.841064,480
827.959412,484
828.077942,463
828.196289,447
828.314636,457
828.433105,452
828.551514,481
828.669861,464
828.78833,486
828.906677,478
829.025085,455
829.143433,469
829.261841,474
829.38031,451
829.498657,459
829.617004,488
829.735413,462
829.85376,466
829.972107,477
830.090515,462
830.208862,451
830.327209,448
830.445557,454
830.563904,469
830.682312,449
830.800659,464
830.919006,469
831.037354,459
831.155701,446
831.274048,471
831.392395,459
831.51062,461
831.629028,473
831.747314,455
831.865662,460
831.984009,478
832.102356,462
832.220642,454
832.338928,462
832.457275,449
832.575623,466
832.693909,452
832.812134,466
832.930481,459
833.048828,452
833.167114,478
833.2854,449
833.403687,473
833.521973,459
833.640259,473
833.758545,456
833.876831,454
833.995056,475
834.113281,470
834.231628,476
834.349915,456
834.468201,479
834.586426,479
834.704651,443
834.822998,463
834.941162,467
835.059448,460
835.177673,461
835.295959,467
835.414246,461
835.53241,462
835.650635,452
835.768921,464
835.887146,485
836.005371,469
836.123596,431
836.241821,474
836.360046,467
836.478271,461
836.596497,473
836.714722,465
836.832886,469
836.95105,476
837.069336,484
837.1875,454
837.305725,484
837.423889,495
837.542053,475
837.660339,497
837.778503,473
837.896667,470
838.014832,495
838.132996,473
838.25116,468
838.369385,483
838.487488,479
838.605713,484
838.723877,461
838.84198,465
838.960205,473
839.078308,487
839.196472,477
839.314636,485
839.4328,467
839.550964,471
839.669067,477
839.787231,475
839.905396,456
840.023499,458
840.141602,464
840.259766,463
840.377869,485
840.495972,472
840.614136,474
840.732239,475
840.850342,471
840.968445,469
841.086548,464
841.204651,468
841.322754,477
841.440918,469
841.55896,477
841.677002,474
841.795166,453
841.913208,455
842.031311,457
842.149353,452
842.267456,464
842.385498,468
842.503601,464
842.621643,472
842.739746,480
842.857788,462
842.97583,460
843.093933,459
843.211975,458
843.330017,465
843.44812,483
843.566101,465
843.684204,443
843.802246,466
843.920227,457
844.038269,471
844.156311,452
844.274292,440
844.392395,466
844.510376,460
844.628357,450
844.74646,476
844.864441,472
844.982422,439
845.100403,481
845.218384,460
845.336426,442
845.454468,463
845.572449,455
845.69043,461
845.808411,449
845.926453,463
846.044373,470
846.162354,461
846.280396,468
846.398315,452
846.516296,467
846.634216,453
846.752197,459
846.870178,436
846.988098,441
847.106079,459
847.22406,440
847.34198,465
847.4599,464
847.577881,463
847.695801,445
847.813782,450
847.931641,448
848.049561,459
848.167603,451
848.285461,461
848.403381,448
848.521362,430
848.639221,473
848.75708,455
848.875,466
848.99292,465
849.110901,464
849.22876,443
849.34668,452
849.464539,453
849.582458,462
849.700317,464
849.818176,472
849.936096,425
850.053955,463
850.171875,442
850.289673,466
850.407593,486
850.525452,459
850.643311,459
850.761169,469
850.878967,440
850.996887,450
851.114746,442
851.232544,451
851.350403,444
851.468262,455
851.58606,446
851.703979,450
851.821777,469
851.939636,445
852.057434,448
852.175232,449
852.293091,449
852.410889,450
852.528687,459
852.646545,464
852.764343,459
852.88208,461
852.999939,447
853.117676,465
853.235535,454
853.353271,467
853.471069,456
853.588928,454
853.706604,459
853.824402,447
853.9422,469
854.059998,444
854.177734,473
854.295532,458
854.413269,481
854.531006,444
854.648804,468
854.766541,459
854.884277,466
855.002014,458
855.119751,470
855.237549,466
855.355225,471
855.473022,461
855.590698,452
855.708435,460
855.826172,456
855.943848,446
856.061646,457
856.179321,469
856.296997,472
856.414795,453
856.53241,485
856.650085,466
856.767822,472
856.885559,458
857.003174,465
857.120911,472
857.238586,478
857.356201,477
857.473938,462
857.591614,474
857.709351,463
857.826965,451
857.944641,441
858.062317,452
858.179993,448
858.297668,461
858.415283,469
858.532959,463
858.650574,454
858.768188,464
858.885803,454
859.003479,459
859.121094,461
859.23877,461
859.356384,446
859.473999,468
859.591675,468
859.709229,467
859.826843,461
859.944458,449
860.062012,473
860.179626,452
860.297302,460
860.414856,461
860.532471,460
860.650024,449
860.767639,452
860.885193,474
861.002808,450
861.120361,461
861.237976,468
861.35553,461
861.473022,463
861.590698,456
861.708191,450
861.825745,437
861.943298,458
862.060852,469
862.178406,489
862.295959,446
862.413513,459
862.531006,460
862.64856,445
862.766113,465
862.883667,457
863.00116,435
863.118713,451
863.236206,457
863.353699,472
863.471252,445
863.588745,479
863.706177,452
863.82373,439
863.941162,455
864.058716,467
864.176208,453
864.29364,473
864.411194,434
864.528687,456
864.646118,454
864.763611,472
864.881042,458
864.998535,471
865.116028,440
865.233459,462
865.350891,442
865.468384,457
865.585754,459
865.703308,467
865.820679,463
865.938171,465
866.055542,443
866.173035,453
866.290466,473
866.407837,444
866.52533,444
866.6427,473
866.760071,465
866.877563,450
866.994934,451
867.112305,441
867.229736,479
867.347107,467
867.464539,463
867.58197,475
867.699341,462
867.81665,463
867.934082,458
868.051453,452
868.168823,456
868.286194,463
868.403564,453
868.520935,492
868.638306,440
868.755676,470
868.872986,443
868.990295,474
869.107727,458
869.225037,458
869.342346,447
869.459717,457
869.577026,458
869.694336,458
869.811707,456
869.929016,459
870.046326,440
870.163635,443
870.280945,471
870.398254,449
870.515564,461
870.632812,462
870.750183,462
870.867432,472
870.984741,448
871.102051,456
871.219299,455
871.336609,448
871.453918,462
871.571106,464
871.688416,472
871.805664,461
871.922852,473
872.040222,467
872.157471,471
872.274719,461
872.391968,457
872.509155,447
872.626465,453
872.743652,464
872.860962,447
872.978149,458
873.095337,461
873.212646,469
873.329834,453
873.44696,438
873.564209,480
873.681396,477
873.798645,451
873.915894,459
874.03302,468
874.150208,456
874.267456,457
874.384583,449
874.501831,463
874.618958,439
874.736145,450
874.853333,451
874.970459,470
875.087646,461
875.204834,459
875.32196,475
875.439148,467
875.556274,468
875.673401,467
875.790527,463
875.907715,467
876.024841,451
876.141968,459
876.259094,463
876.376282,453
876.493347,464
876.610474,455
876.7276,453
876.844727,466
876.961853,452
877.078918,457
877.195984,464
877.313171,452
877.430237,473
877.547302,453
877.664368,463
877.781433,473
877.898499,448
878.015625,467
878.13269,457
878.249695,459
878.366821,461
878.483887,457
878.600952,461
878.717957,443
878.834961,461
878.952087,455
879.069092,488
879.186157,452
879.303162,460
879.420227,473
879.537231,457
879.654236,459
879.77124,477
879.888306,471
880.005249,464
880.122314,454
880.239319,442
880.356323,457
880.473328,455
880.590271,456
880.707275,449
880.824341,458
880.941284,469
881.058228,456
881.175232,478
881.292236,465
881.40918,442
881.526123,447
881.643066,457
881.760071,450
881.877014,460
881.993958,461
882.11084,472
882.227783,457
882.344727,458
882.46167,441
882.578613,448
882.695618,457
882.812439,463
882.929382,464
883.046326,444
883.163208,459
883.280151,476
883.397034,478
883.513916,454
883.630798,447
883.747742,468
883.864563,451
883.981506,458
884.098389,454
884.21521,462
884.332153,464
884.448975,471
884.565796,484
884.682678,465
884.7995,464
884.916443,461
885.033264,482
885.150085,457
885.266968,474
885.383789,465
885.500671,480
885.617493,457
885.734314,458
885.851196,473
885.967896,480
886.084717,465
886.201599,456
886.318359,458
886.435181,470
886.552002,480
886.668762,464
886.785645,464
886.902344,457
887.019165,446
887.135925,479
887.252747,466
887.369446,472
887.486267,477
887.603027,457
887.719788,484
887.836548,470
887.953247,452
888.070068,483
888.186829,447
888.303528,453
888.420288,468
888.536987,478
888.653687,459
888.770447,460
888.887146,466
889.003967,449
889.120667,459
889.237305,450
889.354065,474
889.470703,458
889.587463,460
889.704163,468
889.820862,460
889.937561,460
890.054199,450
890.170837,446
890.287598,458
890.404236,432
890.520874,451
890.637634,479
890.754211,467
890.87085,479
890.987549,457
891.104187,465
891.220886,451
891.337463,447
891.454102,470
891.57074,462
891.687378,465
891.804077,464
891.920654,471
892.037231,470
892.15387,472
892.270447,463
892.387085,473
892.503723,453
892.6203,461
892.736877,455
892.853516,466
892.970032,451
893.08667,474
893.203186,441
893.319763,460
893.43634,449
893.552917,457
893.669556,469
893.786011,459
893.902588,453
894.019165,464
894.135681,474
894.252197,466
894.368835,468
894.485291,474
894.601868,458
894.718384,477
894.8349,462
894.951355,462
895.067932,471
895.184448,469
895.300964,470
895.417419,468
895.533936,451
895.650452,474
895.766907,450
895.883423,469
895.999878,477
896.116333,475
896.232849,456
896.349304,469
896.465759,462
896.582214,478
896.698669,454
896.815125,465
896.931641,456
897.048035,473
897.164551,450
897.280884,472
897.397339,472
897.513794,476
897.630249,470
897.746582,487
897.863098,467
897.979431,470
898.095886,448
898.212341,466
898.328674,478
898.445129,473
898.561462,474
898.677795,452
898.794312,457
898.910645,462
899.026978,466
899.143433,463
899.259766,470
899.37616,469
899.492493,461
899.608765,463
899.725159,455
899.841553,478
899.957947,468
900.07428,470
900.190552,476
900.306946,464
900.423157,463
900.53949,481
900.655884,462
900.772156,463
900.888489,460
901.004822,487
901.121033,475
901.237366,481
901.353699,471
901.46991,464
901.586304,451
901.702515,447
901.818787,466
901.93512,472
902.051331,466
902.167603,459
902.283875,482
902.400085,464
902.516418,472
902.632629,474
902.74884,473
902.865112,478
902.981384,469
903.097595,482
903.213867,469
903.330017,496
903.446289,460
903.5625,478
903.67865,476
903.794922,490
903.911072,462
904.027344,489
904.143494,458
904.259705,478
904.375916,463
904.492065,461
904.608215,468
904.724426,473
904.840576,481
904.956726,467
905.072876,456
905.189087,468
905.305176,460
905.421387,464
905.537537,485
905.653687,464
905.769775,475
905.885925,461
906.002014,462
906.118164,470
906.234314,474
906.350403,461
906.466492,455
906.582642,464
906.69873,457
906.814758,465
906.930908,468
907.046936,466
907.163086,478
907.279175,460
907.395264,476
907.511353,468
907.62738,460
907.743408,458
907.859497,478
907.975525,460
908.091553,452
908.207703,462
908.32373,478
908.439758,470
908.555786,477
908.671814,477
908.787842,465
908.90387,464
909.019775,442
909.135864,469
909.251892,472
909.367859,463
909.483826,468
909.599854,480
909.715881,470
909.831848,465
909.947815,455
910.063782,481
910.179749,467
910.295776,467
910.411743,481
910.527649,476
910.643616,483
910.759583,470
910.875488,483
910.991455,460
911.107361,480
911.223267,462
911.339294,475
911.4552,493
911.571106,456
911.687073,463
911.802979,474
911.918823,478
912.034729,473
912.150635,480
912.266602,460
912.382446,474
912.498352,462
912.614197,473
912.730103,466
912.846008,462
792.44574,656
792.56488,709
792.68396,711
792.80304,696
792.92218,665
793.041199,636
793.160339,642
793.279419,651
793.398499,639
793.517578,632
793.636658,634
793.755737,632
793.874817,665
793.993896,632
794.112976,643
794.232056,605
794.351074,640
794.470215,615
794.589233,639
794.708313,596
794.827393,617
794.946411,620
795.065552,652
795.18457,601
795.303589,598
795.422668,588
795.541687,611
795.660767,597
795.779846,607
795.898865,590
796.017883,596
796.136963,604
796.255981,609
796.375061,618
796.49408,597
796.613037,613
796.732117,567
796.851135,589
796.970154,594
797.089233,613
797.208191,608
797.327271,578
797.446228,594
797.565186,604
797.684265,610
797.803223,591
797.922241,589
798.04126,581
798.160278,577
798.279297,576
798.398315,592
798.517273,586
798.636292,591
798.75531,587
798.874268,578
798.993286,595
799.112244,584
799.231323,576
799.350281,568
799.469238,576
799.588257,602
799.707153,600
799.826111,596
799.945129,579
800.064087,585
800.183044,593
800.302063,590
800.421021,611
800.539978,591
800.658936,587
800.777893,602
800.896912,559
801.015747,558
801.134705,580
801.253723,567
801.37262,576
801.491638,586
801.610535,586
801.729492,594
801.84845,553
801.967407,599
802.086243,579
802.205261,596
802.324158,569
802.443115,580
802.562073,580
802.680969,601
802.799927,580
802.918762,586
803.037659,573
803.156677,587
803.275574,576
803.39447,596
803.513428,589
803.632263,606
803.751221,596
803.870117,597
803.989014,602
804.107971,593
804.226746,579
804.345642,640
804.4646,589
804.583496,598
804.702393,623
804.821228,601
804.940125,608
805.059021,598
805.177917,573
805.296814,601
805.415649,608
805.534546,623
805.653442,608
805.772278,619
805.891113,594
806.01001,616
806.128906,612
806.247742,583
806.366577,614
806.485413,620
806.604309,606
806.723145,628
806.84198,616
806.960876,594
807.079712,605
807.198486,600
807.317383,591
807.436218,589
807.554993,627
807.673889,630
807.792725,624
807.91156,652
808.030396,593
808.14917,609
808.268005,625
808.386841,631
808.505676,618
808.624451,606
808.743286,645
808.862122,623
808.980896,629
809.099731,621
809.218506,609
809.337341,594
809.456116,644
809.57489,618
809.693726,637
809.8125,631
809.931274,609
810.050049,631
810.168884,608
810.287659,645
810.406372,630
810.525269,608
810.643982,622
810.762756,623
810.881531,605
811.000305,647
811.11908,623
811.237854,651
811.356567,603
811.475403,636
811.594116,633
811.71283,632
811.831604,615
811.950378,628
812.069153,620
812.187927,626
812.30658,625
812.425415,647
812.544128,637
812.662781,626
812.781616,626
812.900269,657
813.019043,633
813.137756,620
813.256531,649
813.375244,641
813.493896,618
813.612671,639
813.731384,642
813.850037,637
813.96875,624
814.087524,612
814.206238,631
814.324951,632
814.443604,612
814.562256,629
814.68103,632
814.799683,599
814.918335,620
815.037109,611
815.155762,615
815.274475,625
815.393188,616
815.511841,625
815.630554,618
815.749146,615
815.867859,623
815.986572,600
816.105164,603
816.223877,620
816.342529,601
816.461182,616
816.579895,615
816.698486,603
816.817139,611
816.935791,636
817.054504,610
817.173096,589
817.291748,600
817.4104,613
817.529053,599
817.647644,598
817.766235,593
817.884949,586
818.00354,574
818.122192,563
818.240845,554
818.359436,548
818.478088,540
818.59668,551
818.715271,549
818.833923,528
818.952515,524
819.071106,530
819.189758,521
819.30835,542
819.426941,501
819.545532,511
819.664124,501
819.782715,520
819.901306,508
820.019897,506
820.138489,525
820.25708,491
820.375671,519
820.494202,503
820.612732,519
820.731384,477
820.849915,490
820.968506,512
821.087097,524
821.205627,497
821.324158,504
821.442749,486
821.561279,476
821.679871,481
821.798401,495
821.916931,492
822.035461,489
822.154053,497
822.272583,467
822.391174,494
822.509583,490
822.628174,485
822.746704,471
822.865234,491
822.983765,470
823.102295,482
823.220825,472
823.339294,491
823.457825,478
823.576355,471
823.694824,481
823.813354,501
823.931885,499
824.050354,489
824.168884,461
824.287354,504
824.405823,481
824.524353,496
824.642822,483
824.761353,487
824.879822,486
824.998291,500
825.116699,488
825.235291,485
825.353699,477
825.472168,494
825.590637,470
825.709106,481
825.827576,485
825.946045,483
826.064453,471
826.182983,483
826.301392,475
826.4198,480
826.53833,474
826.656738,464
826.775208,462
826.893677,490
827.012024,471
827.130493,469
827.248962,487
827.36731,463
827.485779,474
827.604248,464
827.722595,458
827.841064,464
827.959412,477
828.077942,469
828.196289,469
828.314636,452
828.433105,464
828.551514,462
828.669861,450
828.78833,472
828.906677,437
829.025085,474
829.143433,460
829.261841,467
829.38031,469
829.498657,482
829.617004,444
829.735413,478
829.85376,462
829.972107,465
830.090515,466
830.208862,477
830.327209,444
830.445557,466
830.563904,465
830.682312,471
830.800659,451
830.919006,479
831.037354,462
831.155701,467
831.274048,468
831.392395,467
831.51062,444
831.629028,484
831.747314,459
831.865662,453
831.984009,464
832.102356,469
832.220642,453
832.338928,464
832.457275,480
832.575623,462
832.693909,478
832.812134,459
832.930481,474
833.048828,460
833.167114,466
833.2854,458
833.403687,479
833.521973,461
833.640259,456
833.758545,475
833.876831,468
833.995056,459
834.113281,456
834.231628,467
834.349915,464
834.468201,472
834.586426,465
834.704651,461
834.822998,453
834.941162,463
835.059448,458
835.177673,481
835.295959,458
835.414246,460
835.53241,442
835.650635,474
835.768921,455
835.887146,474
836.005371,455
836.123596,472
836.241821,482
836.360046,475
836.478271,468
836.596497,482
836.714722,493
836.832886,463
836.95105,483
837.069336,477
837.1875,464
837.305725,462
837.423889,490
837.542053,472
837.660339,479
837.778503,497
837.896667,463
838.014832,479
838.132996,473
838.25116,488
838.369385,479
838.487488,496
838.605713,467
838.723877,486
838.84198,468
838.960205,481
839.078308,479
839.196472,476
839.314636,487
839.4328,468
839.550964,454
839.669067,472
839.787231,475
839.905396,492
840.023499,453
840.141602,476
840.259766,471
840.377869,465
840.495972,485
840.614136,474
840.732239,477
840.850342,483
840.968445,489
841.086548,474
841.204651,466
841.322754,469
841.440918,461
841.55896,454
841.677002,457
841.795166,488
841.913208,482
842.031311,472
842.149353,456
842.267456,464
842.385498,462
842.503601,470
842.621643,445
842.739746,466
842.857788,450
842.97583,459
843.093933,475
843.211975,461
843.330017,450
843.44812,453
843.566101,434
843.684204,474
843.802246,462
843.920227,454
844.038269,454
844.156311,480
844.274292,449
844.392395,473
844.510376,457
844.628357,460
844.74646,464
844.864441,458
844.982422,441
845.100403,452
845.218384,473
845.336426,464
845.454468,449
845.572449,489
845.69043,456
845.808411,452
845.926453,472
846.044373,438
846.162354,455
846.280396,462
846.398315,464
846.516296,469
846.634216,464
846.752197,461
846.870178,459
846.988098,462
847.106079,466
847.22406,442
847.34198,459
847.4599,479
847.577881,452
847.695801,469
847.813782,449
847.931641,476
848.049561,454
848.167603,454
848.285461,456
848.403381,471
848.521362,427
848.639221,454
848.75708,462
848.875,436
848.99292,440
849.110901,464
849.22876,465
849.34668,470
849.464539,446
849.582458,456
849.700317,460
849.818176,463
849.936096,448
850.053955,458
850.171875,472
850.289673,476
850.407593,440
850.525452,454
850.643311,455
850.761169,462
850.878967,466
850.996887,467
851.114746,468
851.232544,462
851.350403,471
851.468262,454
851.58606,451
851.703979,465
851.821777,441
851.939636,458
852.057434,468
852.175232,440
852.293091,470
852.410889,447
852.528687,467
852.646545,481
852.764343,458
852.88208,491
852.999939,455
853.117676,450
853.235535,455
853.353271,465
853.471069,457
853.588928,454
853.706604,443
853.824402,452
853.9422,446
854.059998,462
854.177734,439
854.295532,482
854.413269,465
854.531006,454
854.648804,457
854.766541,477
854.884277,461
855.002014,482
855.119751,449
855.237549,453
855.355225,457
855.473022,455
855.590698,439
855.708435,461
855.826172,460
855.943848,465
856.061646,449
856.179321,464
856.296997,465
856.414795,457
856.53241,466
856.650085,456
856.767822,450
856.885559,470
857.003174,452
857.120911,456
857.238586,449
857.356201,471
857.473938,469
857.591614,463
857.709351,479
857.826965,460
857.944641,465
858.062317,444
858.179993,463
858.297668,474
858.415283,469
858.532959,466
858.650574,454
858.768188,471
858.885803,468
859.003479,450
859.121094,464
859.23877,478
859.356384,456
859.473999,487
859.591675,461
859.709229,461
859.826843,445
859.944458,460
860.062012,451
860.179626,459
860.297302,469
860.414856,464
860.532471,445
860.650024,451
860.767639,442
860.885193,485
861.002808,479
861.120361,437
861.237976,457
861.35553,465
861.473022,452
861.590698,482
861.708191,460
861.825745,467
861.943298,465
862.060852,430
862.178406,434
862.295959,460
862.413513,437
862.531006,451
862.64856,455
862.766113,455
862.883667,459
863.00116,463
863.118713,468
863.236206,454
863.353699,458
863.471252,444
863.588745,442
863.706177,447
863.82373,449
863.941162,461
864.058716,462
864.176208,461
864.29364,453
864.411194,458
864.528687,455
864.646118,456
864.763611,447
864.881042,454
864.998535,439
865.116028,465
865.233459,457
865.350891,474
865.468384,419
865.585754,472
865.703308,428
865.820679,451
865.938171,448
866.055542,462
866.173035,439
866.290466,462
866.407837,453
866.52533,459
866.6427,451
866.760071,463
866.877563,453
866.994934,463
867.112305,433
867.229736,461
867.347107,451
867.464539,464
867.58197,467
867.699341,476
867.81665,450
867.934082,448
868.051453,470
868.168823,469
868.286194,443
868.403564,446
868.520935,466
868.638306,461
868.755676,446
868.872986,454
868.990295,463
869.107727,455
869.225037,446
869.342346,464
869.459717,452
869.577026,455
869.694336,443
869.811707,463
869.929016,445
870.046326,461
870.163635,471
870.280945,479
870.398254,453
870.515564,485
870.632812,451
870.750183,471
870.867432,455
870.984741,449
871.102051,470
871.219299,478
871.336609,459
871.453918,464
871.571106,464
871.688416,492
871.805664,466
871.922852,477
872.040222,457
872.157471,469
872.274719,475
872.391968,467
872.509155,451
872.626465,476
872.743652,466
872.860962,474
872.978149,468
873.095337,472
873.212646,466
873.329834,471
873.44696,467
873.564209,462
873.681396,457
873.798645,454
873.915894,464
874.03302,474
874.150208,468
874.267456,456
874.384583,448
874.501831,468
874.618958,451
874.736145,470
874.853333,458
874.970459,467
875.087646,450
875.204834,466
875.32196,449
875.439148,454
875.556274,460
875.673401,471
875.790527,444
875.907715,463
876.024841,449
876.141968,462
876.259094,455
876.376282,485
876.493347,459
876.610474,462
876.7276,459
876.844727,473
876.961853,479
877.078918,459
877.195984,461
877.313171,458
877.430237,452
877.547302,481
877.664368,445
877.781433,455
877.898499,443
878.015625,460
878.13269,458
878.249695,436
878.366821,450
878.483887,466
878.600952,441
878.717957,468
878.834961,468
878.952087,467
879.069092,448
879.186157,472
879.303162,476
879.420227,460
879.537231,449
879.654236,467
879.77124,452
879.888306,466
880.005249,459
880.122314,451
880.239319,453
880.356323,447
880.473328,464
880.590271,452
880.707275,465
880.824341,449
880.941284,446
881.058228,479
881.175232,449
881.292236,440
881.40918,454
881.526123,463
881.643066,451
881.760071,459
881.877014,453
881.993958,446
882.11084,444
882.227783,446
882.344727,450
882.46167,475
882.578613,447
882.695618,476
882.812439,468
882.929382,461
883.046326,466
883.163208,455
883.280151,451
883.397034,458
883.513916,449
883.630798,455
883.747742,460
883.864563,445
883.981506,466
884.098389,479
884.21521,452
884.332153,461
884.448975,462
884.565796,454
884.682678,441
884.7995,465
884.916443,472
885.033264,486
885.150085,465
885.266968,482
885.383789,458
885.500671,457
885.617493,473
885.734314,471
885.851196,452
885.967896,476
886.084717,455
886.201599,474
886.318359,461
886.435181,450
886.552002,492
886.668762,478
886.785645,470
886.902344,456
887.019165,467
887.135925,465
887.252747,475
887.369446,456
887.486267,466
887.603027,467
887.719788,459
887.836548,474
887.953247,478
888.070068,465
888.186829,447
888.303528,472
888.420288,478
888.536987,476
888.653687,457
888.770447,462
888.887146,436
889.003967,458
889.120667,459
889.237305,471
889.354065,464
889.470703,452
889.587463,454
889.704163,451
889.820862,455
889.937561,484
890.054199,457
890.170837,488
890.287598,454
890.404236,457
890.520874,445
890.637634,457
890.754211,457
890.87085,457
890.987549,460
891.104187,464
891.220886,463
891.337463,453
891.454102,453
891.57074,459
891.687378,462
891.804077,464
891.920654,459
892.037231,484
892.15387,468
892.270447,469
892.387085,457
892.503723,464
892.6203,458
892.736877,480
892.853516,454
892.970032,447
893.08667,461
893.203186,467
893.319763,469
893.43634,463
893.552917,454
893.669556,467
893.786011,442
893.902588,473
894.019165,471
894.135681,458
894.252197,448
894.368835,481
894.485291,461
894.601868,461
894.718384,467
894.8349,466
894.951355,455
895.067932,476
895.184448,473
895.300964,458
895.417419,472
895.533936,479
895.650452,448
895.766907,469
895.883423,463
895.999878,467
896.116333,472
896.232849,451
896.349304,478
896.465759,476
896.582214,474
896.698669,460
896.815125,470
896.931641,468
897.048035,450
897.164551,463
897.280884,466
897.397339,465
897.513794,490
897.630249,454
897.746582,445
897.863098,465
897.979431,468
898.095886,475
898.212341,445
898.328674,456
898.445129,457
898.561462,469
898.677795,481
898.794312,474
898.910645,452
899.026978,466
899.143433,459
899.259766,472
899.37616,474
899.492493,462
899.608765,464
899.725159,459
899.841553,460
899.957947,483
900.07428,435
900.190552,469
900.306946,471
900.423157,462
900.53949,484
900.655884,481
900.772156,470
900.888489,471
901.004822,468
901.121033,474
901.237366,456
901.353699,469
901.46991,464
901.586304,480
901.702515,479
901.818787,474
901.93512,469
902.051331,483
902.167603,463
902.283875,477
902.400085,464
902.516418,477
902.632629,470
902.74884,496
902.865112,480
902.981384,484
903.097595,465
903.213867,469
903.330017,495
903.446289,480
903.5625,478
903.67865,470
903.794922,483
903.911072,474
904.027344,469
904.143494,471
904.259705,473
904.375916,459
904.492065,461
904.608215,461
904.724426,470
904.840576,480
904.956726,445
905.072876,477
905.189087,473
905.305176,469
905.421387,472
905.537537,466
905.653687,476
905.769775,488
905.885925,461
906.002014,467
906.118164,468
906.234314,452
906.350403,455
906.466492,466
906.582642,463
906.69873,477
906.814758,490
906.930908,479
907.046936,475
907.163086,478
907.279175,468
907.395264,487
907.511353,464
907.62738,470
907.743408,463
907.859497,483
907.975525,474
908.091553,471
908.207703,455
908.32373,475
908.439758,462
908.555786,478
908.671814,473
908.787842,476
908.90387,468
909.019775,478
909.135864,456
909.251892,482
909.367859,472
909.483826,470
909.599854,476
909.715881,480
909.831848,465
909.947815,481
910.063782,475
910.179749,468
910.295776,468
910.411743,461
910.527649,461
910.643616,457
910.759583,472
910.875488,462
910.991455,458
911.107361,466
911.223267,464
911.339294,456
911.4552,485
911.571106,479
911.687073,499
911.802979,482
911.918823,469
912.034729,459
912.150635,478
912.266602,480
912.382446,447
912.498352,466
912.614197,481
912.730103,471
912.846008,473
