792.44574,1137
792.56488,1145
792.68396,1195
792.80304,1118
792.92218,1076
793.041199,1019
793.160339,984
793.279419,994
793.398499,987
793.517578,953
793.636658,938
793.755737,948
793.874817,926
793.993896,913
794.112976,883
794.232056,871
794.351074,842
794.470215,852
794.589233,854
794.708313,827
794.827393,844
794.946411,787
795.065552,829
795.18457,803
795.303589,789
795.422668,800
795.541687,798
795.660767,763
795.779846,736
795.898865,753
796.017883,741
796.136963,713
796.255981,731
796.375061,738
796.49408,733
796.613037,723
796.732117,717
796.851135,705
796.970154,688
797.089233,709
797.208191,700
797.327271,693
797.446228,694
797.565186,704
797.684265,700
797.803223,692
797.922241,673
798.04126,656
798.160278,671
798.279297,688
798.398315,657
798.517273,657
798.636292,648
798.75531,645
798.874268,666
798.993286,676
799.112244,659
799.231323,646
799.350281,656
799.469238,655
799.588257,670
799.707153,641
799.826111,636
799.945129,622
800.064087,641
800.183044,635
800.302063,639
800.421021,641
800.539978,657
800.658936,654
800.777893,617
800.896912,629
801.015747,620
801.134705,607
801.253723,630
801.37262,624
801.491638,620
801.610535,619
801.729492,627
801.84845,627
801.967407,621
802.086243,596
802.205261,633
802.324158,584
802.443115,587
802.562073,613
802.680969,639
802.799927,586
802.918762,637
803.037659,622
803.156677,616
803.275574,613
803.39447,580
803.513428,618
803.632263,617
803.751221,596
803.870117,580
803.989014,591
804.107971,628
804.226746,594
804.345642,580
804.4646,575
804.583496,579
804.702393,579
804.821228,610
804.940125,583
805.059021,599
805.177917,584
805.296814,612
805.415649,578
805.534546,611
805.653442,570
805.772278,614
805.891113,575
806.01001,592
806.128906,557
806.247742,594
806.366577,597
806.485413,587
806.604309,597
806.723145,567
806.84198,587
806.960876,589
807.079712,577
807.198486,556
807.317383,573
807.436218,574
807.554993,581
807.673889,597
807.792725,561
807.91156,582
808.030396,573
808.14917,579
808.268005,559
808.386841,587
808.505676,549
808.624451,576
808.743286,580
808.862122,579
808.980896,558
809.099731,623
809.218506,564
809.337341,568
809.456116,576
809.57489,557
809.693726,577
809.8125,579
809.931274,574
810.050049,572
810.168884,577
810.287659,587
810.406372,552
810.525269,567
810.643982,578
810.762756,577
810.881531,582
811.000305,565
811.11908,565
811.237854,598
811.356567,579
811.475403,585
811.594116,569
811.71283,575
811.831604,560
811.950378,570
812.069153,591
812.187927,569
812.30658,582
812.425415,603
812.544128,588
812.662781,580
812.781616,575
812.900269,565
813.019043,583
813.137756,543
813.256531,568
813.375244,552
813.493896,584
813.612671,552
813.731384,571
813.850037,581
813.96875,567
814.087524,572
814.206238,563
814.324951,558
814.443604,564
814.562256,570
814.68103,571
814.799683,589
814.918335,554
815.037109,569
815.155762,549
815.274475,555
815.393188,549
815.511841,578
815.630554,568
815.749146,580
815.867859,574
815.986572,547
816.105164,557
816.223877,581
816.342529,561
816.461182,565
816.579895,564
816.698486,551
816.817139,582
816.935791,580
817.054504,555
817.173096,569
817.291748,556
817.4104,559
817.529053,563
817.647644,545
817.766235,545
817.884949,545
818.00354,562
818.122192,550
818.240845,550
818.359436,544
818.478088,529
818.59668,532
818.715271,528
818.833923,548
818.952515,523
819.071106,534
819.189758,540
819.30835,529
819.426941,510
819.545532,534
819.664124,516
819.782715,519
819.901306,505
820.019897,539
820.138489,514
820.25708,513
820.375671,512
820.494202,534
820.612732,507
820.731384,516
820.849915,524
820.968506,526
821.087097,516
821.205627,543
821.324158,520
821.442749,514
821.561279,495
821.679871,504
821.798401,507
821.916931,518
822.035461,504
822.154053,499
822.272583,498
822.391174,510
822.509583,518
822.628174,529
822.746704,502
822.865234,525
822.983765,513
823.102295,508
823.220825,488
823.339294,510
823.457825,523
823.576355,516
823.694824,512
823.813354,526
823.931885,499
824.050354,509
824.168884,492
824.287354,491
824.405823,500
824.524353,516
824.642822,518
824.761353,506
824.879822,493
824.998291,526
825.116699,517
825.235291,507
825.353699,504
825.472168,495
825.590637,501
825.709106,513
825.827576,514
825.946045,506
826.064453,492
826.182983,497
826.301392,486
826.4198,505
826.53833,502
826.656738,483
826.775208,489
826.893677,487
827.012024,490
827.130493,503
827.248962,498
827.36731,510
827.485779,487
827.604248,512
827.722595,497
827.841064,500
827.959412,510
828.077942,506
828.196289,480
828.314636,509
828.433105,487
828.551514,493
828.669861,476
828.78833,491
828.906677,516
829.025085,497
829.143433,491
829.261841,489
829.38031,510
829.498657,516
829.617004,479
829.735413,483
829.85376,481
829.972107,498
830.090515,485
830.208862,481
830.327209,488
830.445557,495
830.563904,505
830.682312,492
830.800659,483
830.919006,513
831.037354,510
831.155701,500
831.274048,508
831.392395,498
831.51062,494
831.629028,505
831.747314,478
831.865662,502
831.984009,510
832.102356,497
832.220642,499
832.338928,502
832.457275,494
832.575623,517
832.693909,492
832.812134,491
832.930481,506
833.048828,516
833.167114,482
833.2854,503
833.403687,481
833.521973,505
833.640259,511
833.758545,507
833.876831,472
833.995056,517
834.113281,485
834.231628,503
834.349915,521
834.468201,498
834.586426,490
834.704651,519
834.822998,497
834.941162,490
835.059448,496
835.177673,514
835.295959,489
835.414246,504
835.53241,488
835.650635,502
835.768921,491
835.887146,515
836.005371,505
836.123596,500
836.241821,503
836.360046,510
836.478271,492
836.596497,496
836.714722,498
836.832886,489
836.95105,505
837.069336,508
837.1875,498
837.305725,479
837.423889,501
837.542053,481
837.660339,477
837.778503,494
837.896667,502
838.014832,502
838.132996,490
838.25116,502
838.369385,514
838.487488,516
838.605713,518
838.723877,527
838.84198,525
838.960205,500
839.078308,490
839.196472,520
839.314636,525
839.4328,519
839.550964,492
839.669067,518
839.787231,534
839.905396,522
840.023499,509
840.141602,549
840.259766,525
840.377869,539
840.495972,518
840.614136,544
840.732239,510
840.850342,528
840.968445,527
841.086548,541
841.204651,531
841.322754,515
841.440918,529
841.55896,550
841.677002,553
841.795166,545
841.913208,552
842.031311,559
842.149353,552
842.267456,531
842.385498,552
842.503601,551
842.621643,541
842.739746,559
842.857788,516
842.97583,553
843.093933,539
843.211975,536
843.330017,522
843.44812,533
843.566101,549
843.684204,562
843.802246,520
843.920227,528
844.038269,539
844.156311,547
844.274292,511
844.392395,556
844.510376,534
844.628357,546
844.74646,524
844.864441,540
844.982422,515
845.100403,525
845.218384,513
845.336426,508
845.454468,519
845.572449,528
845.69043,528
845.808411,530
845.926453,496
846.044373,524
846.162354,519
846.280396,527
846.398315,527
846.516296,518
846.634216,515
846.752197,535
846.870178,532
846.988098,545
847.106079,521
847.22406,522
847.34198,516
847.4599,527
847.577881,525
847.695801,527
847.813782,534
847.931641,520
848.049561,547
848.167603,521
848.285461,540
848.403381,536
848.521362,540
848.639221,552
848.75708,512
848.875,541
848.99292,534
849.110901,521
849.22876,519
849.34668,524
849.464539,513
849.582458,516
849.700317,524
849.818176,517
849.936096,533
850.053955,539
850.171875,531
850.289673,517
850.407593,536
850.525452,534
850.643311,523
850.761169,536
850.878967,533
850.996887,530
851.114746,516
851.232544,530
851.350403,507
851.468262,520
851.58606,536
851.703979,534
851.821777,513
851.939636,537
852.057434,514
852.175232,531
852.293091,511
852.410889,526
852.528687,568
852.646545,568
852.764343,572
852.88208,547
852.999939,524
853.117676,534
853.235535,515
853.353271,541
853.471069,527
853.588928,542
853.706604,532
853.824402,534
853.9422,532
854.059998,502
854.177734,521
854.295532,534
854.413269,545
854.531006,549
854.648804,508
854.766541,527
854.884277,535
855.002014,540
855.119751,530
855.237549,535
855.355225,543
855.473022,539
855.590698,524
855.708435,543
855.826172,552
855.943848,538
856.061646,535
856.179321,529
856.296997,533
856.414795,539
856.53241,559
856.650085,563
856.767822,557
856.885559,550
857.003174,541
857.120911,563
857.238586,530
857.356201,552
857.473938,545
857.591614,540
857.709351,554
857.826965,541
857.944641,544
858.062317,554
858.179993,517
858.297668,553
858.415283,539
858.532959,546
858.650574,538
858.768188,550
858.885803,520
859.003479,529
859.121094,546
859.23877,525
859.356384,530
859.473999,525
859.591675,538
859.709229,534
859.826843,512
859.944458,531
860.062012,508
860.179626,519
860.297302,522
860.414856,530
860.532471,529
860.650024,512
860.767639,515
860.885193,516
861.002808,517
861.120361,526
861.237976,540
861.35553,534
861.473022,527
861.590698,541
861.708191,519
861.825745,519
861.943298,540
862.060852,508
862.178406,518
862.295959,503
862.413513,502
862.531006,519
862.64856,489
862.766113,502
862.883667,508
863.00116,504
863.118713,507
863.236206,491
863.353699,513
863.471252,506
863.588745,497
863.706177,513
863.82373,503
863.941162,513
864.058716,494
864.176208,516
864.29364,507
864.411194,511
864.528687,510
864.646118,514
864.763611,505
864.881042,513
864.998535,502
865.116028,516
865.233459,502
865.350891,515
865.468384,499
865.585754,512
865.703308,503
865.820679,523
865.938171,506
866.055542,499
866.173035,490
866.290466,494
866.407837,482
866.52533,487
866.6427,523
866.760071,509
866.877563,507
866.994934,499
867.112305,495
867.229736,515
867.347107,499
867.464539,514
867.58197,503
867.699341,526
867.81665,507
867.934082,495
868.051453,511
868.168823,521
868.286194,516
868.403564,510
868.520935,496
868.638306,504
868.755676,496
868.872986,524
868.990295,505
869.107727,526
869.225037,502
869.342346,511
869.459717,521
869.577026,521
869.694336,525
869.811707,514
869.929016,523
870.046326,521
870.163635,530
870.280945,542
870.398254,527
870.515564,549
870.632812,513
870.750183,547
870.867432,548
870.984741,547
871.102051,551
871.219299,536
871.336609,545
871.453918,557
871.571106,554
871.688416,559
871.805664,534
871.922852,587
872.040222,551
872.157471,537
872.274719,535
872.391968,564
872.509155,563
872.626465,543
872.743652,563
872.860962,551
872.978149,556
873.095337,551
873.212646,528
873.329834,546
873.44696,554
873.564209,536
873.681396,536
873.798645,545
873.915894,548
874.03302,532
874.150208,518
874.267456,570
874.384583,527
874.501831,560
874.618958,538
874.736145,569
874.853333,551
874.970459,540
875.087646,569
875.204834,575
875.32196,575
875.439148,541
875.556274,534
875.673401,559
875.790527,531
875.907715,526
876.024841,527
876.141968,556
876.259094,528
876.376282,522
876.493347,527
876.610474,545
876.7276,517
876.844727,531
876.961853,534
877.078918,520
877.195984,514
877.313171,524
877.430237,517
877.547302,519
877.664368,526
877.781433,515
877.898499,512
878.015625,535
878.13269,499
878.249695,532
878.366821,540
878.483887,515
878.600952,493
878.717957,520
878.834961,511
878.952087,519
879.069092,530
879.186157,509
879.303162,512
879.420227,517
879.537231,497
879.654236,485
879.77124,516
879.888306,514
880.005249,509
880.122314,509
880.239319,500
880.356323,481
880.473328,492
880.590271,490
880.707275,495
880.824341,495
880.941284,487
881.058228,497
881.175232,487
881.292236,489
881.40918,494
881.526123,508
881.643066,497
881.760071,481
881.877014,530
881.993958,479
882.11084,468
882.227783,498
882.344727,489
882.46167,490
882.578613,480
882.695618,496
882.812439,494
882.929382,491
883.046326,509
883.163208,508
883.280151,515
883.397034,513
883.513916,495
883.630798,512
883.747742,484
883.864563,519
883.981506,527
884.098389,507
884.21521,503
884.332153,522
884.448975,496
884.565796,530
884.682678,538
884.7995,542
884.916443,549
885.033264,561
885.150085,586
885.266968,605
885.383789,585
885.500671,592
885.617493,590
885.734314,607
885.851196,615
885.967896,599
886.084717,604
886.201599,619
886.318359,586
886.435181,584
886.552002,593
886.668762,586
886.785645,566
886.902344,595
887.019165,570
887.135925,558
887.252747,584
887.369446,552
887.486267,561
887.603027,554
887.719788,546
887.836548,548
887.953247,518
888.070068,534
888.186829,511
888.303528,502
888.420288,519
888.536987,519
888.653687,490
888.770447,488
888.887146,480
889.003967,479
889.120667,475
889.237305,507
889.354065,466
889.470703,485
889.587463,478
889.704163,506
889.820862,481
889.937561,479
890.054199,470
890.170837,489
890.287598,467
890.404236,485
890.520874,461
890.637634,481
890.754211,460
890.87085,476
890.987549,467
891.104187,488
891.220886,473
891.337463,482
891.454102,490
891.57074,481
891.687378,482
891.804077,487
891.920654,477
892.037231,463
892.15387,486
892.270447,487
892.387085,475
892.503723,492
892.6203,473
892.736877,490
892.853516,491
892.970032,493
893.08667,472
893.203186,474
893.319763,484
893.43634,478
893.552917,474
893.669556,477
893.786011,465
893.902588,478
894.019165,479
894.135681,484
894.252197,468
894.368835,492
894.485291,464
894.601868,471
894.718384,473
894.8349,480
894.951355,480
895.067932,455
895.184448,465
895.300964,470
895.417419,491
895.533936,466
895.650452,466
895.766907,466
895.883423,477
895.999878,483
896.116333,475
896.232849,474
896.349304,483
896.465759,482
896.582214,470
896.698669,479
896.815125,477
896.931641,481
897.048035,489
897.164551,488
897.280884,471
897.397339,469
897.513794,473
897.630249,494
897.746582,478
897.863098,479
897.979431,468
898.095886,489
898.212341,478
898.328674,473
898.445129,491
898.561462,475
898.677795,464
898.794312,483
898.910645,486
899.026978,484
899.143433,487
899.259766,470
899.37616,476
899.492493,481
899.608765,502
899.725159,481
899.841553,507
899.957947,485
900.07428,494
900.190552,485
900.306946,487
900.423157,473
900.53949,490
900.655884,514
900.772156,493
900.888489,503
901.004822,470
901.121033,500
901.237366,475
901.353699,486
901.46991,499
901.586304,494
901.702515,484
901.818787,524
901.93512,508
902.051331,519
902.167603,494
902.283875,511
902.400085,508
902.516418,533
902.632629,529
902.74884,540
902.865112,534
902.981384,529
903.097595,562
903.213867,511
903.330017,561
903.446289,531
903.5625,509
903.67865,528
903.794922,523
903.911072,498
904.027344,496
904.143494,503
904.259705,505
904.375916,513
904.492065,508
904.608215,496
904.724426,510
904.840576,515
904.956726,503
905.072876,499
905.189087,480
905.305176,510
905.421387,516
905.537537,478
905.653687,472
905.769775,486
905.885925,464
906.002014,480
906.118164,486
906.234314,471
906.350403,483
906.466492,476
906.582642,465
906.69873,474
906.814758,467
906.930908,484
907.046936,473
907.163086,475
907.279175,478
907.395264,461
907.511353,456
907.62738,480
907.743408,466
907.859497,485
907.975525,476
908.091553,471
908.207703,491
908.32373,483
908.439758,484
908.555786,474
908.671814,464
908.787842,471
908.90387,503
909.019775,486
909.135864,463
909.251892,500
909.367859,471
909.483826,476
909.599854,481
909.715881,492
909.831848,455
909.947815,494
910.063782,484
910.179749,490
910.295776,491
910.411743,464
910.527649,478
910.643616,468
910.759583,481
910.875488,473
910.991455,440
911.107361,474
911.223267,469
911.339294,480
911.4552,469
911.571106,461
911.687073,468
911.802979,454
911.918823,479
912.034729,488
912.150635,468
912.266602,470
912.382446,463
912.498352,464
912.614197,482
912.730103,456
912.846008,470
792.44574,1126
792.56488,1156
792.68396,1137
792.80304,1090
792.92218,1052
793.041199,996
793.160339,1003
793.279419,1008
793.398499,999
793.517578,929
793.636658,919
793.755737,951
793.874817,934
793.993896,924
794.112976,860
794.232056,858
794.351074,852
794.470215,833
794.589233,845
794.708313,848
794.827393,847
794.946411,805
795.065552,816
795.18457,825
795.303589,787
795.422668,791
795.541687,765
795.660767,777
795.779846,753
795.898865,767
796.017883,742
796.136963,769
796.255981,729
796.375061,738
796.49408,718
796.613037,692
796.732117,742
796.851135,705
796.970154,726
797.089233,709
797.208191,712
797.327271,697
797.446228,699
797.565186,689
797.684265,696
797.803223,660
797.922241,681
798.04126,662
798.160278,668
798.279297,682
798.398315,656
798.517273,663
798.636292,651
798.75531,674
798.874268,672
798.993286,656
799.112244,682
799.231323,634
799.350281,673
799.469238,663
799.588257,650
799.707153,654
799.826111,649
799.945129,660
800.064087,643
800.183044,629
800.302063,628
800.421021,595
800.539978,652
800.658936,627
800.777893,616
800.896912,642
801.015747,636
801.134705,599
801.253723,659
801.37262,629
801.491638,627
801.610535,628
801.729492,628
801.84845,614
801.967407,623
802.086243,615
802.205261,625
802.324158,609
802.443115,598
802.562073,603
802.680969,619
802.799927,594
802.918762,606
803.037659,619
803.156677,604
803.275574,593
803.39447,610
803.513428,619
803.632263,618
803.751221,567
803.870117,601
803.989014,602
804.107971,585
804.226746,611
804.345642,591
804.4646,610
804.583496,592
804.702393,603
804.821228,609
804.940125,567
805.059021,603
805.177917,588
805.296814,588
805.415649,596
805.534546,606
805.653442,556
805.772278,583
805.891113,582
806.01001,577
806.128906,598
806.247742,603
806.366577,588
806.485413,546
806.604309,589
806.723145,572
806.84198,582
806.960876,588
807.079712,576
807.198486,583
807.317383,553
807.436218,571
807.554993,577
807.673889,588
807.792725,582
807.91156,572
808.030396,567
808.14917,566
808.268005,579
808.386841,588
808.505676,580
808.624451,564
808.743286,578
808.862122,571
808.980896,574
809.099731,580
809.218506,558
809.337341,558
809.456116,538
809.57489,571
809.693726,577
809.8125,593
809.931274,584
810.050049,566
810.168884,552
810.287659,550
810.406372,568
810.525269,568
810.643982,574
810.762756,587
810.881531,572
811.000305,588
811.11908,574
811.237854,570
811.356567,563
811.475403,561
811.594116,591
811.71283,596
811.831604,578
811.950378,590
812.069153,585
812.187927,587
812.30658,589
812.425415,564
812.544128,573
812.662781,580
812.781616,596
812.900269,599
813.019043,560
813.137756,588
813.256531,590
813.375244,574
813.493896,590
813.612671,582
813.731384,570
813.850037,563
813.96875,590
814.087524,560
814.206238,542
814.324951,566
814.443604,561
814.562256,558
814.68103,555
814.799683,554
814.918335,570
815.037109,561
815.155762,580
815.274475,559
815.393188,591
815.511841,559
815.630554,520
815.749146,559
815.867859,572
815.986572,588
816.105164,573
816.223877,570
816.342529,562
816.461182,573
816.579895,577
816.698486,576
816.817139,581
816.935791,583
817.054504,591
817.173096,578
817.291748,565
817.4104,579
817.529053,563
817.647644,547
817.766235,553
817.884949,548
818.00354,547
818.122192,539
818.240845,552
818.359436,555
818.478088,544
818.59668,539
818.715271,537
818.833923,538
818.952515,520
819.071106,521
819.189758,526
819.30835,520
819.426941,537
819.545532,522
819.664124,512
819.782715,528
819.901306,500
820.019897,518
820.138489,515
820.25708,532
820.375671,506
820.494202,517
820.612732,508
820.731384,547
820.849915,530
820.968506,520
821.087097,498
821.205627,508
821.324158,519
821.442749,524
821.561279,498
821.679871,511
821.798401,512
821.916931,504
822.035461,517
822.154053,511
822.272583,514
822.391174,506
822.509583,489
822.628174,510
822.746704,515
822.865234,511
822.983765,505
823.102295,507
823.220825,512
823.339294,524
823.457825,483
823.576355,513
823.694824,512
823.813354,509
823.931885,502
824.050354,505
824.168884,492
824.287354,517
824.405823,507
824.524353,519
824.642822,521
824.761353,509
824.879822,527
824.998291,519
825.116699,531
825.235291,495
825.353699,514
825.472168,504
825.590637,513
825.709106,503
825.827576,509
825.946045,525
826.064453,502
826.182983,489
826.301392,499
826.4198,512
826.53833,499
826.656738,509
826.775208,486
826.893677,495
827.012024,498
827.130493,524
827.248962,497
827.36731,503
827.485779,488
827.604248,538
827.722595,487
827.841064,505
827.959412,485
828.077942,494
828.196289,497
828.314636,473
828.433105,505
828.551514,506
828.669861,484
828.78833,485
828.906677,493
829.025085,490
829.143433,489
829.261841,486
829.38031,505
829.498657,493
829.617004,504
829.735413,502
829.85376,511
829.972107,498
830.090515,468
830.208862,517
830.327209,487
830.445557,496
830.563904,515
830.682312,509
830.800659,489
830.919006,488
831.037354,484
831.155701,519
831.274048,514
831.392395,508
831.51062,491
831.629028,513
831.747314,514
831.865662,510
831.984009,504
832.102356,494
832.220642,525
832.338928,489
832.457275,503
832.575623,490
832.693909,504
832.812134,487
832.930481,497
833.048828,509
833.167114,492
833.2854,483
833.403687,491
833.521973,497
833.640259,505
833.758545,488
833.876831,487
833.995056,512
834.113281,522
834.231628,489
834.349915,504
834.468201,507
834.586426,493
834.704651,511
834.822998,492
834.941162,495
835.059448,505
835.177673,515
835.295959,487
835.414246,529
835.53241,517
835.650635,492
835.768921,511
835.887146,495
836.005371,510
836.123596,502
836.241821,503
836.360046,507
836.478271,487
836.596497,490
836.714722,485
836.832886,493
836.95105,493
837.069336,504
837.1875,487
837.305725,494
837.423889,507
837.542053,487
837.660339,479
837.778503,509
837.896667,508
838.014832,509
838.132996,493
838.25116,517
838.369385,518
838.487488,528
838.605713,477
838.723877,511
838.84198,520
838.960205,533
839.078308,503
839.196472,509
839.314636,497
839.4328,522
839.550964,519
839.669067,522
839.787231,526
839.905396,543
840.023499,540
840.141602,518
840.259766,529
840.377869,512
840.495972,526
840.614136,528
840.732239,534
840.850342,539
840.968445,521
841.086548,529
841.204651,524
841.322754,556
841.440918,519
841.55896,550
841.677002,538
841.795166,550
841.913208,543
842.031311,537
842.149353,537
842.267456,545
842.385498,539
842.503601,562
842.621643,564
842.739746,525
842.857788,554
842.97583,558
843.093933,538
843.211975,533
843.330017,526
843.44812,543
843.566101,506
843.684204,516
843.802246,544
843.920227,529
844.038269,533
844.156311,539
844.274292,522
844.392395,543
844.510376,547
844.628357,529
844.74646,518
844.864441,530
844.982422,525
845.100403,519
845.218384,522
845.336426,511
845.454468,535
845.572449,532
845.69043,520
845.808411,514
845.926453,506
846.044373,528
846.162354,536
846.280396,527
846.398315,536
846.516296,524
846.634216,521
846.752197,539
846.870178,521
846.988098,514
847.106079,531
847.22406,540
847.34198,523
847.4599,532
847.577881,529
847.695801,544
847.813782,515
847.931641,535
848.049561,538
848.167603,536
848.285461,519
848.403381,532
848.521362,519
848.639221,527
848.75708,520
848.875,533
848.99292,514
849.110901,549
849.22876,536
849.34668,555
849.464539,538
849.582458,546
849.700317,534
849.818176,550
849.936096,525
850.053955,542
850.171875,539
850.289673,529
850.407593,529
850.525452,515
850.643311,542
850.761169,542
850.878967,519
850.996887,542
851.114746,530
851.232544,524
851.350403,508
851.468262,530
851.58606,523
851.703979,518
851.821777,525
851.939636,517
852.057434,504
852.175232,522
852.293091,518
852.410889,535
852.528687,545
852.646545,561
852.764343,559
852.88208,546
852.999939,531
853.117676,538
853.235535,547
853.353271,524
853.471069,521
853.588928,513
853.706604,501
853.824402,532
853.9422,522
854.059998,528
854.177734,541
854.295532,521
854.413269,524
854.531006,548
854.648804,537
854.766541,544
854.884277,544
855.002014,536
855.119751,535
855.237549,558
855.355225,531
855.473022,525
855.590698,551
855.708435,532
855.826172,544
855.943848,548
856.061646,529
856.179321,541
856.296997,543
856.414795,547
856.53241,558
856.650085,541
856.767822,563
856.885559,569
857.003174,526
857.120911,562
857.238586,546
857.356201,534
857.473938,530
857.591614,530
857.709351,556
857.826965,542
857.944641,557
858.062317,525
858.179993,541
858.297668,526
858.415283,554
858.532959,525
858.650574,543
858.768188,553
858.885803,554
859.003479,572
859.121094,552
859.23877,552
859.356384,501
859.473999,547
859.591675,522
859.709229,519
859.826843,531
859.944458,533
860.062012,523
860.179626,539
860.297302,515
860.414856,524
860.532471,521
860.650024,528
860.767639,515
860.885193,527
861.002808,540
861.120361,517
861.237976,524
861.35553,521
861.473022,517
861.590698,535
861.708191,527
861.825745,530
861.943298,517
862.060852,517
862.178406,517
862.295959,510
862.413513,514
862.531006,493
862.64856,493
862.766113,491
862.883667,491
863.00116,505
863.118713,503
863.236206,529
863.353699,496
863.471252,525
863.588745,502
863.706177,526
863.82373,533
863.941162,520
864.058716,496
864.176208,551
864.29364,506
864.411194,499
864.528687,529
864.646118,490
864.763611,520
864.881042,504
864.998535,511
865.116028,523
865.233459,495
865.350891,494
865.468384,527
865.585754,517
865.703308,507
865.820679,528
865.938171,489
866.055542,509
866.173035,490
866.290466,505
866.407837,509
866.52533,526
866.6427,485
866.760071,506
866.877563,516
866.994934,512
867.112305,524
867.229736,511
867.347107,520
867.464539,515
867.58197,499
867.699341,516
867.81665,507
867.934082,524
868.051453,515
868.168823,480
868.286194,511
868.403564,506
868.520935,519
868.638306,516
868.755676,522
868.872986,515
868.990295,504
869.107727,512
869.225037,533
869.342346,541
869.459717,518
869.577026,522
869.694336,536
869.811707,522
869.929016,520
870.046326,518
870.163635,516
870.280945,531
870.398254,537
870.515564,547
870.632812,549
870.750183,552
870.867432,531
870.984741,540
871.102051,547
871.219299,540
871.336609,544
871.453918,544
871.571106,562
871.688416,562
871.805664,566
871.922852,546
872.040222,551
872.157471,549
872.274719,575
872.391968,578
872.509155,550
872.626465,539
872.743652,546
872.860962,560
872.978149,553
873.095337,555
873.212646,567
873.329834,540
873.44696,532
873.564209,559
873.681396,537
873.798645,571
873.915894,560
874.03302,549
874.150208,528
874.267456,527
874.384583,542
874.501831,548
874.618958,550
874.736145,570
874.853333,549
874.970459,550
875.087646,570
875.204834,547
875.32196,535
875.439148,539
875.556274,542
875.673401,541
875.790527,541
875.907715,551
876.024841,530
876.141968,535
876.259094,556
876.376282,514
876.493347,528
876.610474,537
876.7276,540
876.844727,540
876.961853,551
877.078918,528
877.195984,514
877.313171,526
877.430237,518
877.547302,529
877.664368,532
877.781433,517
877.898499,529
878.015625,544
878.13269,524
878.249695,507
878.366821,518
878.483887,532
878.600952,512
878.717957,514
878.834961,509
878.952087,522
879.069092,496
879.186157,516
879.303162,499
879.420227,503
879.537231,491
879.654236,518
879.77124,481
879.888306,491
880.005249,498
880.122314,498
880.239319,488
880.356323,493
880.473328,492
880.590271,504
880.707275,482
880.824341,494
880.941284,497
881.058228,515
881.175232,513
881.292236,498
881.40918,501
881.526123,504
881.643066,499
881.760071,500
881.877014,495
881.993958,500
882.11084,507
882.227783,499
882.344727,497
882.46167,483
882.578613,482
882.695618,497
882.812439,493
882.929382,492
883.046326,495
883.163208,490
883.280151,497
883.397034,496
883.513916,485
883.630798,489
883.747742,510
883.864563,482
883.981506,502
884.098389,522
884.21521,494
884.332153,516
884.448975,516
884.565796,524
884.682678,532
884.7995,563
884.916443,564
885.033264,564
885.150085,585
885.266968,599
885.383789,605
885.500671,608
885.617493,593
885.734314,614
885.851196,604
885.967896,619
886.084717,612
886.201599,586
886.318359,603
886.435181,588
886.552002,580
886.668762,594
886.785645,595
886.902344,566
887.019165,585
887.135925,593
887.252747,584
887.369446,547
887.486267,564
887.603027,575
887.719788,549
887.836548,548
887.953247,525
888.070068,538
888.186829,509
888.303528,502
888.420288,504
888.536987,490
888.653687,501
888.770447,496
888.887146,490
889.003967,506
889.120667,488
889.237305,470
889.354065,479
889.470703,465
889.587463,470
889.704163,486
889.820862,485
889.937561,476
890.054199,473
890.170837,478
890.287598,514
890.404236,455
890.520874,480
890.637634,478
890.754211,480
890.87085,484
890.987549,479
891.104187,503
891.220886,469
891.337463,467
891.454102,470
891.57074,496
891.687378,474
891.804077,479
891.920654,497
892.037231,490
892.15387,507
892.270447,475
892.387085,474
892.503723,487
892.6203,482
892.736877,487
892.853516,489
892.970032,477
893.08667,482
893.203186,504
893.319763,494
893.43634,505
893.552917,464
893.669556,469
893.786011,471
893.902588,492
894.019165,483
894.135681,505
894.252197,458
894.368835,478
894.485291,496
894.601868,495
894.718384,461
894.8349,487
894.951355,480
895.067932,488
895.184448,462
895.300964,484
895.417419,471
895.533936,484
895.650452,488
895.766907,489
895.883423,494
895.999878,484
896.116333,463
896.232849,479
896.349304,476
896.465759,482
896.582214,490
896.698669,479
896.815125,488
896.931641,494
897.048035,473
897.164551,493
897.280884,476
897.397339,485
897.513794,482
897.630249,486
897.746582,472
897.863098,482
897.979431,476
898.095886,490
898.212341,473
898.328674,508
898.445129,484
898.561462,482
898.677795,478
898.794312,500
898.910645,491
899.026978,482
899.143433,464
899.259766,491
899.37616,467
899.492493,502
899.608765,472
899.725159,487
899.841553,487
899.957947,497
900.07428,486
900.190552,491
900.306946,473
900.423157,504
900.53949,476
900.655884,471
900.772156,480
900.888489,494
901.004822,471
901.121033,480
901.237366,469
901.353699,492
901.46991,491
901.586304,513
901.702515,478
901.818787,502
901.93512,509
902.051331,496
902.167603,519
902.283875,532
902.400085,539
902.516418,528
902.632629,541
902.74884,532
902.865112,535
902.981384,567
903.097595,513
903.213867,549
903.330017,538
903.446289,534
903.5625,539
903.67865,548
903.794922,531
903.911072,529
904.027344,527
904.143494,518
904.259705,505
904.375916,500
904.492065,508
904.608215,504
904.724426,489
904.840576,488
904.956726,498
905.072876,495
905.189087,485
905.305176,510
905.421387,478
905.537537,478
905.653687,492
905.769775,486
905.885925,499
906.002014,499
906.118164,465
906.234314,482
906.350403,481
906.466492,466
906.582642,463
906.69873,485
906.814758,485
906.930908,476
907.046936,462
907.163086,486
907.279175,445
907.395264,469
907.511353,442
907.62738,476
907.743408,475
907.859497,482
907.975525,467
908.091553,481
908.207703,465
908.32373,471
908.439758,466
908.555786,473
908.671814,469
908.787842,474
908.90387,488
909.019775,499
909.135864,477
909.251892,474
909.367859,486
909.483826,503
909.599854,493
909.715881,481
909.831848,477
909.947815,482
910.063782,493
910.179749,461
910.295776,505
910.411743,496
910.527649,470
910.643616,469
910.759583,463
910.875488,491
910.991455,469
911.107361,480
911.223267,461
911.339294,483
911.4552,483
911.571106,470
911.687073,457
911.802979,472
911.918823,485
912.034729,477
912.150635,467
912.266602,476
912.382446,465
912.498352,465
912.614197,463
912.730103,496
912.846008,461
792.44574,1137
792.56488,1126
792.68396,1214
792.80304,1134
792.92218,1038
793.041199,1005
793.160339,1017
793.279419,989
793.398499,1004
793.517578,959
793.636658,970
793.755737,916
793.874817,943
793.993896,925
794.112976,879
794.232056,851
794.351074,864
794.470215,888
794.589233,869
794.708313,847
794.827393,777
794.946411,801
795.065552,815
795.18457,800
795.303589,795
795.422668,803
795.541687,782
795.660767,763
795.779846,760
795.898865,751
796.017883,762
796.136963,740
796.255981,718
796.375061,727
796.49408,732
796.613037,727
796.732117,721
796.851135,716
796.970154,715
797.089233,701
797.208191,700
797.327271,691
797.446228,719
797.565186,706
797.684265,687
797.803223,692
797.922241,688
798.04126,685
798.160278,672
798.279297,675
798.398315,669
798.517273,684
798.636292,674
798.75531,668
798.874268,658
798.993286,650
799.112244,650
799.231323,665
799.350281,666
799.469238,664
799.588257,628
799.707153,648
799.826111,660
799.945129,643
800.064087,627
800.183044,651
800.302063,658
800.421021,632
800.539978,629
800.658936,622
800.777893,660
800.896912,634
801.015747,643
801.134705,637
801.253723,617
801.37262,645
801.491638,607
801.610535,625
801.729492,601
801.84845,608
801.967407,609
802.086243,611
802.205261,621
802.324158,598
802.443115,609
802.562073,630
802.680969,624
802.799927,592
802.918762,624
803.037659,578
803.156677,627
803.275574,615
803.39447,606
803.513428,611
803.632263,576
803.751221,615
803.870117,605
803.989014,610
804.107971,608
804.226746,603
804.345642,576
804.4646,595
804.583496,618
804.702393,605
804.821228,597
804.940125,608
805.059021,599
805.177917,583
805.296814,574
805.415649,580
805.534546,599
805.653442,600
805.772278,574
805.891113,595
806.01001,578
806.128906,585
806.247742,580
806.366577,589
806.485413,574
806.604309,573
806.723145,563
806.84198,568
806.960876,602
807.079712,606
807.198486,588
807.317383,597
807.436218,562
807.554993,591
807.673889,585
807.792725,568
807.91156,562
808.030396,604
808.14917,576
808.268005,567
808.386841,594
808.505676,553
808.624451,574
808.743286,591
808.862122,585
808.980896,549
809.099731,582
809.218506,568
809.337341,592
809.456116,580
809.57489,556
809.693726,588
809.8125,584
809.931274,578
810.050049,588
810.168884,584
810.287659,562
810.406372,584
810.525269,576
810.643982,580
810.762756,568
810.881531,574
811.000305,562
811.11908,572
811.237854,583
811.356567,579
811.475403,586
811.594116,569
811.71283,588
811.831604,583
811.950378,586
812.069153,602
812.187927,580
812.30658,611
812.425415,574
812.544128,585
812.662781,579
812.781616,578
812.900269,586
813.019043,584
813.137756,599
813.256531,564
813.375244,581
813.493896,569
813.612671,555
813.731384,587
813.850037,563
813.96875,564
814.087524,576
814.206238,564
814.324951,581
814.443604,565
814.562256,555
814.68103,553
814.799683,574
814.918335,548
815.037109,554
815.155762,555
815.274475,580
815.393188,567
815.511841,556
815.630554,563
815.749146,566
815.867859,558
815.986572,566
816.105164,564
816.223877,559
816.342529,559
816.461182,573
816.579895,577
816.698486,568
816.817139,584
816.935791,569
817.054504,588
817.173096,576
817.291748,595
817.4104,565
817.529053,578
817.647644,545
817.766235,548
817.884949,563
818.00354,547
818.122192,572
818.240845,538
818.359436,542
818.478088,529
818.59668,536
818.715271,529
818.833923,520
818.952515,530
819.071106,511
819.189758,535
819.30835,534
819.426941,540
819.545532,536
819.664124,517
819.782715,531
819.901306,512
820.019897,534
820.138489,541
820.25708,532
820.375671,535
820.494202,550
820.612732,508
820.731384,505
820.849915,529
820.968506,528
821.087097,525
821.205627,538
821.324158,519
821.442749,525
821.561279,517
821.679871,510
821.798401,507
821.916931,532
822.035461,508
822.154053,539
822.272583,493
822.391174,513
822.509583,516
822.628174,509
822.746704,509
822.865234,511
822.983765,512
823.102295,514
823.220825,516
823.339294,507
823.457825,511
823.576355,506
823.694824,523
823.813354,501
823.931885,505
824.050354,516
824.168884,512
824.287354,502
824.405823,516
824.524353,510
824.642822,490
824.761353,486
824.879822,523
824.998291,501
825.116699,522
825.235291,508
825.353699,551
825.472168,519
825.590637,503
825.709106,511
825.827576,490
825.946045,521
826.064453,501
826.182983,504
826.301392,498
826.4198,504
826.53833,510
826.656738,473
826.775208,494
826.893677,487
827.012024,504
827.130493,499
827.248962,501
827.36731,497
827.485779,526
827.604248,510
827.722595,489
827.841064,506
827.959412,478
828.077942,502
828.196289,464
828.314636,494
828.433105,515
828.551514,478
828.669861,489
828.78833,486
828.906677,489
829.025085,510
829.143433,490
829.261841,493
829.38031,493
829.498657,489
829.617004,489
829.735413,498
829.85376,516
829.972107,477
830.090515,488
830.208862,495
830.327209,501
830.445557,493
830.563904,495
830.682312,477
830.800659,502
830.919006,489
831.037354,509
831.155701,491
831.274048,492
831.392395,493
831.51062,497
831.629028,517
831.747314,505
831.865662,498
831.984009,491
832.102356,518
832.220642,507
832.338928,520
832.457275,536
832.575623,519
832.693909,504
832.812134,485
832.930481,487
833.048828,515
833.167114,485
833.2854,492
833.403687,502
833.521973,507
833.640259,500
833.758545,505
833.876831,504
833.995056,509
834.113281,500
834.231628,508
834.349915,504
834.468201,503
834.586426,519
834.704651,491
834.822998,527
834.941162,515
835.059448,492
835.177673,519
835.295959,522
835.414246,508
835.53241,521
835.650635,490
835.768921,504
835.887146,498
836.005371,477
836.123596,510
836.241821,496
836.360046,510
836.478271,499
836.596497,492
836.714722,484
836.832886,471
836.95105,495
837.069336,512
837.1875,490
837.305725,511
837.423889,511
837.542053,520
837.660339,503
837.778503,506
837.896667,512
838.014832,507
838.132996,486
838.25116,491
838.369385,500
838.487488,521
838.605713,492
838.723877,528
838.84198,497
838.960205,503
839.078308,516
839.196472,518
839.314636,502
839.4328,524
839.550964,527
839.669067,520
839.787231,506
839.905396,536
840.023499,512
840.141602,539
840.259766,512
840.377869,538
840.495972,530
840.614136,532
840.732239,530
840.850342,533
840.968445,525
841.086548,528
841.204651,532
841.322754,552
841.440918,533
841.55896,530
841.677002,532
841.795166,564
841.913208,542
842.031311,549
842.149353,542
842.267456,538
842.385498,519
842.503601,520
842.621643,550
842.739746,533
842.857788,530
842.97583,537
843.093933,530
843.211975,517
843.330017,538
843.44812,531
843.566101,518
843.684204,543
843.802246,528
843.920227,551
844.038269,537
844.156311,533
844.274292,524
844.392395,547
844.510376,508
844.628357,529
844.74646,521
844.864441,532
844.982422,519
845.100403,523
845.218384,506
845.336426,529
845.454468,518
845.572449,540
845.69043,525
845.808411,525
845.926453,487
846.044373,532
846.162354,549
846.280396,530
846.398315,518
846.516296,534
846.634216,531
846.752197,515
846.870178,536
846.988098,521
847.106079,520
847.22406,535
847.34198,528
847.4599,531
847.577881,538
847.695801,526
847.813782,523
847.931641,531
848.049561,541
848.167603,544
848.285461,522
848.403381,529
848.521362,530
848.639221,530
848.75708,550
848.875,544
848.99292,524
849.110901,541
849.22876,530
849.34668,550
849.464539,536
849.582458,534
849.700317,522
849.818176,520
849.936096,524
850.053955,563
850.171875,548
850.289673,531
850.407593,517
850.525452,531
850.643311,523
850.761169,535
850.878967,534
850.996887,533
851.114746,510
851.232544,519
851.350403,516
851.468262,529
851.58606,503
851.703979,528
851.821777,531
851.939636,514
852.057434,550
852.175232,515
852.293091,529
852.410889,521
852.528687,566
852.646545,564
852.764343,556
852.88208,564
852.999939,537
853.117676,551
853.235535,531
853.353271,534
853.471069,512
853.588928,520
853.706604,522
853.824402,519
853.9422,527
854.059998,551
854.177734,547
854.295532,529
854.413269,527
854.531006,554
854.648804,532
854.766541,535
854.884277,542
855.002014,515
855.119751,515
855.237549,507
855.355225,534
855.473022,542
855.590698,516
855.708435,567
855.826172,510
855.943848,542
856.061646,530
856.179321,547
856.296997,521
856.414795,551
856.53241,522
856.650085,552
856.767822,539
856.885559,559
857.003174,550
857.120911,543
857.238586,558
857.356201,550
857.473938,532
857.591614,551
857.709351,546
857.826965,545
857.944641,559
858.062317,549
858.179993,512
858.297668,555
858.415283,554
858.532959,540
858.650574,528
858.768188,554
858.885803,555
859.003479,529
859.121094,532
859.23877,531
859.356384,532
859.473999,522
859.591675,526
859.709229,532
859.826843,533
859.944458,536
860.062012,526
860.179626,522
860.297302,528
860.414856,546
860.532471,527
860.650024,514
860.767639,532
860.885193,544
861.002808,512
861.120361,523
861.237976,534
861.35553,521
861.473022,524
861.590698,522
861.708191,506
861.825745,521
861.943298,538
862.060852,525
862.178406,502
862.295959,513
862.413513,486
862.531006,506
862.64856,515
862.766113,499
862.883667,521
863.00116,528
863.118713,510
863.236206,489
863.353699,516
863.471252,501
863.588745,509
863.706177,489
863.82373,533
863.941162,504
864.058716,515
864.176208,530
864.29364,507
864.411194,542
864.528687,511
864.646118,516
864.763611,513
864.881042,500
864.998535,511
865.116028,512
865.233459,494
865.350891,497
865.468384,499
865.585754,499
865.703308,509
865.820679,506
865.938171,482
866.055542,504
866.173035,515
866.290466,519
866.407837,506
866.52533,514
866.6427,494
866.760071,485
866.877563,496
866.994934,508
867.112305,500
867.229736,501
867.347107,518
867.464539,517
867.58197,518
867.699341,512
867.81665,519
867.934082,518
868.051453,512
868.168823,518
868.286194,520
868.403564,523
868.520935,516
868.638306,513
868.755676,514
868.872986,508
868.990295,521
869.107727,520
869.225037,534
869.342346,520
869.459717,536
869.577026,524
869.694336,523
869.811707,542
869.929016,530
870.046326,539
870.163635,537
870.280945,519
870.398254,540
870.515564,538
870.632812,534
870.750183,556
870.867432,536
870.984741,549
871.102051,547
871.219299,572
871.336609,541
871.453918,554
871.571106,544
871.688416,540
871.805664,555
871.922852,554
872.040222,552
872.157471,551
872.274719,534
872.391968,555
872.509155,537
872.626465,562
872.743652,553
872.860962,550
872.978149,535
873.095337,546
873.212646,558
873.329834,524
873.44696,530
873.564209,540
873.681396,550
873.798645,544
873.915894,535
874.03302,536
874.150208,539
874.267456,557
874.384583,548
874.501831,564
874.618958,557
874.736145,554
874.853333,556
874.970459,564
875.087646,562
875.204834,563
875.32196,565
875.439148,555
875.556274,524
875.673401,508
875.790527,555
875.907715,556
876.024841,544
876.141968,552
876.259094,520
876.376282,538
876.493347,539
876.610474,528
876.7276,523
876.844727,535
876.961853,519
877.078918,530
877.195984,526
877.313171,532
877.430237,547
877.547302,511
877.664368,539
877.781433,535
877.898499,527
878.015625,525
878.13269,524
878.249695,528
878.366821,525
878.483887,529
878.600952,502
878.717957,517
878.834961,520
878.952087,497
879.069092,486
879.186157,498
879.303162,511
879.420227,511
879.537231,515
879.654236,507
879.77124,483
879.888306,510
880.005249,486
880.122314,514
880.239319,497
880.356323,484
880.473328,509
880.590271,495
880.707275,497
880.824341,511
880.941284,505
881.058228,482
881.175232,495
881.292236,500
881.40918,483
881.526123,518
881.643066,491
881.760071,492
881.877014,501
881.993958,504
882.11084,509
882.227783,486
882.344727,490
882.46167,512
882.578613,475
882.695618,509
882.812439,504
882.929382,507
883.046326,491
883.163208,524
883.280151,498
883.397034,499
883.513916,490
883.630798,499
883.747742,518
883.864563,519
883.981506,521
884.098389,510
884.21521,495
884.332153,503
884.448975,507
884.565796,542
884.682678,540
884.7995,542
884.916443,568
885.033264,570
885.150085,572
885.266968,591
885.383789,607
885.500671,595
885.617493,603
885.734314,590
885.851196,596
885.967896,616
886.084717,615
886.201599,596
886.318359,607
886.435181,577
886.552002,623
886.668762,601
886.785645,550
886.902344,598
887.019165,564
887.135925,557
887.252747,575
887.369446,567
887.486267,572
887.603027,543
887.719788,562
887.836548,538
887.953247,531
888.070068,530
888.186829,534
888.303528,521
888.420288,508
888.536987,516
888.653687,497
888.770447,494
888.887146,509
889.003967,491
889.120667,469
889.237305,475
889.354065,475
889.470703,493
889.587463,471
889.704163,478
889.820862,482
889.937561,492
890.054199,483
890.170837,489
890.287598,471
890.404236,496
890.520874,470
890.637634,490
890.754211,496
890.87085,469
890.987549,491
891.104187,482
891.220886,474
891.337463,485
891.454102,481
891.57074,484
891.687378,490
891.804077,484
891.920654,482
892.037231,485
892.15387,497
892.270447,491
892.387085,483
892.503723,479
892.6203,476
892.736877,481
892.853516,476
892.970032,480
893.08667,465
893.203186,474
893.319763,477
893.43634,493
893.552917,497
893.669556,478
893.786011,475
893.902588,474
894.019165,482
894.135681,473
894.252197,473
894.368835,497
894.485291,472
894.601868,480
894.718384,494
894.8349,482
894.951355,481
895.067932,488
895.184448,472
895.300964,489
895.417419,473
895.533936,459
895.650452,454
895.766907,473
895.883423,478
895.999878,476
896.116333,473
896.232849,473
896.349304,466
896.465759,468
896.582214,465
896.698669,466
896.815125,474
896.931641,494
897.048035,500
897.164551,482
897.280884,487
897.397339,476
897.513794,480
897.630249,473
897.746582,474
897.863098,464
897.979431,472
898.095886,483
898.212341,472
898.328674,484
898.445129,463
898.561462,486
898.677795,477
898.794312,482
898.910645,497
899.026978,478
899.143433,481
899.259766,462
899.37616,477
899.492493,495
899.608765,479
899.725159,487
899.841553,490
899.957947,479
900.07428,484
900.190552,491
900.306946,467
900.423157,466
900.53949,485
900.655884,490
900.772156,469
900.888489,477
901.004822,497
901.121033,499
901.237366,475
901.353699,505
901.46991,516
901.586304,512
901.702515,522
901.818787,503
901.93512,511
902.051331,527
902.167603,525
902.283875,518
902.400085,532
902.516418,535
902.632629,539
902.74884,564
902.865112,566
902.981384,554
903.097595,549
903.213867,545
903.330017,542
903.446289,528
903.5625,524
903.67865,514
903.794922,509
903.911072,518
904.027344,525
904.143494,528
904.259705,517
904.375916,521
904.492065,493
904.608215,514
904.724426,477
904.840576,469
904.956726,492
905.072876,481
905.189087,483
905.305176,469
905.421387,462
905.537537,483
905.653687,485
905.769775,469
905.885925,513
906.002014,479
906.118164,469
906.234314,494
906.350403,489
906.466492,464
906.582642,471
906.69873,480
906.814758,470
906.930908,511
907.046936,453
907.163086,483
907.279175,467
907.395264,505
907.511353,475
907.62738,453
907.743408,467
907.859497,492
907.975525,470
908.091553,489
908.207703,469
908.32373,480
908.439758,474
908.555786,473
908.671814,480
908.787842,493
908.90387,493
909.019775,481
909.135864,473
909.251892,472
909.367859,477
909.483826,493
909.599854,465
909.715881,473
909.831848,499
909.947815,467
910.063782,463
910.179749,486
910.295776,501
910.411743,493
910.527649,485
910.643616,495
910.759583,479
910.875488,484
910.991455,474
911.107361,471
911.223267,466
911.339294,486
911.4552,464
911.571106,472
911.687073,483
911.802979,484
911.918823,469
912.034729,488
912.150635,478
912.266602,480
912.382446,452
912.498352,477
912.614197,472
912.730103,476
912.846008,465
