792.44574,642
792.56488,646
792.68396,702
792.80304,698
792.92218,622
793.041199,598
793.160339,636
793.279419,600
793.398499,629
793.517578,612
793.636658,615
793.755737,615
793.874817,614
793.993896,622
794.112976,614
794.232056,595
794.351074,612
794.470215,589
794.589233,618
794.708313,574
794.827393,601
794.946411,605
795.065552,618
795.18457,576
795.303589,601
795.422668,584
795.541687,585
795.660767,583
795.779846,593
795.898865,594
796.017883,598
796.136963,584
796.255981,582
796.375061,573
796.49408,619
796.613037,571
796.732117,600
796.851135,594
796.970154,566
797.089233,561
797.208191,580
797.327271,577
797.446228,551
797.565186,576
797.684265,589
797.803223,598
797.922241,567
798.04126,580
798.160278,574
798.279297,603
798.398315,575
798.517273,602
798.636292,572
798.75531,580
798.874268,587
798.993286,556
799.112244,582
799.231323,575
799.350281,594
799.469238,604
799.588257,593
799.707153,568
799.826111,590
799.945129,559
800.064087,562
800.183044,573
800.302063,598
800.421021,600
800.539978,566
800.658936,552
800.777893,589
800.896912,585
801.015747,587
801.134705,574
801.253723,563
801.37262,563
801.491638,579
801.610535,585
801.729492,584
801.84845,579
801.967407,600
802.086243,570
802.205261,590
802.324158,589
802.443115,596
802.562073,595
802.680969,584
802.799927,605
802.918762,613
803.037659,552
803.156677,585
803.275574,588
803.39447,613
803.513428,570
803.632263,590
803.751221,603
803.870117,589
803.989014,584
804.107971,600
804.226746,604
804.345642,622
804.4646,604
804.583496,616
804.702393,610
804.821228,595
804.940125,603
805.059021,620
805.177917,590
805.296814,577
805.415649,621
805.534546,607
805.653442,597
805.772278,602
805.891113,581
806.01001,598
806.128906,627
806.247742,594
806.366577,632
806.485413,612
806.604309,591
806.723145,613
806.84198,594
806.960876,613
807.079712,613
807.198486,610
807.317383,625
807.436218,618
807.554993,614
807.673889,621
807.792725,598
807.91156,621
808.030396,594
808.14917,616
808.268005,638
808.386841,639
808.505676,608
808.624451,609
808.743286,632
808.862122,633
808.980896,628
809.099731,628
809.218506,640
809.337341,611
809.456116,595
809.57489,621
809.693726,648
809.8125,609
809.931274,622
810.050049,631
810.168884,621
810.287659,639
810.406372,626
810.525269,638
810.643982,621
810.762756,653
810.881531,624
811.000305,620
811.11908,635
811.237854,647
811.356567,630
811.475403,620
811.594116,605
811.71283,627
811.831604,634
811.950378,642
812.069153,607
812.187927,630
812.30658,634
812.425415,641
812.544128,626
812.662781,641
812.781616,594
812.900269,638
813.019043,619
813.137756,633
813.256531,620
813.375244,636
813.493896,646
813.612671,637
813.731384,638
813.850037,620
813.96875,626
814.087524,616
814.206238,624
814.324951,626
814.443604,607
814.562256,623
814.68103,628
814.799683,642
814.918335,637
815.037109,639
815.155762,616
815.274475,624
815.393188,616
815.511841,632
815.630554,612
815.749146,615
815.867859,599
815.986572,630
816.105164,608
816.223877,604
816.342529,626
816.461182,602
816.579895,580
816.698486,613
816.817139,604
816.935791,632
817.054504,612
817.173096,596
817.291748,608
817.4104,612
817.529053,609
817.647644,595
817.766235,586
817.884949,583
818.00354,562
818.122192,591
818.240845,556
818.359436,553
818.478088,543
818.59668,545
818.715271,529
818.833923,553
818.952515,522
819.071106,530
819.189758,533
819.30835,527
819.426941,530
819.545532,532
819.664124,509
819.782715,502
819.901306,501
820.019897,509
820.138489,500
820.25708,501
820.375671,483
820.494202,499
820.612732,532
820.731384,496
820.849915,467
820.968506,479
821.087097,498
821.205627,506
821.324158,474
821.442749,478
821.561279,497
821.679871,495
821.798401,481
821.916931,482
822.035461,484
822.154053,482
822.272583,459
822.391174,481
822.509583,480
822.628174,496
822.746704,499
822.865234,482
822.983765,469
823.102295,488
823.220825,474
823.339294,489
823.457825,479
823.576355,476
823.694824,478
823.813354,489
823.931885,498
824.050354,501
824.168884,500
824.287354,489
824.405823,478
824.524353,484
824.642822,493
824.761353,492
824.879822,471
824.998291,491
825.116699,499
825.235291,511
825.353699,473
825.472168,484
825.590637,475
825.709106,482
825.827576,456
825.946045,502
826.064453,470
826.182983,490
826.301392,450
826.4198,485
826.53833,476
826.656738,464
826.775208,453
826.893677,492
827.012024,472
827.130493,459
827.248962,467
827.36731,470
827.485779,466
827.604248,466
827.722595,463
827.841064,466
827.959412,446
828.077942,456
828.196289,486
828.314636,462
828.433105,450
828.551514,449
828.669861,464
828.78833,472
828.906677,452
829.025085,465
829.143433,464
829.261841,458
829.38031,464
829.498657,455
829.617004,460
829.735413,461
829.85376,459
829.972107,461
830.090515,476
830.208862,472
830.327209,456
830.445557,449
830.563904,446
830.682312,490
830.800659,441
830.919006,464
831.037354,437
831.155701,464
831.274048,472
831.392395,467
831.51062,471
831.629028,462
831.747314,471
831.865662,447
831.984009,453
832.102356,478
832.220642,467
832.338928,464
832.457275,457
832.575623,465
832.693909,452
832.812134,456
832.930481,465
833.048828,450
833.167114,445
833.2854,466
833.403687,453
833.521973,469
833.640259,468
833.758545,467
833.876831,469
833.995056,452
834.113281,455
834.231628,482
834.349915,472
834.468201,466
834.586426,447
834.704651,478
834.822998,470
834.941162,474
835.059448,447
835.177673,470
835.295959,466
835.414246,469
835.53241,470
835.650635,474
835.768921,443
835.887146,487
836.005371,462
836.123596,462
836.241821,484
836.360046,466
836.478271,476
836.596497,467
836.714722,465
836.832886,492
836.95105,448
837.069336,480
837.1875,484
837.305725,472
837.423889,475
837.542053,464
837.660339,468
837.778503,476
837.896667,458
838.014832,480
838.132996,475
838.25116,491
838.369385,461
838.487488,477
838.605713,450
838.723877,481
838.84198,484
838.960205,477
839.078308,455
839.196472,463
839.314636,454
839.4328,470
839.550964,467
839.669067,470
839.787231,472
839.905396,481
840.023499,469
840.141602,471
840.259766,464
840.377869,470
840.495972,469
840.614136,472
840.732239,462
840.850342,473
840.968445,473
841.086548,471
841.204651,471
841.322754,480
841.440918,467
841.55896,462
841.677002,459
841.795166,457
841.913208,469
842.031311,471
842.149353,459
842.267456,472
842.385498,459
842.503601,444
842.621643,443
842.739746,467
842.857788,435
842.97583,447
843.093933,460
843.211975,436
843.330017,466
843.44812,451
843.566101,457
843.684204,449
843.802246,439
843.920227,448
844.038269,439
844.156311,450
844.274292,454
844.392395,464
844.510376,452
844.628357,456
844.74646,461
844.864441,459
844.982422,431
845.100403,451
845.218384,452
845.336426,478
845.454468,444
845.572449,433
845.69043,445
845.808411,454
845.926453,467
846.044373,470
846.162354,450
846.280396,438
846.398315,432
846.516296,463
846.634216,453
846.752197,455
846.870178,438
846.988098,456
847.106079,425
847.22406,465
847.34198,443
847.4599,444
847.577881,440
847.695801,464
847.813782,452
847.931641,444
848.049561,467
848.167603,449
848.285461,464
848.403381,458
848.521362,433
848.639221,458
848.75708,434
848.875,450
848.99292,458
849.110901,434
849.22876,458
849.34668,448
849.464539,451
849.582458,445
849.700317,445
849.818176,459
849.936096,446
850.053955,457
850.171875,460
850.289673,454
850.407593,443
850.525452,466
850.643311,447
850.761169,445
850.878967,443
850.996887,450
851.114746,426
851.232544,469
851.350403,440
851.468262,445
851.58606,431
851.703979,446
851.821777,462
851.939636,446
852.057434,454
852.175232,461
852.293091,461
852.410889,486
852.528687,456
852.646545,461
852.764343,450
852.88208,452
852.999939,450
853.117676,459
853.235535,452
853.353271,463
853.471069,440
853.588928,462
853.706604,443
853.824402,459
853.9422,424
854.059998,436
854.177734,449
854.295532,484
854.413269,449
854.531006,468
854.648804,462
854.766541,455
854.884277,463
855.002014,434
855.119751,480
855.237549,446
855.355225,457
855.473022,463
855.590698,467
855.708435,449
855.826172,460
855.943848,461
856.061646,435
856.179321,452
856.296997,450
856.414795,458
856.53241,457
856.650085,471
856.767822,444
856.885559,466
857.003174,452
857.120911,470
857.238586,465
857.356201,482
857.473938,444
857.591614,466
857.709351,467
857.826965,459
857.944641,444
858.062317,450
858.179993,450
858.297668,482
858.415283,439
858.532959,467
858.650574,459
858.768188,470
858.885803,459
859.003479,453
859.121094,458
859.23877,455
859.356384,455
859.473999,465
859.591675,451
859.709229,440
859.826843,447
859.944458,439
860.062012,435
860.179626,452
860.297302,437
860.414856,459
860.532471,445
860.650024,446
860.767639,458
860.885193,457
861.002808,436
861.120361,448
861.237976,450
861.35553,457
861.473022,445
861.590698,468
861.708191,434
861.825745,461
861.943298,438
862.060852,453
862.178406,476
862.295959,459
862.413513,453
862.531006,449
862.64856,455
862.766113,467
862.883667,447
863.00116,463
863.118713,437
863.236206,457
863.353699,443
863.471252,457
863.588745,444
863.706177,473
863.82373,442
863.941162,469
864.058716,447
864.176208,442
864.29364,443
864.411194,469
864.528687,452
864.646118,464
864.763611,429
864.881042,470
864.998535,454
865.116028,449
865.233459,455
865.350891,462
865.468384,437
865.585754,449
865.703308,438
865.820679,470
865.938171,451
866.055542,469
866.173035,455
866.290466,453
866.407837,450
866.52533,450
866.6427,451
866.760071,465
866.877563,466
866.994934,459
867.112305,443
867.229736,462
867.347107,446
867.464539,451
867.58197,449
867.699341,454
867.81665,456
867.934082,464
868.051453,448
868.168823,465
868.286194,446
868.403564,458
868.520935,477
868.638306,461
868.755676,448
868.872986,476
868.990295,446
869.107727,471
869.225037,464
869.342346,461
869.459717,447
869.577026,449
869.694336,441
869.811707,469
869.929016,439
870.046326,459
870.163635,456
870.280945,445
870.398254,434
870.515564,451
870.632812,451
870.750183,441
870.867432,460
870.984741,462
871.102051,450
871.219299,455
871.336609,447
871.453918,459
871.571106,448
871.688416,450
871.805664,465
871.922852,454
872.040222,469
872.157471,455
872.274719,471
872.391968,457
872.509155,460
872.626465,437
872.743652,443
872.860962,454
872.978149,459
873.095337,457
873.212646,456
873.329834,456
873.44696,459
873.564209,448
873.681396,449
873.798645,469
873.915894,459
874.03302,448
874.150208,444
874.267456,462
874.384583,438
874.501831,448
874.618958,443
874.736145,435
874.853333,444
874.970459,465
875.087646,457
875.204834,431
875.32196,453
875.439148,452
875.556274,460
875.673401,457
875.790527,442
875.907715,447
876.024841,457
876.141968,465
876.259094,450
876.376282,450
876.493347,452
876.610474,457
876.7276,454
876.844727,453
876.961853,463
877.078918,483
877.195984,463
877.313171,477
877.430237,461
877.547302,440
877.664368,443
877.781433,452
877.898499,451
878.015625,464
878.13269,463
878.249695,467
878.366821,449
878.483887,460
878.600952,460
878.717957,452
878.834961,452
878.952087,424
879.069092,459
879.186157,464
879.303162,436
879.420227,454
879.537231,451
879.654236,468
879.77124,452
879.888306,443
880.005249,453
880.122314,464
880.239319,458
880.356323,449
880.473328,437
880.590271,454
880.707275,448
880.824341,462
880.941284,471
881.058228,459
881.175232,467
881.292236,461
881.40918,437
881.526123,434
881.643066,462
881.760071,450
881.877014,453
881.993958,444
882.11084,457
882.227783,449
882.344727,449
882.46167,444
882.578613,472
882.695618,461
882.812439,454
882.929382,462
883.046326,468
883.163208,458
883.280151,445
883.397034,458
883.513916,430
883.630798,462
883.747742,457
883.864563,466
883.981506,434
884.098389,472
884.21521,433
884.332153,468
884.448975,458
884.565796,449
884.682678,446
884.7995,429
884.916443,449
885.033264,463
885.150085,457
885.266968,473
885.383789,450
885.500671,457
885.617493,447
885.734314,465
885.851196,476
885.967896,472
886.084717,438
886.201599,459
886.318359,451
886.435181,455
886.552002,470
886.668762,458
886.785645,460
886.902344,461
887.019165,473
887.135925,443
887.252747,461
887.369446,462
887.486267,457
887.603027,461
887.719788,461
887.836548,443
887.953247,464
888.070068,444
888.186829,455
888.303528,462
888.420288,462
888.536987,444
888.653687,459
888.770447,462
888.887146,453
889.003967,477
889.120667,448
889.237305,469
889.354065,475
889.470703,444
889.587463,443
889.704163,460
889.820862,454
889.937561,466
890.054199,446
890.170837,448
890.287598,473
890.404236,454
890.520874,463
890.637634,465
890.754211,450
890.87085,457
890.987549,471
891.104187,449
891.220886,450
891.337463,455
891.454102,462
891.57074,478
891.687378,455
891.804077,459
891.920654,457
892.037231,451
892.15387,471
892.270447,463
892.387085,454
892.503723,465
892.6203,464
892.736877,452
892.853516,449
892.970032,461
893.08667,459
893.203186,465
893.319763,448
893.43634,439
893.552917,452
893.669556,484
893.786011,476
893.902588,462
894.019165,457
894.135681,477
894.252197,453
894.368835,470
894.485291,453
894.601868,456
894.718384,457
894.8349,470
894.951355,467
895.067932,464
895.184448,469
895.300964,451
895.417419,451
895.533936,468
895.650452,456
895.766907,466
895.883423,440
895.999878,461
896.116333,460
896.232849,470
896.349304,452
896.465759,470
896.582214,444
896.698669,453
896.815125,466
896.931641,462
897.048035,453
897.164551,456
897.280884,456
897.397339,474
897.513794,447
897.630249,463
897.746582,466
897.863098,468
897.979431,435
898.095886,447
898.212341,438
898.328674,430
898.445129,461
898.561462,479
898.677795,455
898.794312,469
898.910645,469
899.026978,469
899.143433,462
899.259766,468
899.37616,495
899.492493,467
899.608765,457
899.725159,463
899.841553,440
899.957947,462
900.07428,465
900.190552,470
900.306946,453
900.423157,470
900.53949,462
900.655884,461
900.772156,471
900.888489,475
901.004822,484
901.121033,476
901.237366,475
901.353699,473
901.46991,462
901.586304,469
901.702515,475
901.818787,459
901.93512,437
902.051331,468
902.167603,462
902.283875,469
902.400085,462
902.516418,465
902.632629,465
902.74884,438
902.865112,448
902.981384,493
903.097595,441
903.213867,463
903.330017,466
903.446289,457
903.5625,462
903.67865,479
903.794922,449
903.911072,486
904.027344,465
904.143494,469
904.259705,464
904.375916,486
904.492065,468
904.608215,487
904.724426,450
904.840576,461
904.956726,467
905.072876,477
905.189087,454
905.305176,459
905.421387,452
905.537537,478
905.653687,481
905.769775,466
905.885925,454
906.002014,474
906.118164,487
906.234314,467
906.350403,449
906.466492,469
906.582642,465
906.69873,473
906.814758,457
906.930908,462
907.046936,462
907.163086,477
907.279175,455
907.395264,461
907.511353,450
907.62738,497
907.743408,470
907.859497,460
907.975525,463
908.091553,462
908.207703,459
908.32373,468
908.439758,457
908.555786,474
908.671814,478
908.787842,479
908.90387,465
909.019775,479
909.135864,479
909.251892,481
909.367859,456
909.483826,466
909.599854,488
909.715881,480
909.831848,470
909.947815,461
910.063782,461
910.179749,477
910.295776,449
910.411743,470
910.527649,477
910.643616,466
910.759583,461
910.875488,477
910.991455,460
911.107361,465
911.223267,473
911.339294,462
911.4552,469
911.571106,461
911.687073,460
911.802979,465
911.918823,473
912.034729,470
912.150635,484
912.266602,445
912.382446,457
912.498352,443
912.614197,466
912.730103,493
912.846008,474
792.44574,623
792.56488,668
792.68396,721
792.80304,675
792.92218,649
793.041199,592
793.160339,624
793.279419,633
793.398499,642
793.517578,619
793.636658,609
793.755737,614
793.874817,635
793.993896,634
794.112976,620
794.232056,585
794.351074,594
794.470215,608
794.589233,571
794.708313,579
794.827393,605
794.946411,608
795.065552,607
795.18457,598
795.303589,601
795.422668,605
795.541687,575
795.660767,569
795.779846,590
795.898865,603
796.017883,586
796.136963,597
796.255981,608
796.375061,588
796.49408,599
796.613037,584
796.732117,574
796.851135,588
796.970154,587
797.089233,594
797.208191,591
797.327271,581
797.446228,577
797.565186,561
797.684265,585
797.803223,584
797.922241,596
798.04126,577
798.160278,606
798.279297,569
798.398315,585
798.517273,580
798.636292,607
798.75531,561
798.874268,593
798.993286,583
799.112244,588
799.231323,565
799.350281,575
799.469238,586
799.588257,594
799.707153,605
799.826111,579
799.945129,592
800.064087,590
800.183044,588
800.302063,588
800.421021,581
800.539978,591
800.658936,583
800.777893,596
800.896912,584
801.015747,572
801.134705,581
801.253723,582
801.37262,592
801.491638,596
801.610535,607
801.729492,600
801.84845,589
801.967407,590
802.086243,575
802.205261,597
802.324158,593
802.443115,603
802.562073,569
802.680969,598
802.799927,604
802.918762,610
803.037659,593
803.156677,572
803.275574,615
803.39447,581
803.513428,593
803.632263,615
803.751221,579
803.870117,591
803.989014,579
804.107971,614
804.226746,597
804.345642,613
804.4646,575
804.583496,596
804.702393,602
804.821228,615
804.940125,602
805.059021,606
805.177917,608
805.296814,621
805.415649,613
805.534546,627
805.653442,644
805.772278,590
805.891113,614
806.01001,623
806.128906,615
806.247742,604
806.366577,626
806.485413,623
806.604309,601
806.723145,615
806.84198,627
806.960876,599
807.079712,634
807.198486,626
807.317383,612
807.436218,603
807.554993,592
807.673889,615
807.792725,606
807.91156,609
808.030396,627
808.14917,621
808.268005,616
808.386841,617
808.505676,652
808.624451,629
808.743286,601
808.862122,623
808.980896,628
809.099731,642
809.218506,637
809.337341,635
809.456116,616
809.57489,625
809.693726,626
809.8125,646
809.931274,642
810.050049,637
810.168884,615
810.287659,620
810.406372,644
810.525269,621
810.643982,638
810.762756,622
810.881531,636
811.000305,626
811.11908,640
811.237854,628
811.356567,628
811.475403,620
811.594116,623
811.71283,648
811.831604,652
811.950378,645
812.069153,629
812.187927,636
812.30658,642
812.425415,628
812.544128,617
812.662781,648
812.781616,626
812.900269,621
813.019043,636
813.137756,627
813.256531,626
813.375244,633
813.493896,635
813.612671,636
813.731384,621
813.850037,622
813.96875,625
814.087524,630
814.206238,603
814.324951,611
814.443604,630
814.562256,627
814.68103,620
814.799683,623
814.918335,628
815.037109,604
815.155762,607
815.274475,623
815.393188,632
815.511841,617
815.630554,615
815.749146,627
815.867859,619
815.986572,612
816.105164,604
816.223877,624
816.342529,619
816.461182,613
816.579895,626
816.698486,633
816.817139,622
816.935791,607
817.054504,618
817.173096,628
817.291748,615
817.4104,601
817.529053,601
817.647644,605
817.766235,622
817.884949,582
818.00354,575
818.122192,567
818.240845,555
818.359436,554
818.478088,567
818.59668,549
818.715271,533
818.833923,546
818.952515,531
819.071106,524
819.189758,544
819.30835,527
819.426941,519
819.545532,522
819.664124,507
819.782715,511
819.901306,498
820.019897,503
820.138489,509
820.25708,496
820.375671,508
820.494202,509
820.612732,497
820.731384,511
820.849915,484
820.968506,506
821.087097,494
821.205627,482
821.324158,507
821.442749,504
821.561279,461
821.679871,484
821.798401,481
821.916931,496
822.035461,477
822.154053,485
822.272583,466
822.391174,480
822.509583,484
822.628174,488
822.746704,498
822.865234,466
822.983765,487
823.102295,494
823.220825,489
823.339294,484
823.457825,485
823.576355,500
823.694824,491
823.813354,494
823.931885,493
824.050354,493
824.168884,484
824.287354,514
824.405823,507
824.524353,489
824.642822,491
824.761353,485
824.879822,478
824.998291,508
825.116699,478
825.235291,480
825.353699,473
825.472168,508
825.590637,497
825.709106,498
825.827576,481
825.946045,469
826.064453,478
826.182983,466
826.301392,489
826.4198,468
826.53833,471
826.656738,483
826.775208,471
826.893677,491
827.012024,473
827.130493,471
827.248962,474
827.36731,461
827.485779,465
827.604248,466
827.722595,468
827.841064,488
827.959412,454
828.077942,474
828.196289,465
828.314636,465
828.433105,482
828.551514,455
828.669861,463
828.78833,473
828.906677,458
829.025085,489
829.143433,468
829.261841,458
829.38031,449
829.498657,439
829.617004,467
829.735413,478
829.85376,440
829.972107,455
830.090515,483
830.208862,447
830.327209,450
830.445557,453
830.563904,470
830.682312,477
830.800659,479
830.919006,473
831.037354,469
831.155701,456
831.274048,476
831.392395,454
831.51062,478
831.629028,472
831.747314,462
831.865662,476
831.984009,460
832.102356,475
832.220642,442
832.338928,454
832.457275,466
832.575623,456
832.693909,472
832.812134,474
832.930481,460
833.048828,469
833.167114,465
833.2854,467
833.403687,468
833.521973,480
833.640259,458
833.758545,470
833.876831,464
833.995056,483
834.113281,484
834.231628,487
834.349915,461
834.468201,472
834.586426,451
834.704651,482
834.822998,470
834.941162,469
835.059448,478
835.177673,474
835.295959,478
835.414246,450
835.53241,470
835.650635,471
835.768921,473
835.887146,469
836.005371,452
836.123596,484
836.241821,474
836.360046,475
836.478271,471
836.596497,477
836.714722,477
836.832886,465
836.95105,468
837.069336,489
837.1875,470
837.305725,483
837.423889,470
837.542053,472
837.660339,494
837.778503,476
837.896667,474
838.014832,476
838.132996,471
838.25116,490
838.369385,476
838.487488,482
838.605713,477
838.723877,499
838.84198,489
838.960205,486
839.078308,484
839.196472,476
839.314636,473
839.4328,471
839.550964,459
839.669067,479
839.787231,475
839.905396,468
840.023499,468
840.141602,464
840.259766,463
840.377869,493
840.495972,462
840.614136,460
840.732239,460
840.850342,484
840.968445,474
841.086548,455
841.204651,459
841.322754,482
841.440918,465
841.55896,459
841.677002,453
841.795166,460
841.913208,451
842.031311,479
842.149353,458
842.267456,465
842.385498,463
842.503601,458
842.621643,450
842.739746,480
842.857788,435
842.97583,472
843.093933,458
843.211975,439
843.330017,497
843.44812,454
843.566101,456
843.684204,462
843.802246,453
843.920227,449
844.038269,435
844.156311,484
844.274292,444
844.392395,463
844.510376,466
844.628357,450
844.74646,454
844.864441,474
844.982422,458
845.100403,453
845.218384,450
845.336426,442
845.454468,447
845.572449,471
845.69043,436
845.808411,453
845.926453,439
846.044373,460
846.162354,445
846.280396,437
846.398315,457
846.516296,462
846.634216,459
846.752197,452
846.870178,438
846.988098,448
847.106079,465
847.22406,440
847.34198,464
847.4599,448
847.577881,474
847.695801,455
847.813782,453
847.931641,452
848.049561,449
848.167603,469
848.285461,432
848.403381,458
848.521362,424
848.639221,461
848.75708,444
848.875,439
848.99292,442
849.110901,467
849.22876,443
849.34668,449
849.464539,464
849.582458,460
849.700317,446
849.818176,447
849.936096,457
850.053955,446
850.171875,458
850.289673,456
850.407593,444
850.525452,449
850.643311,442
850.761169,445
850.878967,444
850.996887,451
851.114746,445
851.232544,447
851.350403,452
851.468262,452
851.58606,445
851.703979,461
851.821777,463
851.939636,459
852.057434,447
852.175232,454
852.293091,451
852.410889,453
852.528687,430
852.646545,460
852.764343,444
852.88208,453
852.999939,466
853.117676,477
853.235535,441
853.353271,472
853.471069,437
853.588928,449
853.706604,440
853.824402,455
853.9422,447
854.059998,479
854.177734,463
854.295532,452
854.413269,466
854.531006,460
854.648804,466
854.766541,473
854.884277,469
855.002014,457
855.119751,451
855.237549,456
855.355225,454
855.473022,466
855.590698,453
855.708435,457
855.826172,444
855.943848,469
856.061646,446
856.179321,465
856.296997,451
856.414795,477
856.53241,451
856.650085,458
856.767822,480
856.885559,459
857.003174,452
857.120911,487
857.238586,441
857.356201,458
857.473938,459
857.591614,457
857.709351,471
857.826965,472
857.944641,466
858.062317,452
858.179993,471
858.297668,455
858.415283,472
858.532959,469
858.650574,473
858.768188,464
858.885803,460
859.003479,452
859.121094,455
859.23877,440
859.356384,462
859.473999,445
859.591675,447
859.709229,485
859.826843,460
859.944458,449
860.062012,451
860.179626,451
860.297302,477
860.414856,469
860.532471,453
860.650024,452
860.767639,453
860.885193,476
861.002808,456
861.120361,447
861.237976,450
861.35553,455
861.473022,456
861.590698,463
861.708191,453
861.825745,476
861.943298,460
862.060852,446
862.178406,457
862.295959,447
862.413513,450
862.531006,465
862.64856,449
862.766113,448
862.883667,442
863.00116,451
863.118713,447
863.236206,459
863.353699,443
863.471252,464
863.588745,444
863.706177,447
863.82373,459
863.941162,469
864.058716,443
864.176208,456
864.29364,445
864.411194,463
864.528687,456
864.646118,453
864.763611,449
864.881042,447
864.998535,466
865.116028,458
865.233459,438
865.350891,471
865.468384,458
865.585754,467
865.703308,462
865.820679,442
865.938171,460
866.055542,475
866.173035,457
866.290466,454
866.407837,440
866.52533,441
866.6427,465
866.760071,481
866.877563,470
866.994934,461
867.112305,468
867.229736,480
867.347107,472
867.464539,448
867.58197,433
867.699341,476
867.81665,464
867.934082,450
868.051453,476
868.168823,446
868.286194,468
868.403564,449
868.520935,456
868.638306,449
868.755676,455
868.872986,468
868.990295,455
869.107727,458
869.225037,463
869.342346,476
869.459717,436
869.577026,458
869.694336,466
869.811707,467
869.929016,459
870.046326,456
870.163635,447
870.280945,467
870.398254,463
870.515564,460
870.632812,442
870.750183,471
870.867432,453
870.984741,459
871.102051,458
871.219299,477
871.336609,456
871.453918,464
871.571106,453
871.688416,465
871.805664,442
871.922852,461
872.040222,450
872.157471,453
872.274719,477
872.391968,461
872.509155,446
872.626465,451
872.743652,421
872.860962,469
872.978149,454
873.095337,467
873.212646,447
873.329834,457
873.44696,454
873.564209,458
873.681396,455
873.798645,459
873.915894,457
874.03302,455
874.150208,471
874.267456,470
874.384583,468
874.501831,453
874.618958,440
874.736145,480
874.853333,437
874.970459,484
875.087646,469
875.204834,450
875.32196,447
875.439148,463
875.556274,455
875.673401,473
875.790527,452
875.907715,442
876.024841,465
876.141968,451
876.259094,471
876.376282,449
876.493347,452
876.610474,446
876.7276,465
876.844727,463
876.961853,456
877.078918,459
877.195984,463
877.313171,468
877.430237,450
877.547302,462
877.664368,461
877.781433,455
877.898499,447
878.015625,463
878.13269,443
878.249695,447
878.366821,448
878.483887,467
878.600952,456
878.717957,444
878.834961,450
878.952087,460
879.069092,466
879.186157,468
879.303162,439
879.420227,478
879.537231,446
879.654236,436
879.77124,460
879.888306,457
880.005249,439
880.122314,459
880.239319,452
880.356323,455
880.473328,453
880.590271,455
880.707275,467
880.824341,438
880.941284,445
881.058228,473
881.175232,459
881.292236,461
881.40918,438
881.526123,469
881.643066,461
881.760071,472
881.877014,430
881.993958,456
882.11084,437
882.227783,470
882.344727,436
882.46167,455
882.578613,464
882.695618,474
882.812439,464
882.929382,461
883.046326,446
883.163208,461
883.280151,463
883.397034,438
883.513916,449
883.630798,451
883.747742,462
883.864563,472
883.981506,457
884.098389,465
884.21521,462
884.332153,443
884.448975,456
884.565796,470
884.682678,472
884.7995,453
884.916443,451
885.033264,465
885.150085,469
885.266968,469
885.383789,458
885.500671,470
885.617493,442
885.734314,462
885.851196,435
885.967896,459
886.084717,467
886.201599,473
886.318359,463
886.435181,444
886.552002,434
886.668762,459
886.785645,459
886.902344,456
887.019165,468
887.135925,482
887.252747,469
887.369446,456
887.486267,469
887.603027,465
887.719788,443
887.836548,478
887.953247,445
888.070068,481
888.186829,452
888.303528,461
888.420288,466
888.536987,474
888.653687,457
888.770447,490
888.887146,454
889.003967,448
889.120667,453
889.237305,472
889.354065,451
889.470703,460
889.587463,463
889.704163,456
889.820862,451
889.937561,464
890.054199,448
890.170837,459
890.287598,462
890.404236,456
890.520874,441
890.637634,447
890.754211,469
890.87085,472
890.987549,470
891.104187,468
891.220886,451
891.337463,480
891.454102,461
891.57074,460
891.687378,439
891.804077,492
891.920654,471
892.037231,467
892.15387,492
892.270447,456
892.387085,439
892.503723,463
892.6203,450
892.736877,459
892.853516,455
892.970032,460
893.08667,466
893.203186,459
893.319763,469
893.43634,470
893.552917,474
893.669556,455
893.786011,464
893.902588,467
894.019165,459
894.135681,438
894.252197,464
894.368835,485
894.485291,463
894.601868,478
894.718384,453
894.8349,466
894.951355,454
895.067932,457
895.184448,450
895.300964,458
895.417419,426
895.533936,474
895.650452,465
895.766907,467
895.883423,454
895.999878,461
896.116333,473
896.232849,459
896.349304,461
896.465759,457
896.582214,461
896.698669,444
896.815125,462
896.931641,458
897.048035,449
897.164551,478
897.280884,460
897.397339,471
897.513794,459
897.630249,456
897.746582,463
897.863098,483
897.979431,445
898.095886,472
898.212341,452
898.328674,470
898.445129,456
898.561462,483
898.677795,459
898.794312,465
898.910645,481
899.026978,477
899.143433,457
899.259766,471
899.37616,457
899.492493,458
899.608765,462
899.725159,452
899.841553,456
899.957947,471
900.07428,476
900.190552,464
900.306946,459
900.423157,459
900.53949,472
900.655884,481
900.772156,483
900.888489,458
901.004822,461
901.121033,472
901.237366,451
901.353699,470
901.46991,453
901.586304,477
901.702515,455
901.818787,462
901.93512,452
902.051331,480
902.167603,470
902.283875,469
902.400085,462
902.516418,477
902.632629,463
902.74884,473
902.865112,473
902.981384,475
903.097595,471
903.213867,486
903.330017,454
903.446289,467
903.5625,458
903.67865,474
903.794922,464
903.911072,468
904.027344,495
904.143494,482
904.259705,465
904.375916,478
904.492065,456
904.608215,466
904.724426,480
904.840576,481
904.956726,450
905.072876,474
905.189087,454
905.305176,455
905.421387,471
905.537537,473
905.653687,468
905.769775,494
905.885925,464
906.002014,466
906.118164,472
906.234314,484
906.350403,453
906.466492,482
906.582642,496
906.69873,454
906.814758,472
906.930908,484
907.046936,459
907.163086,501
907.279175,450
907.395264,487
907.511353,468
907.62738,467
907.743408,470
907.859497,453
907.975525,464
908.091553,459
908.207703,480
908.32373,474
908.439758,460
908.555786,484
908.671814,469
908.787842,480
908.90387,475
909.019775,469
909.135864,459
909.251892,464
909.367859,463
909.483826,472
909.599854,457
909.715881,451
909.831848,464
909.947815,466
910.063782,460
910.179749,471
910.295776,454
910.411743,493
910.527649,466
910.643616,502
910.759583,470
910.875488,491
910.991455,460
911.107361,478
911.223267,458
911.339294,478
911.4552,493
911.571106,458
911.687073,476
911.802979,479
911.918823,471
912.034729,485
912.150635,463
912.266602,469
912.382446,474
912.498352,463
912.614197,462
912.730103,479
912.846008,466
792.44574,646
792.56488,654
792.68396,712
792.80304,650
792.92218,624
793.041199,603
793.160339,617
793.279419,630
793.398499,618
793.517578,614
793.636658,596
793.755737,627
793.874817,616
793.993896,624
794.112976,617
794.232056,608
794.351074,605
794.470215,616
794.589233,585
794.708313,588
794.827393,580
794.946411,598
795.065552,589
795.18457,580
795.303589,593
795.422668,625
795.541687,579
795.660767,588
795.779846,587
795.898865,579
796.017883,607
796.136963,595
796.255981,611
796.375061,593
796.49408,599
796.613037,597
796.732117,573
796.851135,590
796.970154,578
797.089233,591
797.208191,575
797.327271,572
797.446228,571
797.565186,606
797.684265,556
797.803223,601
797.922241,591
798.04126,584
798.160278,575
798.279297,589
798.398315,562
798.517273,591
798.636292,601
798.75531,577
798.874268,569
798.993286,607
799.112244,579
799.231323,592
799.350281,564
799.469238,573
799.588257,599
799.707153,575
799.826111,589
799.945129,617
800.064087,594
800.183044,571
800.302063,580
800.421021,589
800.539978,585
800.658936,581
800.777893,572
800.896912,591
801.015747,586
801.134705,573
801.253723,575
801.37262,587
801.491638,609
801.610535,579
801.729492,578
801.84845,598
801.967407,602
802.086243,585
802.205261,567
802.324158,589
802.443115,584
802.562073,589
802.680969,568
802.799927,602
802.918762,600
803.037659,603
803.156677,561
803.275574,606
803.39447,601
803.513428,600
803.632263,599
803.751221,588
803.870117,587
803.989014,597
804.107971,593
804.226746,599
804.345642,610
804.4646,583
804.583496,601
804.702393,610
804.821228,589
804.940125,629
805.059021,624
805.177917,622
805.296814,614
805.415649,594
805.534546,626
805.653442,618
805.772278,593
805.891113,609
806.01001,605
806.128906,629
806.247742,615
806.366577,622
806.485413,626
806.604309,639
806.723145,609
806.84198,602
806.960876,624
807.079712,608
807.198486,631
807.317383,629
807.436218,614
807.554993,611
807.673889,619
807.792725,625
807.91156,610
808.030396,629
808.14917,609
808.268005,644
808.386841,636
808.505676,637
808.624451,608
808.743286,622
808.862122,614
808.980896,613
809.099731,643
809.218506,609
809.337341,601
809.456116,635
809.57489,613
809.693726,621
809.8125,613
809.931274,634
810.050049,639
810.168884,647
810.287659,628
810.406372,630
810.525269,636
810.643982,629
810.762756,632
810.881531,620
811.000305,644
811.11908,628
811.237854,621
811.356567,623
811.475403,612
811.594116,628
811.71283,609
811.831604,630
811.950378,668
812.069153,620
812.187927,643
812.30658,643
812.425415,628
812.544128,638
812.662781,596
812.781616,636
812.900269,616
813.019043,639
813.137756,645
813.256531,652
813.375244,638
813.493896,628
813.612671,634
813.731384,640
813.850037,629
813.96875,628
814.087524,604
814.206238,608
814.324951,656
814.443604,638
814.562256,651
814.68103,633
814.799683,632
814.918335,624
815.037109,656
815.155762,609
815.274475,624
815.393188,607
815.511841,611
815.630554,620
815.749146,609
815.867859,609
815.986572,609
816.105164,617
816.223877,610
816.342529,640
816.461182,594
816.579895,642
816.698486,614
816.817139,639
816.935791,646
817.054504,628
817.173096,614
817.291748,618
817.4104,622
817.529053,603
817.647644,593
817.766235,596
817.884949,586
818.00354,579
818.122192,567
818.240845,559
818.359436,567
818.478088,551
818.59668,559
818.715271,547
818.833923,549
818.952515,519
819.071106,522
819.189758,514
819.30835,506
819.426941,518
819.545532,517
819.664124,512
819.782715,503
819.901306,509
820.019897,489
820.138489,515
820.25708,506
820.375671,500
820.494202,491
820.612732,485
820.731384,506
820.849915,483
820.968506,497
821.087097,490
821.205627,510
821.324158,487
821.442749,492
821.561279,498
821.679871,486
821.798401,496
821.916931,474
822.035461,475
822.154053,481
822.272583,483
822.391174,489
822.509583,469
822.628174,481
822.746704,465
822.865234,488
822.983765,505
823.102295,483
823.220825,500
823.339294,484
823.457825,495
823.576355,471
823.694824,491
823.813354,473
823.931885,491
824.050354,475
824.168884,509
824.287354,501
824.405823,492
824.524353,504
824.642822,509
824.761353,502
824.879822,492
824.998291,489
825.116699,488
825.235291,507
825.353699,488
825.472168,482
825.590637,472
825.709106,480
825.827576,483
825.946045,484
826.064453,487
826.182983,478
826.301392,455
826.4198,486
826.53833,477
826.656738,478
826.775208,466
826.893677,460
827.012024,455
827.130493,485
827.248962,480
827.36731,477
827.485779,478
827.604248,466
827.722595,477
827.841064,462
827.959412,470
828.077942,461
828.196289,471
828.314636,468
828.433105,462
828.551514,466
828.669861,468
828.78833,466
828.906677,464
829.025085,487
829.143433,463
829.261841,465
829.38031,465
829.498657,470
829.617004,462
829.735413,467
829.85376,458
829.972107,455
830.090515,469
830.208862,481
830.327209,462
830.445557,458
830.563904,456
830.682312,450
830.800659,472
830.919006,435
831.037354,455
831.155701,490
831.274048,462
831.392395,467
831.51062,446
831.629028,466
831.747314,447
831.865662,459
831.984009,453
832.102356,460
832.220642,461
832.338928,479
832.457275,478
832.575623,453
832.693909,457
832.812134,458
832.930481,471
833.048828,463
833.167114,471
833.2854,461
833.403687,469
833.521973,467
833.640259,464
833.758545,457
833.876831,447
833.995056,462
834.113281,438
834.231628,483
834.349915,453
834.468201,465
834.586426,473
834.704651,473
834.822998,461
834.941162,459
835.059448,457
835.177673,445
835.295959,467
835.414246,463
835.53241,470
835.650635,447
835.768921,468
835.887146,460
836.005371,482
836.123596,478
836.241821,474
836.360046,467
836.478271,479
836.596497,464
836.714722,483
836.832886,487
836.95105,489
837.069336,479
837.1875,459
837.305725,470
837.423889,499
837.542053,487
837.660339,465
837.778503,482
837.896667,475
838.014832,485
838.132996,486
838.25116,446
838.369385,466
838.487488,496
838.605713,480
838.723877,492
838.84198,472
838.960205,460
839.078308,473
839.196472,466
839.314636,476
839.4328,490
839.550964,478
839.669067,473
839.787231,465
839.905396,472
840.023499,483
840.141602,468
840.259766,470
840.377869,484
840.495972,470
840.614136,465
840.732239,472
840.850342,472
840.968445,472
841.086548,481
841.204651,452
841.322754,494
841.440918,465
841.55896,453
841.677002,462
841.795166,457
841.913208,468
842.031311,464
842.149353,449
842.267456,453
842.385498,459
842.503601,462
842.621643,470
842.739746,450
842.857788,463
842.97583,467
843.093933,447
843.211975,453
843.330017,466
843.44812,440
843.566101,460
843.684204,466
843.802246,434
843.920227,459
844.038269,468
844.156311,457
844.274292,452
844.392395,457
844.510376,454
844.628357,444
844.74646,457
844.864441,442
844.982422,441
845.100403,449
845.218384,457
845.336426,448
845.454468,445
845.572449,458
845.69043,474
845.808411,456
845.926453,455
846.044373,438
846.162354,448
846.280396,468
846.398315,471
846.516296,455
846.634216,447
846.752197,454
846.870178,455
846.988098,462
847.106079,455
847.22406,463
847.34198,466
847.4599,454
847.577881,447
847.695801,468
847.813782,462
847.931641,442
848.049561,455
848.167603,458
848.285461,451
848.403381,445
848.521362,467
848.639221,438
848.75708,463
848.875,438
848.99292,451
849.110901,446
849.22876,459
849.34668,457
849.464539,434
849.582458,444
849.700317,461
849.818176,448
849.936096,455
850.053955,441
850.171875,466
850.289673,426
850.407593,434
850.525452,452
850.643311,456
850.761169,455
850.878967,469
850.996887,444
851.114746,440
851.232544,429
851.350403,453
851.468262,462
851.58606,449
851.703979,444
851.821777,449
851.939636,463
852.057434,448
852.175232,460
852.293091,476
852.410889,454
852.528687,448
852.646545,468
852.764343,454
852.88208,452
852.999939,463
853.117676,436
853.235535,465
853.353271,466
853.471069,444
853.588928,462
853.706604,460
853.824402,449
853.9422,465
854.059998,456
854.177734,474
854.295532,450
854.413269,474
854.531006,444
854.648804,450
854.766541,463
854.884277,466
855.002014,444
855.119751,460
855.237549,480
855.355225,453
855.473022,451
855.590698,451
855.708435,460
855.826172,447
855.943848,468
856.061646,472
856.179321,448
856.296997,458
856.414795,455
856.53241,459
856.650085,445
856.767822,447
856.885559,462
857.003174,471
857.120911,465
857.238586,471
857.356201,464
857.473938,454
857.591614,471
857.709351,459
857.826965,466
857.944641,472
858.062317,451
858.179993,440
858.297668,451
858.415283,467
858.532959,453
858.650574,453
858.768188,440
858.885803,454
859.003479,469
859.121094,464
859.23877,446
859.356384,469
859.473999,462
859.591675,458
859.709229,456
859.826843,467
859.944458,448
860.062012,463
860.179626,450
860.297302,433
860.414856,431
860.532471,464
860.650024,443
860.767639,437
860.885193,459
861.002808,447
861.120361,460
861.237976,465
861.35553,434
861.473022,472
861.590698,464
861.708191,456
861.825745,444
861.943298,466
862.060852,433
862.178406,448
862.295959,455
862.413513,469
862.531006,459
862.64856,458
862.766113,441
862.883667,449
863.00116,441
863.118713,458
863.236206,442
863.353699,464
863.471252,461
863.588745,432
863.706177,466
863.82373,473
863.941162,469
864.058716,451
864.176208,475
864.29364,473
864.411194,460
864.528687,454
864.646118,459
864.763611,448
864.881042,428
864.998535,441
865.116028,454
865.233459,456
865.350891,441
865.468384,458
865.585754,464
865.703308,460
865.820679,468
865.938171,445
866.055542,445
866.173035,455
866.290466,458
866.407837,449
866.52533,463
866.6427,453
866.760071,464
866.877563,448
866.994934,446
867.112305,443
867.229736,460
867.347107,468
867.464539,469
867.58197,460
867.699341,450
867.81665,448
867.934082,455
868.051453,460
868.168823,456
868.286194,455
868.403564,465
868.520935,473
868.638306,453
868.755676,446
868.872986,455
868.990295,451
869.107727,463
869.225037,461
869.342346,473
869.459717,468
869.577026,461
869.694336,450
869.811707,471
869.929016,461
870.046326,466
870.163635,443
870.280945,461
870.398254,438
870.515564,468
870.632812,454
870.750183,454
870.867432,454
870.984741,471
871.102051,453
871.219299,458
871.336609,466
871.453918,460
871.571106,459
871.688416,456
871.805664,455
871.922852,465
872.040222,448
872.157471,442
872.274719,486
872.391968,470
872.509155,450
872.626465,456
872.743652,460
872.860962,447
872.978149,470
873.095337,437
873.212646,462
873.329834,438
873.44696,462
873.564209,473
873.681396,464
873.798645,445
873.915894,469
874.03302,441
874.150208,454
874.267456,442
874.384583,465
874.501831,463
874.618958,454
874.736145,432
874.853333,447
874.970459,455
875.087646,469
875.204834,455
875.32196,458
875.439148,448
875.556274,470
875.673401,442
875.790527,459
875.907715,458
876.024841,448
876.141968,480
876.259094,462
876.376282,465
876.493347,477
876.610474,448
876.7276,467
876.844727,445
876.961853,481
877.078918,462
877.195984,458
877.313171,447
877.430237,451
877.547302,470
877.664368,458
877.781433,463
877.898499,473
878.015625,467
878.13269,447
878.249695,461
878.366821,463
878.483887,435
878.600952,457
878.717957,456
878.834961,457
878.952087,450
879.069092,438
879.186157,440
879.303162,452
879.420227,444
879.537231,462
879.654236,458
879.77124,442
879.888306,448
880.005249,456
880.122314,443
880.239319,466
880.356323,444
880.473328,473
880.590271,452
880.707275,472
880.824341,441
880.941284,452
881.058228,463
881.175232,473
881.292236,453
881.40918,460
881.526123,444
881.643066,446
881.760071,477
881.877014,462
881.993958,462
882.11084,467
882.227783,454
882.344727,462
882.46167,469
882.578613,458
882.695618,445
882.812439,450
882.929382,449
883.046326,468
883.163208,442
883.280151,443
883.397034,437
883.513916,451
883.630798,456
883.747742,457
883.864563,467
883.981506,464
884.098389,456
884.21521,447
884.332153,475
884.448975,440
884.565796,450
884.682678,451
884.7995,462
884.916443,445
885.033264,456
885.150085,465
885.266968,471
885.383789,457
885.500671,452
885.617493,432
885.734314,435
885.851196,466
885.967896,449
886.084717,465
886.201599,446
886.318359,448
886.435181,454
886.552002,453
886.668762,473
886.785645,452
886.902344,456
887.019165,460
887.135925,455
887.252747,461
887.369446,464
887.486267,462
887.603027,453
887.719788,442
887.836548,476
887.953247,467
888.070068,470
888.186829,453
888.303528,453
888.420288,457
888.536987,465
888.653687,464
888.770447,459
888.887146,461
889.003967,468
889.120667,476
889.237305,459
889.354065,471
889.470703,461
889.587463,467
889.704163,446
889.820862,456
889.937561,460
890.054199,440
890.170837,461
890.287598,439
890.404236,458
890.520874,458
890.637634,466
890.754211,466
890.87085,458
890.987549,457
891.104187,462
891.220886,441
891.337463,456
891.454102,450
891.57074,459
891.687378,464
891.804077,454
891.920654,467
892.037231,440
892.15387,482
892.270447,448
892.387085,459
892.503723,458
892.6203,465
892.736877,465
892.853516,458
892.970032,464
893.08667,465
893.203186,451
893.319763,467
893.43634,458
893.552917,466
893.669556,454
893.786011,457
893.902588,468
894.019165,477
894.135681,449
894.252197,458
894.368835,451
894.485291,457
894.601868,463
894.718384,464
894.8349,470
894.951355,484
895.067932,501
895.184448,476
895.300964,448
895.417419,466
895.533936,449
895.650452,470
895.766907,458
895.883423,449
895.999878,472
896.116333,477
896.232849,452
896.349304,454
896.465759,458
896.582214,458
896.698669,453
896.815125,457
896.931641,459
897.048035,454
897.164551,450
897.280884,481
897.397339,461
897.513794,468
897.630249,475
897.746582,476
897.863098,458
897.979431,466
898.095886,463
898.212341,462
898.328674,478
898.445129,467
898.561462,471
898.677795,465
898.794312,470
898.910645,460
899.026978,487
899.143433,484
899.259766,452
899.37616,464
899.492493,467
899.608765,473
899.725159,459
899.841553,468
899.957947,461
900.07428,464
900.190552,484
900.306946,466
900.423157,461
900.53949,466
900.655884,471
900.772156,477
900.888489,475
901.004822,470
901.121033,468
901.237366,482
901.353699,463
901.46991,457
901.586304,468
901.702515,477
901.818787,466
901.93512,478
902.051331,480
902.167603,475
902.283875,472
902.400085,489
902.516418,481
902.632629,458
902.74884,474
902.865112,481
902.981384,468
903.097595,478
903.213867,464
903.330017,468
903.446289,482
903.5625,475
903.67865,454
903.794922,472
903.911072,469
904.027344,465
904.143494,463
904.259705,478
904.375916,467
904.492065,487
904.608215,453
904.724426,491
904.840576,462
904.956726,477
905.072876,480
905.189087,467
905.305176,473
905.421387,473
905.537537,461
905.653687,473
905.769775,480
905.885925,487
906.002014,471
906.118164,494
906.234314,462
906.350403,471
906.466492,473
906.582642,466
906.69873,470
906.814758,480
906.930908,463
907.046936,475
907.163086,471
907.279175,457
907.395264,487
907.511353,470
907.62738,464
907.743408,447
907.859497,487
907.975525,485
908.091553,457
908.207703,471
908.32373,469
908.439758,461
908.555786,457
908.671814,482
908.787842,468
908.90387,457
909.019775,478
909.135864,479
909.251892,479
909.367859,455
909.483826,471
909.599854,490
909.715881,482
909.831848,489
909.947815,457
910.063782,451
910.179749,466
910.295776,457
910.411743,466
910.527649,484
910.643616,475
910.759583,498
910.875488,453
910.991455,468
911.107361,477
911.223267,462
911.339294,471
911.4552,454
911.571106,461
911.687073,482
911.802979,465
911.918823,457
912.034729,478
912.150635,471
912.266602,470
912.382446,482
912.498352,457
912.614197,484
912.730103,479
912.846008,464
