792.44574,581
792.56488,608
792.68396,636
792.80304,616
792.92218,574
793.041199,528
793.160339,549
793.279419,560
793.398499,551
793.517578,525
793.636658,554
793.755737,560
793.874817,551
793.993896,563
794.112976,534
794.232056,531
794.351074,549
794.470215,518
794.589233,507
794.708313,529
794.827393,520
794.946411,534
795.065552,551
795.18457,530
795.303589,526
795.422668,530
795.541687,529
795.660767,523
795.779846,496
795.898865,504
796.017883,509
796.136963,518
796.255981,522
796.375061,522
796.49408,530
796.613037,528
796.732117,517
796.851135,517
796.970154,515
797.089233,508
797.208191,500
797.327271,500
797.446228,502
797.565186,508
797.684265,503
797.803223,511
797.922241,514
798.04126,518
798.160278,496
798.279297,508
798.398315,494
798.517273,524
798.636292,497
798.75531,504
798.874268,512
798.993286,505
799.112244,500
799.231323,496
799.350281,510
799.469238,514
799.588257,486
799.707153,516
799.826111,473
799.945129,501
800.064087,503
800.183044,515
800.302063,491
800.421021,487
800.539978,474
800.658936,500
800.777893,510
800.896912,506
801.015747,487
801.134705,502
801.253723,495
801.37262,499
801.491638,495
801.610535,495
801.729492,509
801.84845,486
801.967407,510
802.086243,487
802.205261,501
802.324158,501
802.443115,482
802.562073,496
802.680969,478
802.799927,488
802.918762,486
803.037659,462
803.156677,497
803.275574,499
803.39447,497
803.513428,488
803.632263,500
803.751221,485
803.870117,488
803.989014,479
804.107971,496
804.226746,496
804.345642,490
804.4646,488
804.583496,484
804.702393,483
804.821228,476
804.940125,496
805.059021,516
805.177917,516
805.296814,485
805.415649,503
805.534546,508
805.653442,473
805.772278,485
805.891113,481
806.01001,507
806.128906,486
806.247742,499
806.366577,504
806.485413,486
806.604309,483
806.723145,491
806.84198,473
806.960876,510
807.079712,500
807.198486,488
807.317383,477
807.436218,470
807.554993,477
807.673889,491
807.792725,478
807.91156,482
808.030396,485
808.14917,490
808.268005,475
808.386841,491
808.505676,485
808.624451,489
808.743286,499
808.862122,501
808.980896,470
809.099731,500
809.218506,498
809.337341,477
809.456116,503
809.57489,467
809.693726,487
809.8125,493
809.931274,489
810.050049,482
810.168884,521
810.287659,481
810.406372,480
810.525269,493
810.643982,486
810.762756,485
810.881531,479
811.000305,497
811.11908,490
811.237854,485
811.356567,482
811.475403,465
811.594116,485
811.71283,487
811.831604,504
811.950378,490
812.069153,486
812.187927,477
812.30658,496
812.425415,470
812.544128,500
812.662781,482
812.781616,496
812.900269,491
813.019043,473
813.137756,480
813.256531,486
813.375244,491
813.493896,465
813.612671,493
813.731384,483
813.850037,478
813.96875,468
814.087524,487
814.206238,509
814.324951,491
814.443604,466
814.562256,483
814.68103,501
814.799683,479
814.918335,469
815.037109,496
815.155762,484
815.274475,475
815.393188,478
815.511841,487
815.630554,492
815.749146,469
815.867859,487
815.986572,486
816.105164,483
816.223877,483
816.342529,497
816.461182,494
816.579895,510
816.698486,474
816.817139,480
816.935791,485
817.054504,510
817.173096,478
817.291748,494
817.4104,491
817.529053,465
817.647644,472
817.766235,494
817.884949,460
818.00354,450
818.122192,453
818.240845,482
818.359436,453
818.478088,475
818.59668,459
818.715271,466
818.833923,470
818.952515,470
819.071106,462
819.189758,477
819.30835,449
819.426941,471
819.545532,475
819.664124,467
819.782715,475
819.901306,444
820.019897,473
820.138489,468
820.25708,470
820.375671,464
820.494202,448
820.612732,450
820.731384,461
820.849915,465
820.968506,476
821.087097,443
821.205627,443
821.324158,472
821.442749,478
821.561279,458
821.679871,473
821.798401,462
821.916931,452
822.035461,458
822.154053,471
822.272583,464
822.391174,441
822.509583,468
822.628174,454
822.746704,450
822.865234,458
822.983765,462
823.102295,449
823.220825,473
823.339294,480
823.457825,450
823.576355,469
823.694824,448
823.813354,450
823.931885,451
824.050354,454
824.168884,456
824.287354,470
824.405823,463
824.524353,461
824.642822,465
824.761353,468
824.879822,469
824.998291,445
825.116699,449
825.235291,462
825.353699,453
825.472168,444
825.590637,475
825.709106,448
825.827576,445
825.946045,438
826.064453,454
826.182983,458
826.301392,439
826.4198,451
826.53833,459
826.656738,438
826.775208,455
826.893677,442
827.012024,429
827.130493,448
827.248962,454
827.36731,456
827.485779,453
827.604248,456
827.722595,452
827.841064,435
827.959412,453
828.077942,441
828.196289,447
828.314636,464
828.433105,454
828.551514,469
828.669861,455
828.78833,449
828.906677,440
829.025085,450
829.143433,438
829.261841,454
829.38031,452
829.498657,459
829.617004,453
829.735413,454
829.85376,443
829.972107,449
830.090515,461
830.208862,452
830.327209,453
830.445557,453
830.563904,464
830.682312,446
830.800659,454
830.919006,458
831.037354,448
831.155701,430
831.274048,455
831.392395,432
831.51062,438
831.629028,451
831.747314,440
831.865662,437
831.984009,444
832.102356,439
832.220642,448
832.338928,450
832.457275,443
832.575623,459
832.693909,438
832.812134,435
832.930481,448
833.048828,454
833.167114,456
833.2854,424
833.403687,445
833.521973,458
833.640259,456
833.758545,457
833.876831,458
833.995056,444
834.113281,435
834.231628,435
834.349915,456
834.468201,449
834.586426,430
834.704651,443
834.822998,453
834.941162,468
835.059448,465
835.177673,445
835.295959,436
835.414246,448
835.53241,458
835.650635,447
835.768921,445
835.887146,458
836.005371,439
836.123596,447
836.241821,440
836.360046,442
836.478271,443
836.596497,437
836.714722,447
836.832886,441
836.95105,448
837.069336,456
837.1875,457
837.305725,451
837.423889,435
837.542053,454
837.660339,452
837.778503,461
837.896667,455
838.014832,451
838.132996,453
838.25116,442
838.369385,458
838.487488,449
838.605713,458
838.723877,456
838.84198,444
838.960205,453
839.078308,451
839.196472,436
839.314636,456
839.4328,445
839.550964,450
839.669067,451
839.787231,447
839.905396,459
840.023499,436
840.141602,454
840.259766,441
840.377869,439
840.495972,447
840.614136,447
840.732239,450
840.850342,434
840.968445,440
841.086548,435
841.204651,448
841.322754,436
841.440918,458
841.55896,461
841.677002,450
841.795166,438
841.913208,445
842.031311,469
842.149353,435
842.267456,437
842.385498,448
842.503601,449
842.621643,450
842.739746,471
842.857788,447
842.97583,464
843.093933,442
843.211975,441
843.330017,449
843.44812,445
843.566101,447
843.684204,437
843.802246,473
843.920227,448
844.038269,461
844.156311,460
844.274292,445
844.392395,472
844.510376,444
844.628357,436
844.74646,454
844.864441,435
844.982422,439
845.100403,441
845.218384,452
845.336426,454
845.454468,445
845.572449,440
845.69043,449
845.808411,426
845.926453,456
846.044373,450
846.162354,440
846.280396,439
846.398315,450
846.516296,423
846.634216,443
846.752197,437
846.870178,458
846.988098,429
847.106079,441
847.22406,439
847.34198,438
847.4599,448
847.577881,447
847.695801,448
847.813782,446
847.931641,434
848.049561,443
848.167603,443
848.285461,446
848.403381,440
848.521362,458
848.639221,443
848.75708,441
848.875,460
848.99292,445
849.110901,436
849.22876,450
849.34668,465
849.464539,453
849.582458,458
849.700317,441
849.818176,450
849.936096,441
850.053955,449
850.171875,436
850.289673,435
850.407593,454
850.525452,445
850.643311,443
850.761169,435
850.878967,450
850.996887,447
851.114746,439
851.232544,446
851.350403,433
851.468262,450
851.58606,442
851.703979,438
851.821777,466
851.939636,439
852.057434,436
852.175232,433
852.293091,464
852.410889,453
852.528687,443
852.646545,436
852.764343,469
852.88208,466
852.999939,452
853.117676,456
853.235535,450
853.353271,446
853.471069,450
853.588928,472
853.706604,442
853.824402,459
853.9422,467
854.059998,422
854.177734,440
854.295532,445
854.413269,442
854.531006,428
854.648804,456
854.766541,451
854.884277,475
855.002014,455
855.119751,443
855.237549,439
855.355225,452
855.473022,448
855.590698,448
855.708435,444
855.826172,442
855.943848,463
856.061646,448
856.179321,448
856.296997,426
856.414795,453
856.53241,453
856.650085,440
856.767822,453
856.885559,459
857.003174,432
857.120911,452
857.238586,467
857.356201,442
857.473938,455
857.591614,443
857.709351,459
857.826965,437
857.944641,434
858.062317,449
858.179993,445
858.297668,446
858.415283,447
858.532959,441
858.650574,441
858.768188,448
858.885803,456
859.003479,466
859.121094,445
859.23877,444
859.356384,457
859.473999,461
859.591675,448
859.709229,446
859.826843,448
859.944458,439
860.062012,463
860.179626,450
860.297302,450
860.414856,449
860.532471,448
860.650024,464
860.767639,452
860.885193,439
861.002808,433
861.120361,428
861.237976,460
861.35553,449
861.473022,444
861.590698,452
861.708191,432
861.825745,444
861.943298,442
862.060852,454
862.178406,446
862.295959,421
862.413513,442
862.531006,438
862.64856,451
862.766113,423
862.883667,434
863.00116,465
863.118713,456
863.236206,461
863.353699,436
863.471252,440
863.588745,460
863.706177,445
863.82373,444
863.941162,445
864.058716,464
864.176208,457
864.29364,469
864.411194,468
864.528687,446
864.646118,451
864.763611,438
864.881042,434
864.998535,443
865.116028,441
865.233459,443
865.350891,440
865.468384,439
865.585754,449
865.703308,437
865.820679,434
865.938171,450
866.055542,441
866.173035,447
866.290466,440
866.407837,446
866.52533,450
866.6427,436
866.760071,445
866.877563,441
866.994934,452
867.112305,445
867.229736,436
867.347107,459
867.464539,429
867.58197,456
867.699341,447
867.81665,421
867.934082,447
868.051453,453
868.168823,450
868.286194,461
868.403564,447
868.520935,450
868.638306,437
868.755676,463
868.872986,431
868.990295,443
869.107727,442
869.225037,438
869.342346,453
869.459717,448
869.577026,433
869.694336,469
869.811707,457
869.929016,447
870.046326,434
870.163635,467
870.280945,430
870.398254,443
870.515564,441
870.632812,472
870.750183,445
870.867432,461
870.984741,447
871.102051,454
871.219299,441
871.336609,441
871.453918,426
871.571106,453
871.688416,434
871.805664,452
871.922852,457
872.040222,455
872.157471,439
872.274719,451
872.391968,434
872.509155,452
872.626465,450
872.743652,474
872.860962,465
872.978149,455
873.095337,454
873.212646,460
873.329834,460
873.44696,436
873.564209,446
873.681396,448
873.798645,456
873.915894,454
874.03302,430
874.150208,454
874.267456,465
874.384583,462
874.501831,445
874.618958,443
874.736145,447
874.853333,446
874.970459,467
875.087646,459
875.204834,445
875.32196,438
875.439148,449
875.556274,442
875.673401,464
875.790527,458
875.907715,437
876.024841,486
876.141968,463
876.259094,461
876.376282,454
876.493347,459
876.610474,456
876.7276,445
876.844727,442
876.961853,460
877.078918,461
877.195984,461
877.313171,436
877.430237,456
877.547302,437
877.664368,454
877.781433,474
877.898499,448
878.015625,446
878.13269,441
878.249695,445
878.366821,452
878.483887,439
878.600952,448
878.717957,439
878.834961,457
878.952087,433
879.069092,443
879.186157,468
879.303162,446
879.420227,438
879.537231,436
879.654236,460
879.77124,440
879.888306,458
880.005249,451
880.122314,444
880.239319,445
880.356323,428
880.473328,438
880.590271,438
880.707275,455
880.824341,447
880.941284,443
881.058228,482
881.175232,440
881.292236,437
881.40918,448
881.526123,439
881.643066,437
881.760071,446
881.877014,450
881.993958,458
882.11084,473
882.227783,448
882.344727,427
882.46167,434
882.578613,449
882.695618,452
882.812439,447
882.929382,446
883.046326,450
883.163208,435
883.280151,456
883.397034,450
883.513916,433
883.630798,443
883.747742,445
883.864563,447
883.981506,444
884.098389,444
884.21521,456
884.332153,449
884.448975,440
884.565796,447
884.682678,458
884.7995,458
884.916443,453
885.033264,460
885.150085,459
885.266968,457
885.383789,476
885.500671,466
885.617493,474
885.734314,461
885.851196,479
885.967896,463
886.084717,462
886.201599,488
886.318359,464
886.435181,471
886.552002,486
886.668762,446
886.785645,455
886.902344,449
887.019165,444
887.135925,461
887.252747,461
887.369446,454
887.486267,442
887.603027,463
887.719788,467
887.836548,445
887.953247,451
888.070068,435
888.186829,442
888.303528,430
888.420288,450
888.536987,427
888.653687,456
888.770447,443
888.887146,440
889.003967,450
889.120667,437
889.237305,450
889.354065,448
889.470703,449
889.587463,452
889.704163,445
889.820862,445
889.937561,450
890.054199,464
890.170837,454
890.287598,470
890.404236,440
890.520874,451
890.637634,446
890.754211,459
890.87085,446
890.987549,441
891.104187,434
891.220886,464
891.337463,469
891.454102,438
891.57074,445
891.687378,443
891.804077,443
891.920654,456
892.037231,460
892.15387,452
892.270447,450
892.387085,439
892.503723,448
892.6203,458
892.736877,446
892.853516,435
892.970032,460
893.08667,472
893.203186,446
893.319763,446
893.43634,454
893.552917,447
893.669556,467
893.786011,444
893.902588,448
894.019165,442
894.135681,437
894.252197,452
894.368835,455
894.485291,471
894.601868,441
894.718384,438
894.8349,457
894.951355,455
895.067932,426
895.184448,452
895.300964,453
895.417419,462
895.533936,443
895.650452,467
895.766907,464
895.883423,457
895.999878,442
896.116333,463
896.232849,439
896.349304,462
896.465759,448
896.582214,446
896.698669,439
896.815125,448
896.931641,463
897.048035,444
897.164551,449
897.280884,438
897.397339,435
897.513794,462
897.630249,458
897.746582,455
897.863098,460
897.979431,462
898.095886,458
898.212341,452
898.328674,451
898.445129,458
898.561462,438
898.677795,459
898.794312,459
898.910645,467
899.026978,461
899.143433,438
899.259766,443
899.37616,462
899.492493,452
899.608765,462
899.725159,448
899.841553,431
899.957947,453
900.07428,459
900.190552,457
900.306946,456
900.423157,462
900.53949,463
900.655884,439
900.772156,461
900.888489,444
901.004822,441
901.121033,450
901.237366,463
901.353699,449
901.46991,459
901.586304,469
901.702515,453
901.818787,454
901.93512,448
902.051331,459
902.167603,460
902.283875,460
902.400085,457
902.516418,463
902.632629,447
902.74884,464
902.865112,455
902.981384,441
903.097595,450
903.213867,453
903.330017,480
903.446289,462
903.5625,459
903.67865,458
903.794922,463
903.911072,451
904.027344,464
904.143494,448
904.259705,454
904.375916,460
904.492065,448
904.608215,448
904.724426,439
904.840576,450
904.956726,465
905.072876,452
905.189087,458
905.305176,476
905.421387,447
905.537537,443
905.653687,473
905.769775,458
905.885925,456
906.002014,446
906.118164,453
906.234314,444
906.350403,446
906.466492,458
906.582642,454
906.69873,450
906.814758,435
906.930908,470
907.046936,474
907.163086,438
907.279175,449
907.395264,455
907.511353,461
907.62738,453
907.743408,448
907.859497,446
907.975525,450
908.091553,459
908.207703,459
908.32373,456
908.439758,465
908.555786,444
908.671814,457
908.787842,449
908.90387,446
909.019775,446
909.135864,447
909.251892,457
909.367859,449
909.483826,455
909.599854,452
909.715881,472
909.831848,460
909.947815,437
910.063782,471
910.179749,462
910.295776,476
910.411743,459
910.527649,460
910.643616,455
910.759583,463
910.875488,452
910.991455,443
911.107361,452
911.223267,449
911.339294,454
911.4552,471
911.571106,446
911.687073,462
911.802979,466
911.918823,465
912.034729,461
912.150635,449
912.266602,449
912.382446,466
912.498352,457
912.614197,459
912.730103,432
912.846008,469
792.44574,578
792.56488,592
792.68396,643
792.80304,615
792.92218,559
793.041199,551
793.160339,540
793.279419,554
793.398499,539
793.517578,528
793.636658,546
793.755737,548
793.874817,574
793.993896,555
794.112976,528
794.232056,533
794.351074,525
794.470215,510
794.589233,548
794.708313,516
794.827393,536
794.946411,541
795.065552,538
795.18457,530
795.303589,528
795.422668,540
795.541687,535
795.660767,523
795.779846,502
795.898865,515
796.017883,507
796.136963,502
796.255981,542
796.375061,504
796.49408,498
796.613037,527
796.732117,528
796.851135,506
796.970154,533
797.089233,495
797.208191,521
797.327271,510
797.446228,519
797.565186,518
797.684265,505
797.803223,509
797.922241,515
798.04126,493
798.160278,522
798.279297,512
798.398315,502
798.517273,503
798.636292,528
798.75531,505
798.874268,511
798.993286,523
799.112244,492
799.231323,505
799.350281,507
799.469238,522
799.588257,497
799.707153,519
799.826111,508
799.945129,505
800.064087,503
800.183044,506
800.302063,487
800.421021,507
800.539978,522
800.658936,493
800.777893,498
800.896912,503
801.015747,498
801.134705,512
801.253723,502
801.37262,506
801.491638,489
801.610535,483
801.729492,492
801.84845,507
801.967407,502
802.086243,510
802.205261,488
802.324158,513
802.443115,502
802.562073,470
802.680969,475
802.799927,497
802.918762,498
803.037659,481
803.156677,494
803.275574,483
803.39447,490
803.513428,501
803.632263,488
803.751221,478
803.870117,492
803.989014,493
804.107971,496
804.226746,484
804.345642,494
804.4646,487
804.583496,487
804.702393,504
804.821228,497
804.940125,480
805.059021,482
805.177917,497
805.296814,486
805.415649,511
805.534546,488
805.653442,483
805.772278,501
805.891113,484
806.01001,496
806.128906,486
806.247742,475
806.366577,497
806.485413,513
806.604309,503
806.723145,495
806.84198,490
806.960876,511
807.079712,476
807.198486,479
807.317383,496
807.436218,483
807.554993,491
807.673889,474
807.792725,484
807.91156,493
808.030396,459
808.14917,510
808.268005,468
808.386841,481
808.505676,490
808.624451,505
808.743286,482
808.862122,483
808.980896,489
809.099731,492
809.218506,499
809.337341,478
809.456116,487
809.57489,498
809.693726,483
809.8125,506
809.931274,484
810.050049,496
810.168884,507
810.287659,478
810.406372,489
810.525269,494
810.643982,490
810.762756,482
810.881531,498
811.000305,490
811.11908,473
811.237854,501
811.356567,508
811.475403,482
811.594116,479
811.71283,511
811.831604,486
811.950378,502
812.069153,479
812.187927,497
812.30658,492
812.425415,497
812.544128,504
812.662781,497
812.781616,496
812.900269,485
813.019043,497
813.137756,502
813.256531,470
813.375244,484
813.493896,480
813.612671,481
813.731384,487
813.850037,484
813.96875,478
814.087524,494
814.206238,478
814.324951,489
814.443604,470
814.562256,496
814.68103,468
814.799683,493
814.918335,481
815.037109,489
815.155762,484
815.274475,495
815.393188,480
815.511841,484
815.630554,472
815.749146,493
815.867859,489
815.986572,457
816.105164,492
816.223877,476
816.342529,493
816.461182,493
816.579895,494
816.698486,476
816.817139,485
816.935791,505
817.054504,489
817.173096,465
817.291748,482
817.4104,475
817.529053,492
817.647644,482
817.766235,472
817.884949,484
818.00354,479
818.122192,473
818.240845,478
818.359436,486
818.478088,467
818.59668,465
818.715271,469
818.833923,463
818.952515,447
819.071106,462
819.189758,458
819.30835,482
819.426941,471
819.545532,484
819.664124,463
819.782715,481
819.901306,457
820.019897,477
820.138489,451
820.25708,475
820.375671,446
820.494202,463
820.612732,447
820.731384,466
820.849915,479
820.968506,476
821.087097,474
821.205627,472
821.324158,483
821.442749,454
821.561279,480
821.679871,463
821.798401,472
821.916931,474
822.035461,449
822.154053,457
822.272583,458
822.391174,464
822.509583,433
822.628174,453
822.746704,473
822.865234,468
822.983765,447
823.102295,463
823.220825,451
823.339294,469
823.457825,435
823.576355,465
823.694824,456
823.813354,468
823.931885,465
824.050354,465
824.168884,449
824.287354,460
824.405823,448
824.524353,460
824.642822,464
824.761353,453
824.879822,459
824.998291,447
825.116699,463
825.235291,444
825.353699,463
825.472168,450
825.590637,451
825.709106,480
825.827576,460
825.946045,452
826.064453,473
826.182983,464
826.301392,450
826.4198,461
826.53833,467
826.656738,449
826.775208,455
826.893677,455
827.012024,452
827.130493,461
827.248962,444
827.36731,458
827.485779,428
827.604248,440
827.722595,467
827.841064,442
827.959412,448
828.077942,466
828.196289,445
828.314636,447
828.433105,461
828.551514,457
828.669861,435
828.78833,472
828.906677,457
829.025085,454
829.143433,445
829.261841,441
829.38031,445
829.498657,450
829.617004,452
829.735413,454
829.85376,457
829.972107,455
830.090515,444
830.208862,449
830.327209,432
830.445557,451
830.563904,454
830.682312,474
830.800659,439
830.919006,455
831.037354,456
831.155701,467
831.274048,459
831.392395,462
831.51062,461
831.629028,456
831.747314,435
831.865662,441
831.984009,457
832.102356,446
832.220642,469
832.338928,465
832.457275,458
832.575623,450
832.693909,443
832.812134,449
832.930481,440
833.048828,446
833.167114,459
833.2854,450
833.403687,458
833.521973,463
833.640259,469
833.758545,456
833.876831,452
833.995056,452
834.113281,443
834.231628,466
834.349915,447
834.468201,458
834.586426,453
834.704651,434
834.822998,460
834.941162,460
835.059448,446
835.177673,460
835.295959,444
835.414246,457
835.53241,463
835.650635,441
835.768921,448
835.887146,446
836.005371,465
836.123596,446
836.241821,463
836.360046,451
836.478271,431
836.596497,461
836.714722,451
836.832886,438
836.95105,477
837.069336,460
837.1875,442
837.305725,440
837.423889,438
837.542053,450
837.660339,453
837.778503,464
837.896667,453
838.014832,444
838.132996,470
838.25116,459
838.369385,454
838.487488,455
838.605713,457
838.723877,446
838.84198,456
838.960205,454
839.078308,436
839.196472,458
839.314636,456
839.4328,459
839.550964,451
839.669067,472
839.787231,438
839.905396,446
840.023499,450
840.141602,468
840.259766,462
840.377869,447
840.495972,448
840.614136,448
840.732239,455
840.850342,452
840.968445,460
841.086548,445
841.204651,429
841.322754,456
841.440918,457
841.55896,478
841.677002,442
841.795166,457
841.913208,460
842.031311,457
842.149353,462
842.267456,429
842.385498,469
842.503601,449
842.621643,441
842.739746,436
842.857788,469
842.97583,453
843.093933,452
843.211975,433
843.330017,439
843.44812,458
843.566101,451
843.684204,442
843.802246,447
843.920227,474
844.038269,431
844.156311,455
844.274292,480
844.392395,450
844.510376,443
844.628357,447
844.74646,442
844.864441,470
844.982422,442
845.100403,457
845.218384,441
845.336426,445
845.454468,451
845.572449,468
845.69043,460
845.808411,450
845.926453,461
846.044373,451
846.162354,441
846.280396,451
846.398315,460
846.516296,426
846.634216,457
846.752197,463
846.870178,441
846.988098,453
847.106079,447
847.22406,450
847.34198,445
847.4599,480
847.577881,447
847.695801,460
847.813782,424
847.931641,443
848.049561,454
848.167603,433
848.285461,452
848.403381,460
848.521362,445
848.639221,453
848.75708,434
848.875,464
848.99292,457
849.110901,454
849.22876,434
849.34668,456
849.464539,454
849.582458,446
849.700317,455
849.818176,469
849.936096,431
850.053955,454
850.171875,446
850.289673,431
850.407593,431
850.525452,448
850.643311,456
850.761169,448
850.878967,450
850.996887,456
851.114746,454
851.232544,465
851.350403,454
851.468262,436
851.58606,436
851.703979,459
851.821777,452
851.939636,452
852.057434,441
852.175232,461
852.293091,442
852.410889,447
852.528687,466
852.646545,446
852.764343,467
852.88208,466
852.999939,446
853.117676,468
853.235535,443
853.353271,448
853.471069,442
853.588928,431
853.706604,464
853.824402,462
853.9422,459
854.059998,455
854.177734,425
854.295532,447
854.413269,432
854.531006,438
854.648804,463
854.766541,471
854.884277,461
855.002014,443
855.119751,441
855.237549,462
855.355225,440
855.473022,458
855.590698,424
855.708435,449
855.826172,447
855.943848,455
856.061646,440
856.179321,476
856.296997,441
856.414795,471
856.53241,465
856.650085,451
856.767822,451
856.885559,452
857.003174,454
857.120911,444
857.238586,453
857.356201,450
857.473938,442
857.591614,450
857.709351,458
857.826965,447
857.944641,438
858.062317,447
858.179993,470
858.297668,461
858.415283,475
858.532959,467
858.650574,447
858.768188,447
858.885803,444
859.003479,452
859.121094,448
859.23877,474
859.356384,445
859.473999,441
859.591675,457
859.709229,446
859.826843,450
859.944458,438
860.062012,447
860.179626,454
860.297302,445
860.414856,432
860.532471,454
860.650024,449
860.767639,444
860.885193,463
861.002808,450
861.120361,445
861.237976,444
861.35553,451
861.473022,469
861.590698,453
861.708191,468
861.825745,434
861.943298,475
862.060852,441
862.178406,435
862.295959,451
862.413513,437
862.531006,449
862.64856,451
862.766113,462
862.883667,444
863.00116,441
863.118713,462
863.236206,449
863.353699,445
863.471252,463
863.588745,451
863.706177,460
863.82373,450
863.941162,456
864.058716,442
864.176208,429
864.29364,433
864.411194,461
864.528687,421
864.646118,450
864.763611,456
864.881042,430
864.998535,441
865.116028,458
865.233459,448
865.350891,459
865.468384,449
865.585754,451
865.703308,431
865.820679,443
865.938171,450
866.055542,443
866.173035,457
866.290466,452
866.407837,446
866.52533,439
866.6427,449
866.760071,451
866.877563,448
866.994934,452
867.112305,444
867.229736,445
867.347107,448
867.464539,443
867.58197,435
867.699341,436
867.81665,455
867.934082,449
868.051453,443
868.168823,466
868.286194,444
868.403564,465
868.520935,434
868.638306,447
868.755676,445
868.872986,447
868.990295,464
869.107727,460
869.225037,446
869.342346,452
869.459717,456
869.577026,480
869.694336,445
869.811707,452
869.929016,446
870.046326,466
870.163635,457
870.280945,451
870.398254,460
870.515564,449
870.632812,440
870.750183,464
870.867432,438
870.984741,456
871.102051,460
871.219299,467
871.336609,444
871.453918,459
871.571106,448
871.688416,470
871.805664,438
871.922852,487
872.040222,452
872.157471,465
872.274719,461
872.391968,443
872.509155,461
872.626465,453
872.743652,450
872.860962,475
872.978149,453
873.095337,463
873.212646,452
873.329834,461
873.44696,464
873.564209,437
873.681396,450
873.798645,451
873.915894,442
874.03302,454
874.150208,462
874.267456,461
874.384583,469
874.501831,462
874.618958,456
874.736145,456
874.853333,446
874.970459,447
875.087646,455
875.204834,456
875.32196,441
875.439148,471
875.556274,462
875.673401,464
875.790527,417
875.907715,455
876.024841,455
876.141968,457
876.259094,438
876.376282,467
876.493347,428
876.610474,458
876.7276,475
876.844727,438
876.961853,473
877.078918,464
877.195984,458
877.313171,456
877.430237,438
877.547302,459
877.664368,446
877.781433,462
877.898499,435
878.015625,463
878.13269,444
878.249695,466
878.366821,469
878.483887,445
878.600952,456
878.717957,451
878.834961,448
878.952087,446
879.069092,451
879.186157,460
879.303162,452
879.420227,438
879.537231,442
879.654236,465
879.77124,450
879.888306,445
880.005249,448
880.122314,452
880.239319,439
880.356323,460
880.473328,450
880.590271,462
880.707275,438
880.824341,441
880.941284,426
881.058228,441
881.175232,450
881.292236,439
881.40918,454
881.526123,455
881.643066,450
881.760071,449
881.877014,452
881.993958,460
882.11084,446
882.227783,489
882.344727,442
882.46167,456
882.578613,434
882.695618,474
882.812439,430
882.929382,449
883.046326,466
883.163208,438
883.280151,446
883.397034,461
883.513916,441
883.630798,459
883.747742,443
883.864563,447
883.981506,454
884.098389,449
884.21521,436
884.332153,456
884.448975,439
884.565796,450
884.682678,455
884.7995,475
884.916443,444
885.033264,456
885.150085,456
885.266968,458
885.383789,468
885.500671,506
885.617493,464
885.734314,480
885.851196,465
885.967896,465
886.084717,470
886.201599,469
886.318359,451
886.435181,468
886.552002,462
886.668762,457
886.785645,470
886.902344,485
887.019165,461
887.135925,460
887.252747,444
887.369446,462
887.486267,448
887.603027,450
887.719788,443
887.836548,478
887.953247,465
888.070068,469
888.186829,463
888.303528,460
888.420288,458
888.536987,465
888.653687,438
888.770447,467
888.887146,461
889.003967,459
889.120667,464
889.237305,449
889.354065,443
889.470703,449
889.587463,470
889.704163,446
889.820862,446
889.937561,460
890.054199,436
890.170837,468
890.287598,452
890.404236,459
890.520874,452
890.637634,457
890.754211,440
890.87085,459
890.987549,468
891.104187,467
891.220886,452
891.337463,438
891.454102,437
891.57074,463
891.687378,447
891.804077,462
891.920654,465
892.037231,449
892.15387,450
892.270447,462
892.387085,459
892.503723,453
892.6203,447
892.736877,463
892.853516,446
892.970032,472
893.08667,448
893.203186,440
893.319763,460
893.43634,454
893.552917,438
893.669556,460
893.786011,446
893.902588,456
894.019165,457
894.135681,450
894.252197,466
894.368835,458
894.485291,449
894.601868,458
894.718384,459
894.8349,464
894.951355,446
895.067932,455
895.184448,464
895.300964,478
895.417419,454
895.533936,443
895.650452,446
895.766907,465
895.883423,450
895.999878,455
896.116333,452
896.232849,444
896.349304,445
896.465759,453
896.582214,454
896.698669,435
896.815125,459
896.931641,444
897.048035,463
897.164551,461
897.280884,468
897.397339,457
897.513794,464
897.630249,457
897.746582,466
897.863098,451
897.979431,454
898.095886,478
898.212341,436
898.328674,475
898.445129,451
898.561462,447
898.677795,445
898.794312,459
898.910645,443
899.026978,463
899.143433,452
899.259766,454
899.37616,465
899.492493,470
899.608765,444
899.725159,457
899.841553,448
899.957947,472
900.07428,462
900.190552,448
900.306946,470
900.423157,443
900.53949,466
900.655884,445
900.772156,462
900.888489,460
901.004822,445
901.121033,464
901.237366,443
901.353699,452
901.46991,447
901.586304,465
901.702515,440
901.818787,455
901.93512,456
902.051331,482
902.167603,474
902.283875,485
902.400085,472
902.516418,457
902.632629,448
902.74884,459
902.865112,481
902.981384,475
903.097595,465
903.213867,475
903.330017,459
903.446289,474
903.5625,476
903.67865,457
903.794922,472
903.911072,476
904.027344,450
904.143494,460
904.259705,454
904.375916,471
904.492065,458
904.608215,480
904.724426,426
904.840576,464
904.956726,462
905.072876,469
905.189087,473
905.305176,476
905.421387,440
905.537537,482
905.653687,455
905.769775,461
905.885925,455
906.002014,464
906.118164,450
906.234314,452
906.350403,452
906.466492,464
906.582642,450
906.69873,473
906.814758,459
906.930908,476
907.046936,445
907.163086,474
907.279175,469
907.395264,464
907.511353,452
907.62738,450
907.743408,465
907.859497,467
907.975525,453
908.091553,452
908.207703,431
908.32373,484
908.439758,441
908.555786,450
908.671814,464
908.787842,476
908.90387,452
909.019775,463
909.135864,467
909.251892,470
909.367859,461
909.483826,456
909.599854,463
909.715881,447
909.831848,461
909.947815,458
910.063782,465
910.179749,476
910.295776,472
910.411743,447
910.527649,459
910.643616,450
910.759583,467
910.875488,480
910.991455,449
911.107361,455
911.223267,461
911.339294,453
911.4552,467
911.571106,470
911.687073,451
911.802979,459
911.918823,462
912.034729,470
912.150635,463
912.266602,457
912.382446,453
912.498352,465
912.614197,466
912.730103,468
912.846008,421
792.44574,589
792.56488,612
792.68396,637
792.80304,609
792.92218,572
793.041199,552
793.160339,534
793.279419,566
793.398499,557
793.517578,527
793.636658,526
793.755737,546
793.874817,566
793.993896,564
794.112976,542
794.232056,560
794.351074,545
794.470215,558
794.589233,550
794.708313,567
794.827393,548
794.946411,541
795.065552,543
795.18457,534
795.303589,517
795.422668,532
795.541687,519
795.660767,553
795.779846,525
795.898865,521
796.017883,522
796.136963,522
796.255981,531
796.375061,496
796.49408,523
796.613037,515
796.732117,523
796.851135,518
796.970154,518
797.089233,513
797.208191,516
797.327271,525
797.446228,520
797.565186,524
797.684265,518
797.803223,509
797.922241,500
798.04126,501
798.160278,512
798.279297,505
798.398315,491
798.517273,511
798.636292,513
798.75531,511
798.874268,496
798.993286,510
799.112244,502
799.231323,516
799.350281,495
799.469238,512
799.588257,506
799.707153,505
799.826111,525
799.945129,503
800.064087,484
800.183044,504
800.302063,501
800.421021,522
800.539978,497
800.658936,496
800.777893,507
800.896912,494
801.015747,506
801.134705,491
801.253723,492
801.37262,496
801.491638,517
801.610535,497
801.729492,502
801.84845,500
801.967407,500
802.086243,492
802.205261,491
802.324158,483
802.443115,474
802.562073,511
802.680969,493
802.799927,481
802.918762,488
803.037659,504
803.156677,487
803.275574,501
803.39447,497
803.513428,499
803.632263,502
803.751221,502
803.870117,479
803.989014,502
804.107971,498
804.226746,509
804.345642,487
804.4646,509
804.583496,500
804.702393,491
804.821228,471
804.940125,510
805.059021,495
805.177917,495
805.296814,488
805.415649,515
805.534546,506
805.653442,500
805.772278,503
805.891113,512
806.01001,490
806.128906,503
806.247742,515
806.366577,496
806.485413,490
806.604309,496
806.723145,474
806.84198,492
806.960876,503
807.079712,485
807.198486,508
807.317383,519
807.436218,483
807.554993,506
807.673889,489
807.792725,505
807.91156,491
808.030396,485
808.14917,492
808.268005,498
808.386841,487
808.505676,501
808.624451,493
808.743286,499
808.862122,486
808.980896,480
809.099731,506
809.218506,492
809.337341,471
809.456116,509
809.57489,480
809.693726,501
809.8125,489
809.931274,501
810.050049,487
810.168884,501
810.287659,487
810.406372,492
810.525269,488
810.643982,497
810.762756,484
810.881531,488
811.000305,498
811.11908,497
811.237854,500
811.356567,481
811.475403,482
811.594116,495
811.71283,487
811.831604,482
811.950378,493
812.069153,509
812.187927,493
812.30658,492
812.425415,514
812.544128,487
812.662781,484
812.781616,483
812.900269,505
813.019043,487
813.137756,491
813.256531,488
813.375244,487
813.493896,503
813.612671,474
813.731384,516
813.850037,482
813.96875,497
814.087524,482
814.206238,486
814.324951,494
814.443604,481
814.562256,456
814.68103,481
814.799683,506
814.918335,482
815.037109,504
815.155762,489
815.274475,517
815.393188,474
815.511841,492
815.630554,482
815.749146,503
815.867859,487
815.986572,489
816.105164,489
816.223877,491
816.342529,477
816.461182,492
816.579895,478
816.698486,497
816.817139,476
816.935791,497
817.054504,470
817.173096,494
817.291748,486
817.4104,502
817.529053,484
817.647644,483
817.766235,488
817.884949,471
818.00354,475
818.122192,472
818.240845,470
818.359436,493
818.478088,482
818.59668,487
818.715271,478
818.833923,471
818.952515,463
819.071106,453
819.189758,479
819.30835,466
819.426941,480
819.545532,457
819.664124,472
819.782715,479
819.901306,475
820.019897,445
820.138489,477
820.25708,468
820.375671,467
820.494202,458
820.612732,482
820.731384,471
820.849915,482
820.968506,471
821.087097,463
821.205627,459
821.324158,481
821.442749,461
821.561279,458
821.679871,477
821.798401,451
821.916931,481
822.035461,459
822.154053,461
822.272583,465
822.391174,471
822.509583,452
822.628174,470
822.746704,458
822.865234,452
822.983765,439
823.102295,453
823.220825,470
823.339294,464
823.457825,447
823.576355,475
823.694824,467
823.813354,487
823.931885,446
824.050354,462
824.168884,480
824.287354,468
824.405823,482
824.524353,470
824.642822,473
824.761353,461
824.879822,449
824.998291,460
825.116699,473
825.235291,454
825.353699,466
825.472168,487
825.590637,465
825.709106,472
825.827576,469
825.946045,460
826.064453,471
826.182983,458
826.301392,457
826.4198,455
826.53833,452
826.656738,454
826.775208,446
826.893677,467
827.012024,466
827.130493,461
827.248962,463
827.36731,449
827.485779,471
827.604248,457
827.722595,474
827.841064,470
827.959412,430
828.077942,464
828.196289,458
828.314636,474
828.433105,441
828.551514,445
828.669861,474
828.78833,445
828.906677,455
829.025085,466
829.143433,447
829.261841,464
829.38031,441
829.498657,455
829.617004,448
829.735413,447
829.85376,462
829.972107,457
830.090515,459
830.208862,444
830.327209,439
830.445557,454
830.563904,453
830.682312,449
830.800659,458
830.919006,456
831.037354,461
831.155701,439
831.274048,457
831.392395,455
831.51062,449
831.629028,441
831.747314,455
831.865662,460
831.984009,462
832.102356,452
832.220642,439
832.338928,455
832.457275,488
832.575623,454
832.693909,439
832.812134,448
832.930481,462
833.048828,460
833.167114,449
833.2854,454
833.403687,466
833.521973,461
833.640259,446
833.758545,475
833.876831,450
833.995056,457
834.113281,444
834.231628,457
834.349915,462
834.468201,454
834.586426,456
834.704651,445
834.822998,475
834.941162,465
835.059448,465
835.177673,464
835.295959,450
835.414246,432
835.53241,457
835.650635,456
835.768921,426
835.887146,450
836.005371,458
836.123596,445
836.241821,448
836.360046,451
836.478271,457
836.596497,455
836.714722,455
836.832886,443
836.95105,448
837.069336,459
837.1875,450
837.305725,451
837.423889,442
837.542053,465
837.660339,453
837.778503,458
837.896667,458
838.014832,447
838.132996,446
838.25116,427
838.369385,462
838.487488,457
838.605713,461
838.723877,451
838.84198,458
838.960205,480
839.078308,458
839.196472,459
839.314636,464
839.4328,445
839.550964,468
839.669067,442
839.787231,453
839.905396,436
840.023499,458
840.141602,445
840.259766,465
840.377869,457
840.495972,446
840.614136,470
840.732239,440
840.850342,439
840.968445,444
841.086548,467
841.204651,441
841.322754,454
841.440918,461
841.55896,450
841.677002,436
841.795166,437
841.913208,448
842.031311,440
842.149353,469
842.267456,448
842.385498,453
842.503601,427
842.621643,463
842.739746,443
842.857788,434
842.97583,436
843.093933,454
843.211975,474
843.330017,455
843.44812,461
843.566101,465
843.684204,439
843.802246,460
843.920227,456
844.038269,454
844.156311,461
844.274292,437
844.392395,445
844.510376,458
844.628357,440
844.74646,452
844.864441,450
844.982422,459
845.100403,446
845.218384,462
845.336426,456
845.454468,458
845.572449,443
845.69043,441
845.808411,444
845.926453,435
846.044373,459
846.162354,463
846.280396,447
846.398315,458
846.516296,445
846.634216,443
846.752197,452
846.870178,466
846.988098,465
847.106079,450
847.22406,464
847.34198,465
847.4599,449
847.577881,459
847.695801,433
847.813782,462
847.931641,446
848.049561,439
848.167603,450
848.285461,456
848.403381,461
848.521362,465
848.639221,449
848.75708,444
848.875,439
848.99292,447
849.110901,443
849.22876,448
849.34668,431
849.464539,441
849.582458,448
849.700317,464
849.818176,452
849.936096,438
850.053955,439
850.171875,455
850.289673,445
850.407593,439
850.525452,439
850.643311,436
850.761169,433
850.878967,469
850.996887,453
851.114746,467
851.232544,451
851.350403,469
851.468262,447
851.58606,453
851.703979,437
851.821777,439
851.939636,458
852.057434,458
852.175232,439
852.293091,445
852.410889,448
852.528687,463
852.646545,466
852.764343,450
852.88208,460
852.999939,458
853.117676,449
853.235535,474
853.353271,454
853.471069,458
853.588928,432
853.706604,447
853.824402,456
853.9422,441
854.059998,444
854.177734,448
854.295532,453
854.413269,440
854.531006,443
854.648804,459
854.766541,468
854.884277,441
855.002014,465
855.119751,448
855.237549,458
855.355225,443
855.473022,445
855.590698,467
855.708435,450
855.826172,443
855.943848,451
856.061646,452
856.179321,449
856.296997,462
856.414795,474
856.53241,456
856.650085,454
856.767822,457
856.885559,478
857.003174,454
857.120911,473
857.238586,448
857.356201,461
857.473938,456
857.591614,450
857.709351,462
857.826965,455
857.944641,459
858.062317,443
858.179993,462
858.297668,467
858.415283,459
858.532959,454
858.650574,452
858.768188,466
858.885803,465
859.003479,461
859.121094,462
859.23877,458
859.356384,449
859.473999,461
859.591675,461
859.709229,461
859.826843,464
859.944458,436
860.062012,448
860.179626,446
860.297302,459
860.414856,447
860.532471,454
860.650024,454
860.767639,445
860.885193,464
861.002808,442
861.120361,462
861.237976,450
861.35553,450
861.473022,452
861.590698,457
861.708191,484
861.825745,431
861.943298,456
862.060852,449
862.178406,455
862.295959,455
862.413513,444
862.531006,443
862.64856,448
862.766113,438
862.883667,432
863.00116,466
863.118713,444
863.236206,464
863.353699,452
863.471252,461
863.588745,459
863.706177,463
863.82373,457
863.941162,456
864.058716,466
864.176208,445
864.29364,459
864.411194,450
864.528687,433
864.646118,427
864.763611,453
864.881042,459
864.998535,449
865.116028,424
865.233459,447
865.350891,444
865.468384,449
865.585754,457
865.703308,453
865.820679,445
865.938171,462
866.055542,444
866.173035,444
866.290466,461
866.407837,456
866.52533,462
866.6427,454
866.760071,432
866.877563,452
866.994934,443
867.112305,442
867.229736,443
867.347107,439
867.464539,447
867.58197,470
867.699341,460
867.81665,468
867.934082,428
868.051453,459
868.168823,446
868.286194,460
868.403564,468
868.520935,448
868.638306,417
868.755676,460
868.872986,456
868.990295,457
869.107727,453
869.225037,461
869.342346,443
869.459717,458
869.577026,471
869.694336,429
869.811707,439
869.929016,464
870.046326,441
870.163635,459
870.280945,474
870.398254,466
870.515564,432
870.632812,457
870.750183,435
870.867432,454
870.984741,463
871.102051,468
871.219299,447
871.336609,465
871.453918,469
871.571106,459
871.688416,475
871.805664,447
871.922852,449
872.040222,448
872.157471,447
872.274719,456
872.391968,448
872.509155,454
872.626465,450
872.743652,459
872.860962,450
872.978149,457
873.095337,456
873.212646,447
873.329834,442
873.44696,466
873.564209,466
873.681396,460
873.798645,458
873.915894,467
874.03302,457
874.150208,448
874.267456,457
874.384583,462
874.501831,443
874.618958,471
874.736145,457
874.853333,451
874.970459,460
875.087646,450
875.204834,451
875.32196,461
875.439148,458
875.556274,476
875.673401,474
875.790527,477
875.907715,446
876.024841,444
876.141968,444
876.259094,453
876.376282,468
876.493347,454
876.610474,461
876.7276,442
876.844727,456
876.961853,480
877.078918,442
877.195984,464
877.313171,446
877.430237,456
877.547302,455
877.664368,445
877.781433,450
877.898499,467
878.015625,452
878.13269,447
878.249695,450
878.366821,447
878.483887,453
878.600952,481
878.717957,459
878.834961,447
878.952087,456
879.069092,446
879.186157,463
879.303162,439
879.420227,456
879.537231,464
879.654236,444
879.77124,449
879.888306,448
880.005249,447
880.122314,478
880.239319,451
880.356323,443
880.473328,450
880.590271,450
880.707275,457
880.824341,462
880.941284,456
881.058228,443
881.175232,456
881.292236,444
881.40918,455
881.526123,463
881.643066,450
881.760071,458
881.877014,453
881.993958,463
882.11084,461
882.227783,458
882.344727,468
882.46167,447
882.578613,450
882.695618,446
882.812439,447
882.929382,449
883.046326,471
883.163208,444
883.280151,456
883.397034,461
883.513916,454
883.630798,458
883.747742,437
883.864563,451
883.981506,437
884.098389,457
884.21521,444
884.332153,465
884.448975,456
884.565796,448
884.682678,460
884.7995,455
884.916443,459
885.033264,466
885.150085,456
885.266968,466
885.383789,467
885.500671,454
885.617493,480
885.734314,480
885.851196,479
885.967896,471
886.084717,481
886.201599,449
886.318359,475
886.435181,468
886.552002,467
886.668762,480
886.785645,462
886.902344,492
887.019165,472
887.135925,470
887.252747,446
887.369446,463
887.486267,466
887.603027,486
887.719788,455
887.836548,474
887.953247,454
888.070068,452
888.186829,458
888.303528,453
888.420288,447
888.536987,456
888.653687,453
888.770447,469
888.887146,456
889.003967,459
889.120667,447
889.237305,445
889.354065,460
889.470703,453
889.587463,430
889.704163,457
889.820862,456
889.937561,447
890.054199,444
890.170837,452
890.287598,453
890.404236,456
890.520874,454
890.637634,457
890.754211,462
890.87085,448
890.987549,467
891.104187,459
891.220886,465
891.337463,432
891.454102,477
891.57074,464
891.687378,444
891.804077,464
891.920654,448
892.037231,453
892.15387,442
892.270447,440
892.387085,484
892.503723,458
892.6203,451
892.736877,466
892.853516,468
892.970032,453
893.08667,461
893.203186,428
893.319763,466
893.43634,474
893.552917,458
893.669556,453
893.786011,450
893.902588,469
894.019165,438
894.135681,449
894.252197,472
894.368835,461
894.485291,465
894.601868,473
894.718384,458
894.8349,448
894.951355,465
895.067932,443
895.184448,462
895.300964,454
895.417419,467
895.533936,465
895.650452,462
895.766907,442
895.883423,447
895.999878,449
896.116333,454
896.232849,448
896.349304,451
896.465759,441
896.582214,468
896.698669,459
896.815125,469
896.931641,454
897.048035,467
897.164551,434
897.280884,447
897.397339,456
897.513794,452
897.630249,460
897.746582,429
897.863098,447
897.979431,440
898.095886,442
898.212341,478
898.328674,455
898.445129,446
898.561462,480
898.677795,470
898.794312,448
898.910645,466
899.026978,441
899.143433,461
899.259766,445
899.37616,455
899.492493,467
899.608765,440
899.725159,461
899.841553,466
899.957947,461
900.07428,444
900.190552,441
900.306946,443
900.423157,463
900.53949,471
900.655884,461
900.772156,452
900.888489,470
901.004822,469
901.121033,456
901.237366,461
901.353699,450
901.46991,462
901.586304,453
901.702515,465
901.818787,456
901.93512,464
902.051331,467
902.167603,449
902.283875,454
902.400085,481
902.516418,476
902.632629,473
902.74884,475
902.865112,481
902.981384,474
903.097595,482
903.213867,464
903.330017,459
903.446289,463
903.5625,456
903.67865,490
903.794922,458
903.911072,456
904.027344,462
904.143494,465
904.259705,467
904.375916,457
904.492065,463
904.608215,476
904.724426,485
904.840576,465
904.956726,460
905.072876,455
905.189087,473
905.305176,464
905.421387,470
905.537537,460
905.653687,450
905.769775,458
905.885925,471
906.002014,454
906.118164,460
906.234314,446
906.350403,461
906.466492,468
906.582642,472
906.69873,464
906.814758,457
906.930908,476
907.046936,451
907.163086,444
907.279175,486
907.395264,463
907.511353,482
907.62738,453
907.743408,445
907.859497,466
907.975525,458
908.091553,465
908.207703,463
908.32373,460
908.439758,469
908.555786,451
908.671814,445
908.787842,457
908.90387,477
909.019775,474
909.135864,461
909.251892,488
909.367859,459
909.483826,471
909.599854,475
909.715881,473
909.831848,478
909.947815,449
910.063782,471
910.179749,468
910.295776,479
910.411743,466
910.527649,465
910.643616,477
910.759583,458
910.875488,468
910.991455,480
911.107361,458
911.223267,474
911.339294,468
911.4552,475
911.571106,489
911.687073,474
911.802979,452
911.918823,450
912.034729,458
912.150635,458
912.266602,479
912.382446,460
912.498352,459
912.614197,469
912.730103,471
912.846008,463
