792.44574,606
792.56488,667
792.68396,688
792.80304,679
792.92218,637
793.041199,613
793.160339,629
793.279419,633
793.398499,607
793.517578,595
793.636658,630
793.755737,616
793.874817,616
793.993896,605
794.112976,634
794.232056,570
794.351074,600
794.470215,616
794.589233,608
794.708313,572
794.827393,596
794.946411,604
795.065552,620
795.18457,616
795.303589,612
795.422668,599
795.541687,599
795.660767,599
795.779846,590
795.898865,607
796.017883,596
796.136963,553
796.255981,602
796.375061,602
796.49408,597
796.613037,576
796.732117,574
796.851135,602
796.970154,589
797.089233,571
797.208191,584
797.327271,564
797.446228,586
797.565186,565
797.684265,572
797.803223,578
797.922241,579
798.04126,578
798.160278,595
798.279297,558
798.398315,568
798.517273,577
798.636292,583
798.75531,561
798.874268,594
798.993286,564
799.112244,563
799.231323,578
799.350281,573
799.469238,605
799.588257,577
799.707153,584
799.826111,563
799.945129,593
800.064087,576
800.183044,575
800.302063,569
800.421021,555
800.539978,562
800.658936,601
800.777893,565
800.896912,586
801.015747,584
801.134705,572
801.253723,564
801.37262,540
801.491638,572
801.610535,595
801.729492,581
801.84845,569
801.967407,581
802.086243,581
802.205261,584
802.324158,586
802.443115,575
802.562073,595
802.680969,582
802.799927,601
802.918762,605
803.037659,580
803.156677,582
803.275574,592
803.39447,585
803.513428,591
803.632263,600
803.751221,597
803.870117,601
803.989014,598
804.107971,594
804.226746,603
804.345642,594
804.4646,597
804.583496,625
804.702393,592
804.821228,587
804.940125,591
805.059021,614
805.177917,623
805.296814,597
805.415649,597
805.534546,606
805.653442,615
805.772278,606
805.891113,600
806.01001,603
806.128906,600
806.247742,621
806.366577,621
806.485413,617
806.604309,610
806.723145,607
806.84198,623
806.960876,602
807.079712,599
807.198486,611
807.317383,613
807.436218,611
807.554993,604
807.673889,616
807.792725,646
807.91156,614
808.030396,603
808.14917,619
808.268005,603
808.386841,630
808.505676,606
808.624451,611
808.743286,651
808.862122,622
808.980896,617
809.099731,603
809.218506,607
809.337341,606
809.456116,620
809.57489,631
809.693726,628
809.8125,619
809.931274,628
810.050049,636
810.168884,620
810.287659,623
810.406372,636
810.525269,622
810.643982,644
810.762756,646
810.881531,612
811.000305,645
811.11908,628
811.237854,621
811.356567,633
811.475403,619
811.594116,643
811.71283,646
811.831604,624
811.950378,623
812.069153,593
812.187927,640
812.30658,605
812.425415,650
812.544128,636
812.662781,633
812.781616,649
812.900269,616
813.019043,635
813.137756,638
813.256531,623
813.375244,637
813.493896,612
813.612671,655
813.731384,626
813.850037,633
813.96875,633
814.087524,623
814.206238,606
814.324951,620
814.443604,640
814.562256,631
814.68103,595
814.799683,649
814.918335,628
815.037109,644
815.155762,648
815.274475,614
815.393188,623
815.511841,607
815.630554,606
815.749146,598
815.867859,588
815.986572,614
816.105164,589
816.223877,614
816.342529,584
816.461182,607
816.579895,613
816.698486,619
816.817139,597
816.935791,598
817.054504,616
817.173096,593
817.291748,589
817.4104,614
817.529053,603
817.647644,582
817.766235,563
817.884949,592
818.00354,556
818.122192,572
818.240845,563
818.359436,542
818.478088,525
818.59668,541
818.715271,501
818.833923,550
818.952515,524
819.071106,509
819.189758,516
819.30835,507
819.426941,511
819.545532,505
819.664124,513
819.782715,522
819.901306,481
820.019897,484
820.138489,507
820.25708,498
820.375671,488
820.494202,516
820.612732,497
820.731384,496
820.849915,477
820.968506,485
821.087097,487
821.205627,519
821.324158,493
821.442749,491
821.561279,481
821.679871,480
821.798401,490
821.916931,508
822.035461,486
822.154053,466
822.272583,487
822.391174,477
822.509583,486
822.628174,475
822.746704,468
822.865234,490
822.983765,461
823.102295,461
823.220825,468
823.339294,470
823.457825,469
823.576355,468
823.694824,481
823.813354,482
823.931885,491
824.050354,477
824.168884,475
824.287354,490
824.405823,487
824.524353,480
824.642822,485
824.761353,474
824.879822,496
824.998291,496
825.116699,504
825.235291,490
825.353699,462
825.472168,495
825.590637,488
825.709106,477
825.827576,465
825.946045,482
826.064453,485
826.182983,473
826.301392,481
826.4198,463
826.53833,461
826.656738,461
826.775208,478
826.893677,470
827.012024,455
827.130493,478
827.248962,466
827.36731,475
827.485779,462
827.604248,464
827.722595,462
827.841064,467
827.959412,442
828.077942,469
828.196289,453
828.314636,455
828.433105,456
828.551514,463
828.669861,450
828.78833,453
828.906677,456
829.025085,458
829.143433,455
829.261841,457
829.38031,457
829.498657,454
829.617004,467
829.735413,477
829.85376,461
829.972107,446
830.090515,451
830.208862,469
830.327209,429
830.445557,453
830.563904,452
830.682312,462
830.800659,472
830.919006,463
831.037354,461
831.155701,441
831.274048,461
831.392395,472
831.51062,462
831.629028,443
831.747314,462
831.865662,457
831.984009,453
832.102356,450
832.220642,445
832.338928,460
832.457275,446
832.575623,471
832.693909,443
832.812134,445
832.930481,463
833.048828,466
833.167114,467
833.2854,476
833.403687,464
833.521973,428
833.640259,451
833.758545,460
833.876831,448
833.995056,456
834.113281,432
834.231628,481
834.349915,468
834.468201,467
834.586426,460
834.704651,473
834.822998,449
834.941162,461
835.059448,450
835.177673,479
835.295959,444
835.414246,468
835.53241,453
835.650635,457
835.768921,461
835.887146,452
836.005371,454
836.123596,480
836.241821,456
836.360046,475
836.478271,469
836.596497,464
836.714722,458
836.832886,472
836.95105,475
837.069336,484
837.1875,462
837.305725,488
837.423889,475
837.542053,480
837.660339,470
837.778503,477
837.896667,472
838.014832,473
838.132996,452
838.25116,478
838.369385,476
838.487488,467
838.605713,476
838.723877,462
838.84198,486
838.960205,467
839.078308,472
839.196472,492
839.314636,462
839.4328,471
839.550964,475
839.669067,465
839.787231,475
839.905396,484
840.023499,448
840.141602,460
840.259766,468
840.377869,474
840.495972,476
840.614136,470
840.732239,468
840.850342,483
840.968445,465
841.086548,466
841.204651,457
841.322754,462
841.440918,439
841.55896,478
841.677002,455
841.795166,439
841.913208,448
842.031311,456
842.149353,471
842.267456,454
842.385498,459
842.503601,459
842.621643,465
842.739746,453
842.857788,460
842.97583,462
843.093933,443
843.211975,463
843.330017,447
843.44812,452
843.566101,450
843.684204,462
843.802246,455
843.920227,459
844.038269,446
844.156311,472
844.274292,452
844.392395,463
844.510376,442
844.628357,449
844.74646,447
844.864441,437
844.982422,446
845.100403,460
845.218384,466
845.336426,464
845.454468,441
845.572449,449
845.69043,453
845.808411,437
845.926453,450
846.044373,423
846.162354,447
846.280396,439
846.398315,434
846.516296,444
846.634216,465
846.752197,445
846.870178,465
846.988098,465
847.106079,459
847.22406,444
847.34198,453
847.4599,440
847.577881,450
847.695801,462
847.813782,436
847.931641,462
848.049561,428
848.167603,440
848.285461,444
848.403381,457
848.521362,434
848.639221,461
848.75708,440
848.875,456
848.99292,419
849.110901,443
849.22876,430
849.34668,454
849.464539,440
849.582458,444
849.700317,462
849.818176,460
849.936096,454
850.053955,462
850.171875,450
850.289673,445
850.407593,436
850.525452,465
850.643311,454
850.761169,459
850.878967,460
850.996887,441
851.114746,445
851.232544,439
851.350403,447
851.468262,451
851.58606,443
851.703979,459
851.821777,447
851.939636,445
852.057434,453
852.175232,459
852.293091,436
852.410889,443
852.528687,443
852.646545,461
852.764343,451
852.88208,450
852.999939,436
853.117676,461
853.235535,457
853.353271,444
853.471069,450
853.588928,463
853.706604,437
853.824402,471
853.9422,441
854.059998,454
854.177734,449
854.295532,448
854.413269,459
854.531006,445
854.648804,445
854.766541,447
854.884277,453
855.002014,467
855.119751,462
855.237549,437
855.355225,469
855.473022,464
855.590698,455
855.708435,460
855.826172,461
855.943848,448
856.061646,468
856.179321,452
856.296997,468
856.414795,473
856.53241,463
856.650085,441
856.767822,461
856.885559,457
857.003174,455
857.120911,450
857.238586,452
857.356201,441
857.473938,448
857.591614,458
857.709351,458
857.826965,472
857.944641,444
858.062317,464
858.179993,459
858.297668,456
858.415283,475
858.532959,469
858.650574,435
858.768188,459
858.885803,465
859.003479,454
859.121094,450
859.23877,445
859.356384,458
859.473999,465
859.591675,454
859.709229,463
859.826843,438
859.944458,439
860.062012,457
860.179626,467
860.297302,442
860.414856,452
860.532471,434
860.650024,453
860.767639,438
860.885193,457
861.002808,449
861.120361,454
861.237976,446
861.35553,455
861.473022,461
861.590698,452
861.708191,458
861.825745,430
861.943298,453
862.060852,449
862.178406,442
862.295959,451
862.413513,455
862.531006,447
862.64856,457
862.766113,470
862.883667,461
863.00116,461
863.118713,462
863.236206,457
863.353699,447
863.471252,451
863.588745,443
863.706177,447
863.82373,447
863.941162,447
864.058716,449
864.176208,466
864.29364,460
864.411194,454
864.528687,440
864.646118,439
864.763611,452
864.881042,442
864.998535,441
865.116028,451
865.233459,434
865.350891,463
865.468384,451
865.585754,445
865.703308,451
865.820679,442
865.938171,462
866.055542,462
866.173035,466
866.290466,469
866.407837,455
866.52533,451
866.6427,448
866.760071,463
866.877563,444
866.994934,459
867.112305,445
867.229736,462
867.347107,446
867.464539,458
867.58197,458
867.699341,454
867.81665,446
867.934082,464
868.051453,443
868.168823,444
868.286194,452
868.403564,454
868.520935,471
868.638306,461
868.755676,433
868.872986,461
868.990295,464
869.107727,455
869.225037,463
869.342346,457
869.459717,459
869.577026,460
869.694336,437
869.811707,455
869.929016,458
870.046326,455
870.163635,442
870.280945,443
870.398254,452
870.515564,461
870.632812,436
870.750183,449
870.867432,441
870.984741,463
871.102051,451
871.219299,452
871.336609,449
871.453918,439
871.571106,464
871.688416,453
871.805664,430
871.922852,443
872.040222,450
872.157471,457
872.274719,445
872.391968,461
872.509155,445
872.626465,473
872.743652,465
872.860962,466
872.978149,442
873.095337,442
873.212646,434
873.329834,467
873.44696,450
873.564209,446
873.681396,446
873.798645,446
873.915894,439
874.03302,455
874.150208,454
874.267456,458
874.384583,474
874.501831,449
874.618958,462
874.736145,467
874.853333,444
874.970459,447
875.087646,438
875.204834,454
875.32196,443
875.439148,454
875.556274,443
875.673401,468
875.790527,447
875.907715,463
876.024841,440
876.141968,462
876.259094,460
876.376282,465
876.493347,451
876.610474,459
876.7276,448
876.844727,456
876.961853,436
877.078918,440
877.195984,452
877.313171,453
877.430237,432
877.547302,442
877.664368,445
877.781433,445
877.898499,452
878.015625,443
878.13269,461
878.249695,442
878.366821,440
878.483887,450
878.600952,470
878.717957,455
878.834961,443
878.952087,454
879.069092,446
879.186157,453
879.303162,445
879.420227,454
879.537231,447
879.654236,452
879.77124,445
879.888306,442
880.005249,445
880.122314,456
880.239319,457
880.356323,448
880.473328,449
880.590271,450
880.707275,452
880.824341,447
880.941284,468
881.058228,453
881.175232,444
881.292236,459
881.40918,443
881.526123,455
881.643066,447
881.760071,447
881.877014,445
881.993958,449
882.11084,462
882.227783,463
882.344727,464
882.46167,464
882.578613,447
882.695618,426
882.812439,466
882.929382,460
883.046326,473
883.163208,445
883.280151,431
883.397034,456
883.513916,444
883.630798,460
883.747742,430
883.864563,455
883.981506,447
884.098389,469
884.21521,460
884.332153,463
884.448975,468
884.565796,478
884.682678,438
884.7995,456
884.916443,470
885.033264,463
885.150085,461
885.266968,467
885.383789,459
885.500671,474
885.617493,466
885.734314,454
885.851196,449
885.967896,447
886.084717,446
886.201599,472
886.318359,469
886.435181,473
886.552002,459
886.668762,469
886.785645,455
886.902344,478
887.019165,459
887.135925,482
887.252747,457
887.369446,461
887.486267,459
887.603027,440
887.719788,448
887.836548,462
887.953247,471
888.070068,474
888.186829,480
888.303528,473
888.420288,461
888.536987,446
888.653687,460
888.770447,460
888.887146,451
889.003967,471
889.120667,451
889.237305,443
889.354065,429
889.470703,446
889.587463,441
889.704163,456
889.820862,460
889.937561,458
890.054199,458
890.170837,470
890.287598,459
890.404236,451
890.520874,447
890.637634,463
890.754211,465
890.87085,460
890.987549,466
891.104187,454
891.220886,452
891.337463,467
891.454102,441
891.57074,457
891.687378,456
891.804077,459
891.920654,453
892.037231,459
892.15387,461
892.270447,456
892.387085,458
892.503723,455
892.6203,448
892.736877,472
892.853516,452
892.970032,466
893.08667,442
893.203186,474
893.319763,462
893.43634,469
893.552917,457
893.669556,474
893.786011,468
893.902588,470
894.019165,464
894.135681,453
894.252197,454
894.368835,469
894.485291,462
894.601868,473
894.718384,457
894.8349,450
894.951355,452
895.067932,476
895.184448,450
895.300964,453
895.417419,460
895.533936,468
895.650452,462
895.766907,447
895.883423,469
895.999878,461
896.116333,428
896.232849,453
896.349304,450
896.465759,446
896.582214,448
896.698669,452
896.815125,442
896.931641,474
897.048035,442
897.164551,454
897.280884,472
897.397339,459
897.513794,449
897.630249,458
897.746582,442
897.863098,444
897.979431,472
898.095886,454
898.212341,446
898.328674,477
898.445129,459
898.561462,439
898.677795,471
898.794312,472
898.910645,461
899.026978,477
899.143433,464
899.259766,471
899.37616,446
899.492493,477
899.608765,472
899.725159,473
899.841553,450
899.957947,464
900.07428,437
900.190552,458
900.306946,446
900.423157,471
900.53949,455
900.655884,473
900.772156,460
900.888489,470
901.004822,455
901.121033,477
901.237366,454
901.353699,472
901.46991,459
901.586304,490
901.702515,466
901.818787,466
901.93512,452
902.051331,449
902.167603,472
902.283875,481
902.400085,457
902.516418,474
902.632629,464
902.74884,459
902.865112,464
902.981384,465
903.097595,462
903.213867,461
903.330017,444
903.446289,461
903.5625,463
903.67865,484
903.794922,459
903.911072,472
904.027344,479
904.143494,459
904.259705,467
904.375916,462
904.492065,468
904.608215,459
904.724426,439
904.840576,459
904.956726,466
905.072876,453
905.189087,457
905.305176,479
905.421387,470
905.537537,470
905.653687,470
905.769775,470
905.885925,465
906.002014,448
906.118164,457
906.234314,483
906.350403,467
906.466492,458
906.582642,466
906.69873,446
906.814758,473
906.930908,444
907.046936,441
907.163086,478
907.279175,476
907.395264,479
907.511353,451
907.62738,460
907.743408,459
907.859497,483
907.975525,456
908.091553,467
908.207703,470
908.32373,458
908.439758,435
908.555786,449
908.671814,454
908.787842,472
908.90387,455
909.019775,461
909.135864,457
909.251892,464
909.367859,475
909.483826,464
909.599854,464
909.715881,470
909.831848,453
909.947815,477
910.063782,468
910.179749,479
910.295776,452
910.411743,465
910.527649,461
910.643616,497
910.759583,479
910.875488,462
910.991455,460
911.107361,468
911.223267,486
911.339294,458
911.4552,463
911.571106,458
911.687073,469
911.802979,474
911.918823,454
912.034729,475
912.150635,460
912.266602,473
912.382446,471
912.498352,466
912.614197,481
912.730103,473
912.846008,442
792.44574,649
792.56488,669
792.68396,743
792.80304,691
792.92218,651
793.041199,622
793.160339,598
793.279419,655
793.398499,626
793.517578,598
793.636658,624
793.755737,648
793.874817,619
793.993896,636
794.112976,611
794.232056,605
794.351074,610
794.470215,612
794.589233,596
794.708313,616
794.827393,603
794.946411,642
795.065552,622
795.18457,614
795.303589,634
795.422668,610
795.541687,607
795.660767,597
795.779846,571
795.898865,592
796.017883,587
796.136963,602
796.255981,609
796.375061,597
796.49408,608
796.613037,586
796.732117,589
796.851135,574
796.970154,596
797.089233,594
797.208191,576
797.327271,582
797.446228,573
797.565186,578
797.684265,572
797.803223,577
797.922241,598
798.04126,583
798.160278,578
798.279297,571
798.398315,559
798.517273,581
798.636292,587
798.75531,588
798.874268,592
798.993286,598
799.112244,588
799.231323,607
799.350281,582
799.469238,581
799.588257,584
799.707153,597
799.826111,589
799.945129,582
800.064087,574
800.183044,569
800.302063,586
800.421021,581
800.539978,573
800.658936,583
800.777893,576
800.896912,577
801.015747,575
801.134705,567
801.253723,597
801.37262,582
801.491638,578
801.610535,577
801.729492,584
801.84845,612
801.967407,587
802.086243,603
802.205261,586
802.324158,568
802.443115,595
802.562073,580
802.680969,593
802.799927,599
802.918762,599
803.037659,580
803.156677,614
803.275574,610
803.39447,592
803.513428,589
803.632263,602
803.751221,599
803.870117,606
803.989014,595
804.107971,615
804.226746,596
804.345642,565
804.4646,609
804.583496,598
804.702393,597
804.821228,591
804.940125,596
805.059021,617
805.177917,625
805.296814,616
805.415649,618
805.534546,597
805.653442,604
805.772278,596
805.891113,588
806.01001,617
806.128906,628
806.247742,627
806.366577,605
806.485413,626
806.604309,628
806.723145,615
806.84198,614
806.960876,619
807.079712,632
807.198486,614
807.317383,613
807.436218,608
807.554993,598
807.673889,636
807.792725,624
807.91156,608
808.030396,627
808.14917,591
808.268005,628
808.386841,629
808.505676,600
808.624451,636
808.743286,614
808.862122,626
808.980896,631
809.099731,619
809.218506,643
809.337341,606
809.456116,611
809.57489,626
809.693726,646
809.8125,637
809.931274,632
810.050049,652
810.168884,648
810.287659,644
810.406372,632
810.525269,635
810.643982,627
810.762756,640
810.881531,627
811.000305,633
811.11908,628
811.237854,651
811.356567,627
811.475403,613
811.594116,621
811.71283,628
811.831604,626
811.950378,612
812.069153,636
812.187927,633
812.30658,637
812.425415,642
812.544128,635
812.662781,626
812.781616,638
812.900269,602
813.019043,636
813.137756,639
813.256531,649
813.375244,626
813.493896,636
813.612671,641
813.731384,650
813.850037,651
813.96875,609
814.087524,620
814.206238,624
814.324951,618
814.443604,622
814.562256,628
814.68103,611
814.799683,610
814.918335,637
815.037109,615
815.155762,604
815.274475,610
815.393188,604
815.511841,612
815.630554,613
815.749146,631
815.867859,609
815.986572,628
816.105164,615
816.223877,625
816.342529,609
816.461182,617
816.579895,589
816.698486,620
816.817139,617
816.935791,632
817.054504,627
817.173096,619
817.291748,611
817.4104,627
817.529053,609
817.647644,605
817.766235,595
817.884949,606
818.00354,591
818.122192,555
818.240845,580
818.359436,551
818.478088,540
818.59668,560
818.715271,546
818.833923,517
818.952515,521
819.071106,520
819.189758,519
819.30835,520
819.426941,495
819.545532,520
819.664124,489
819.782715,507
819.901306,516
820.019897,506
820.138489,510
820.25708,514
820.375671,515
820.494202,483
820.612732,493
820.731384,505
820.849915,497
820.968506,487
821.087097,498
821.205627,494
821.324158,486
821.442749,520
821.561279,464
821.679871,488
821.798401,484
821.916931,494
822.035461,480
822.154053,481
822.272583,491
822.391174,492
822.509583,469
822.628174,498
822.746704,487
822.865234,492
822.983765,471
823.102295,470
823.220825,468
823.339294,488
823.457825,491
823.576355,500
823.694824,468
823.813354,495
823.931885,457
824.050354,479
824.168884,467
824.287354,507
824.405823,481
824.524353,474
824.642822,483
824.761353,499
824.879822,485
824.998291,492
825.116699,480
825.235291,491
825.353699,493
825.472168,473
825.590637,497
825.709106,484
825.827576,472
825.946045,473
826.064453,464
826.182983,482
826.301392,479
826.4198,465
826.53833,487
826.656738,486
826.775208,460
826.893677,477
827.012024,479
827.130493,479
827.248962,473
827.36731,490
827.485779,463
827.604248,484
827.722595,452
827.841064,470
827.959412,452
828.077942,462
828.196289,454
828.314636,486
828.433105,474
828.551514,457
828.669861,440
828.78833,455
828.906677,473
829.025085,467
829.143433,470
829.261841,461
829.38031,476
829.498657,462
829.617004,459
829.735413,446
829.85376,456
829.972107,475
830.090515,453
830.208862,462
830.327209,477
830.445557,447
830.563904,465
830.682312,444
830.800659,468
830.919006,457
831.037354,458
831.155701,460
831.274048,457
831.392395,471
831.51062,449
831.629028,438
831.747314,450
831.865662,449
831.984009,450
832.102356,462
832.220642,451
832.338928,476
832.457275,472
832.575623,452
832.693909,457
832.812134,464
832.930481,457
833.048828,443
833.167114,458
833.2854,465
833.403687,477
833.521973,468
833.640259,450
833.758545,473
833.876831,452
833.995056,477
834.113281,468
834.231628,482
834.349915,471
834.468201,479
834.586426,454
834.704651,490
834.822998,453
834.941162,460
835.059448,460
835.177673,454
835.295959,474
835.414246,463
835.53241,477
835.650635,429
835.768921,463
835.887146,462
836.005371,468
836.123596,469
836.241821,464
836.360046,467
836.478271,470
836.596497,471
836.714722,495
836.832886,477
836.95105,471
837.069336,470
837.1875,460
837.305725,489
837.423889,469
837.542053,475
837.660339,452
837.778503,471
837.896667,485
838.014832,480
838.132996,453
838.25116,477
838.369385,461
838.487488,495
838.605713,475
838.723877,459
838.84198,485
838.960205,481
839.078308,474
839.196472,466
839.314636,465
839.4328,484
839.550964,471
839.669067,454
839.787231,479
839.905396,485
840.023499,455
840.141602,465
840.259766,491
840.377869,474
840.495972,466
840.614136,483
840.732239,484
840.850342,472
840.968445,471
841.086548,469
841.204651,452
841.322754,476
841.440918,486
841.55896,464
841.677002,474
841.795166,465
841.913208,466
842.031311,458
842.149353,458
842.267456,465
842.385498,461
842.503601,445
842.621643,469
842.739746,460
842.857788,462
842.97583,471
843.093933,448
843.211975,462
843.330017,459
843.44812,460
843.566101,458
843.684204,451
843.802246,450
843.920227,466
844.038269,460
844.156311,449
844.274292,453
844.392395,466
844.510376,456
844.628357,434
844.74646,464
844.864441,449
844.982422,450
845.100403,442
845.218384,458
845.336426,445
845.454468,469
845.572449,452
845.69043,461
845.808411,459
845.926453,476
846.044373,467
846.162354,446
846.280396,481
846.398315,456
846.516296,457
846.634216,438
846.752197,469
846.870178,447
846.988098,453
847.106079,444
847.22406,474
847.34198,475
847.4599,479
847.577881,456
847.695801,461
847.813782,434
847.931641,453
848.049561,454
848.167603,450
848.285461,451
848.403381,442
848.521362,457
848.639221,472
848.75708,441
848.875,443
848.99292,452
849.110901,453
849.22876,461
849.34668,441
849.464539,447
849.582458,437
849.700317,437
849.818176,467
849.936096,456
850.053955,445
850.171875,450
850.289673,439
850.407593,444
850.525452,451
850.643311,439
850.761169,459
850.878967,445
850.996887,474
851.114746,432
851.232544,450
851.350403,456
851.468262,450
851.58606,476
851.703979,456
851.821777,447
851.939636,437
852.057434,444
852.175232,454
852.293091,457
852.410889,471
852.528687,465
852.646545,483
852.764343,461
852.88208,454
852.999939,449
853.117676,459
853.235535,454
853.353271,446
853.471069,454
853.588928,446
853.706604,468
853.824402,466
853.9422,458
854.059998,455
854.177734,470
854.295532,466
854.413269,459
854.531006,452
854.648804,459
854.766541,455
854.884277,437
855.002014,459
855.119751,464
855.237549,447
855.355225,465
855.473022,475
855.590698,459
855.708435,475
855.826172,474
855.943848,452
856.061646,456
856.179321,482
856.296997,460
856.414795,463
856.53241,457
856.650085,462
856.767822,462
856.885559,460
857.003174,438
857.120911,459
857.238586,472
857.356201,467
857.473938,466
857.591614,466
857.709351,470
857.826965,458
857.944641,453
858.062317,453
858.179993,445
858.297668,444
858.415283,457
858.532959,453
858.650574,453
858.768188,449
858.885803,459
859.003479,460
859.121094,459
859.23877,489
859.356384,456
859.473999,446
859.591675,453
859.709229,469
859.826843,459
859.944458,447
860.062012,444
860.179626,459
860.297302,448
860.414856,448
860.532471,456
860.650024,471
860.767639,453
860.885193,464
861.002808,444
861.120361,469
861.237976,437
861.35553,456
861.473022,457
861.590698,441
861.708191,461
861.825745,445
861.943298,459
862.060852,450
862.178406,473
862.295959,447
862.413513,446
862.531006,460
862.64856,453
862.766113,448
862.883667,453
863.00116,454
863.118713,435
863.236206,467
863.353699,446
863.471252,444
863.588745,449
863.706177,450
863.82373,446
863.941162,453
864.058716,462
864.176208,447
864.29364,467
864.411194,460
864.528687,431
864.646118,476
864.763611,461
864.881042,445
864.998535,450
865.116028,466
865.233459,434
865.350891,452
865.468384,414
865.585754,466
865.703308,449
865.820679,462
865.938171,459
866.055542,459
866.173035,444
866.290466,448
866.407837,454
866.52533,468
866.6427,464
866.760071,461
866.877563,464
866.994934,472
867.112305,467
867.229736,447
867.347107,455
867.464539,462
867.58197,462
867.699341,460
867.81665,445
867.934082,475
868.051453,444
868.168823,454
868.286194,474
868.403564,472
868.520935,464
868.638306,463
868.755676,436
868.872986,447
868.990295,470
869.107727,479
869.225037,446
869.342346,449
869.459717,461
869.577026,452
869.694336,467
869.811707,452
869.929016,453
870.046326,427
870.163635,468
870.280945,452
870.398254,456
870.515564,438
870.632812,444
870.750183,438
870.867432,463
870.984741,462
871.102051,459
871.219299,453
871.336609,438
871.453918,469
871.571106,451
871.688416,466
871.805664,453
871.922852,442
872.040222,440
872.157471,482
872.274719,456
872.391968,453
872.509155,462
872.626465,454
872.743652,453
872.860962,448
872.978149,446
873.095337,470
873.212646,456
873.329834,473
873.44696,448
873.564209,459
873.681396,452
873.798645,460
873.915894,458
874.03302,460
874.150208,457
874.267456,452
874.384583,441
874.501831,449
874.618958,448
874.736145,459
874.853333,444
874.970459,469
875.087646,462
875.204834,463
875.32196,441
875.439148,451
875.556274,455
875.673401,477
875.790527,455
875.907715,451
876.024841,422
876.141968,464
876.259094,440
876.376282,459
876.493347,442
876.610474,456
876.7276,443
876.844727,468
876.961853,453
877.078918,468
877.195984,452
877.313171,463
877.430237,461
877.547302,449
877.664368,456
877.781433,449
877.898499,457
878.015625,475
878.13269,438
878.249695,447
878.366821,445
878.483887,455
878.600952,463
878.717957,452
878.834961,464
878.952087,473
879.069092,465
879.186157,444
879.303162,442
879.420227,457
879.537231,459
879.654236,441
879.77124,456
879.888306,453
880.005249,451
880.122314,448
880.239319,460
880.356323,471
880.473328,453
880.590271,445
880.707275,461
880.824341,456
880.941284,444
881.058228,454
881.175232,456
881.292236,456
881.40918,469
881.526123,439
881.643066,452
881.760071,470
881.877014,455
881.993958,449
882.11084,453
882.227783,455
882.344727,468
882.46167,460
882.578613,444
882.695618,463
882.812439,456
882.929382,479
883.046326,444
883.163208,464
883.280151,455
883.397034,470
883.513916,437
883.630798,458
883.747742,448
883.864563,458
883.981506,454
884.098389,456
884.21521,462
884.332153,478
884.448975,460
884.565796,472
884.682678,465
884.7995,453
884.916443,463
885.033264,460
885.150085,453
885.266968,458
885.383789,459
885.500671,474
885.617493,465
885.734314,454
885.851196,473
885.967896,477
886.084717,463
886.201599,453
886.318359,448
886.435181,457
886.552002,468
886.668762,452
886.785645,455
886.902344,469
887.019165,472
887.135925,467
887.252747,461
887.369446,451
887.486267,451
887.603027,471
887.719788,449
887.836548,449
887.953247,463
888.070068,446
888.186829,443
888.303528,450
888.420288,460
888.536987,450
888.653687,440
888.770447,452
888.887146,462
889.003967,473
889.120667,448
889.237305,455
889.354065,461
889.470703,471
889.587463,459
889.704163,467
889.820862,426
889.937561,477
890.054199,452
890.170837,464
890.287598,462
890.404236,468
890.520874,467
890.637634,479
890.754211,455
890.87085,467
890.987549,443
891.104187,469
891.220886,470
891.337463,458
891.454102,450
891.57074,475
891.687378,452
891.804077,466
891.920654,456
892.037231,454
892.15387,456
892.270447,459
892.387085,451
892.503723,473
892.6203,463
892.736877,471
892.853516,464
892.970032,470
893.08667,481
893.203186,455
893.319763,450
893.43634,472
893.552917,458
893.669556,460
893.786011,462
893.902588,466
894.019165,461
894.135681,472
894.252197,471
894.368835,477
894.485291,461
894.601868,458
894.718384,471
894.8349,457
894.951355,475
895.067932,484
895.184448,449
895.300964,461
895.417419,447
895.533936,451
895.650452,461
895.766907,469
895.883423,471
895.999878,467
896.116333,459
896.232849,468
896.349304,475
896.465759,479
896.582214,469
896.698669,466
896.815125,462
896.931641,429
897.048035,455
897.164551,473
897.280884,461
897.397339,467
897.513794,450
897.630249,442
897.746582,456
897.863098,474
897.979431,455
898.095886,458
898.212341,471
898.328674,483
898.445129,483
898.561462,459
898.677795,455
898.794312,472
898.910645,451
899.026978,468
899.143433,453
899.259766,474
899.37616,467
899.492493,490
899.608765,492
899.725159,467
899.841553,468
899.957947,464
900.07428,483
900.190552,470
900.306946,462
900.423157,467
900.53949,481
900.655884,472
900.772156,463
900.888489,465
901.004822,462
901.121033,463
901.237366,450
901.353699,474
901.46991,436
901.586304,482
901.702515,455
901.818787,467
901.93512,463
902.051331,466
902.167603,462
902.283875,464
902.400085,465
902.516418,468
902.632629,462
902.74884,467
902.865112,478
902.981384,486
903.097595,463
903.213867,478
903.330017,460
903.446289,481
903.5625,458
903.67865,472
903.794922,459
903.911072,498
904.027344,487
904.143494,462
904.259705,463
904.375916,464
904.492065,480
904.608215,498
904.724426,456
904.840576,470
904.956726,469
905.072876,466
905.189087,448
905.305176,477
905.421387,468
905.537537,473
905.653687,468
905.769775,461
905.885925,475
906.002014,472
906.118164,470
906.234314,459
906.350403,469
906.466492,492
906.582642,478
906.69873,452
906.814758,450
906.930908,474
907.046936,468
907.163086,469
907.279175,450
907.395264,478
907.511353,468
907.62738,482
907.743408,456
907.859497,464
907.975525,463
908.091553,471
908.207703,467
908.32373,477
908.439758,473
908.555786,469
908.671814,460
908.787842,447
908.90387,467
909.019775,465
909.135864,460
909.251892,489
909.367859,467
909.483826,481
909.599854,472
909.715881,472
909.831848,464
909.947815,475
910.063782,458
910.179749,475
910.295776,489
910.411743,478
910.527649,452
910.643616,476
910.759583,484
910.875488,460
910.991455,458
911.107361,475
911.223267,456
911.339294,483
911.4552,488
911.571106,465
911.687073,443
911.802979,487
911.918823,472
912.034729,464
912.150635,480
912.266602,475
912.382446,462
912.498352,464
912.614197,480
912.730103,475
912.846008,465
792.44574,651
792.56488,680
792.68396,691
792.80304,670
792.92218,625
793.041199,632
793.160339,598
793.279419,636
793.398499,623
793.517578,600
793.636658,633
793.755737,637
793.874817,629
793.993896,619
794.112976,609
794.232056,599
794.351074,598
794.470215,607
794.589233,621
794.708313,585
794.827393,589
794.946411,588
795.065552,620
795.18457,611
795.303589,581
795.422668,616
795.541687,600
795.660767,621
795.779846,600
795.898865,592
796.017883,584
796.136963,589
796.255981,606
796.375061,612
796.49408,604
796.613037,580
796.732117,582
796.851135,593
796.970154,594
797.089233,613
797.208191,588
797.327271,582
797.446228,583
797.565186,575
797.684265,570
797.803223,593
797.922241,571
798.04126,597
798.160278,577
798.279297,567
798.398315,571
798.517273,577
798.636292,570
798.75531,590
798.874268,602
798.993286,595
799.112244,590
799.231323,572
799.350281,559
799.469238,571
799.588257,586
799.707153,582
799.826111,578
799.945129,591
800.064087,570
800.183044,591
800.302063,582
800.421021,599
800.539978,569
800.658936,566
800.777893,592
800.896912,589
801.015747,597
801.134705,594
801.253723,577
801.37262,575
801.491638,585
801.610535,613
801.729492,603
801.84845,590
801.967407,593
802.086243,582
802.205261,594
802.324158,589
802.443115,590
802.562073,585
802.680969,588
802.799927,589
802.918762,597
803.037659,599
803.156677,619
803.275574,593
803.39447,597
803.513428,596
803.632263,602
803.751221,613
803.870117,583
803.989014,595
804.107971,588
804.226746,595
804.345642,606
804.4646,574
804.583496,599
804.702393,581
804.821228,602
804.940125,603
805.059021,601
805.177917,608
805.296814,582
805.415649,624
805.534546,611
805.653442,594
805.772278,624
805.891113,632
806.01001,606
806.128906,606
806.247742,591
806.366577,593
806.485413,630
806.604309,640
806.723145,604
806.84198,611
806.960876,603
807.079712,603
807.198486,586
807.317383,625
807.436218,596
807.554993,624
807.673889,603
807.792725,607
807.91156,621
808.030396,616
808.14917,619
808.268005,617
808.386841,618
808.505676,631
808.624451,624
808.743286,604
808.862122,619
808.980896,633
809.099731,595
809.218506,612
809.337341,607
809.456116,610
809.57489,622
809.693726,623
809.8125,623
809.931274,610
810.050049,641
810.168884,610
810.287659,646
810.406372,622
810.525269,650
810.643982,612
810.762756,607
810.881531,609
811.000305,630
811.11908,631
811.237854,634
811.356567,617
811.475403,611
811.594116,614
811.71283,633
811.831604,619
811.950378,622
812.069153,627
812.187927,639
812.30658,660
812.425415,649
812.544128,639
812.662781,616
812.781616,649
812.900269,620
813.019043,606
813.137756,617
813.256531,655
813.375244,604
813.493896,665
813.612671,629
813.731384,618
813.850037,638
813.96875,641
814.087524,605
814.206238,635
814.324951,625
814.443604,612
814.562256,616
814.68103,628
814.799683,627
814.918335,635
815.037109,598
815.155762,617
815.274475,627
815.393188,639
815.511841,619
815.630554,619
815.749146,636
815.867859,603
815.986572,609
816.105164,600
816.223877,593
816.342529,613
816.461182,628
816.579895,644
816.698486,630
816.817139,630
816.935791,624
817.054504,634
817.173096,628
817.291748,610
817.4104,580
817.529053,602
817.647644,601
817.766235,593
817.884949,567
818.00354,561
818.122192,565
818.240845,586
818.359436,555
818.478088,560
818.59668,541
818.715271,547
818.833923,522
818.952515,540
819.071106,537
819.189758,533
819.30835,532
819.426941,501
819.545532,503
819.664124,527
819.782715,520
819.901306,510
820.019897,482
820.138489,515
820.25708,513
820.375671,509
820.494202,482
820.612732,488
820.731384,496
820.849915,510
820.968506,485
821.087097,499
821.205627,469
821.324158,482
821.442749,506
821.561279,482
821.679871,479
821.798401,478
821.916931,489
822.035461,514
822.154053,462
822.272583,472
822.391174,471
822.509583,466
822.628174,477
822.746704,490
822.865234,463
822.983765,484
823.102295,489
823.220825,494
823.339294,478
823.457825,488
823.576355,490
823.694824,475
823.813354,462
823.931885,496
824.050354,471
824.168884,518
824.287354,490
824.405823,513
824.524353,477
824.642822,459
824.761353,479
824.879822,489
824.998291,493
825.116699,486
825.235291,494
825.353699,492
825.472168,493
825.590637,494
825.709106,492
825.827576,485
825.946045,466
826.064453,487
826.182983,459
826.301392,455
826.4198,474
826.53833,486
826.656738,482
826.775208,477
826.893677,461
827.012024,475
827.130493,474
827.248962,492
827.36731,471
827.485779,459
827.604248,470
827.722595,459
827.841064,460
827.959412,453
828.077942,452
828.196289,476
828.314636,452
828.433105,467
828.551514,471
828.669861,461
828.78833,463
828.906677,471
829.025085,455
829.143433,471
829.261841,455
829.38031,484
829.498657,451
829.617004,466
829.735413,474
829.85376,445
829.972107,470
830.090515,455
830.208862,456
830.327209,474
830.445557,461
830.563904,468
830.682312,446
830.800659,444
830.919006,469
831.037354,462
831.155701,461
831.274048,472
831.392395,457
831.51062,477
831.629028,465
831.747314,456
831.865662,445
831.984009,467
832.102356,450
832.220642,485
832.338928,465
832.457275,464
832.575623,473
832.693909,454
832.812134,456
832.930481,460
833.048828,452
833.167114,449
833.2854,454
833.403687,458
833.521973,466
833.640259,454
833.758545,463
833.876831,457
833.995056,446
834.113281,466
834.231628,467
834.349915,447
834.468201,461
834.586426,461
834.704651,458
834.822998,460
834.941162,474
835.059448,443
835.177673,463
835.295959,456
835.414246,460
835.53241,464
835.650635,460
835.768921,479
835.887146,469
836.005371,481
836.123596,478
836.241821,457
836.360046,468
836.478271,468
836.596497,469
836.714722,482
836.832886,458
836.95105,477
837.069336,473
837.1875,483
837.305725,476
837.423889,470
837.542053,472
837.660339,475
837.778503,481
837.896667,476
838.014832,479
838.132996,475
838.25116,493
838.369385,475
838.487488,473
838.605713,483
838.723877,475
838.84198,475
838.960205,478
839.078308,465
839.196472,475
839.314636,463
839.4328,485
839.550964,460
839.669067,480
839.787231,473
839.905396,467
840.023499,454
840.141602,477
840.259766,474
840.377869,483
840.495972,473
840.614136,456
840.732239,474
840.850342,452
840.968445,473
841.086548,464
841.204651,471
841.322754,467
841.440918,458
841.55896,473
841.677002,452
841.795166,458
841.913208,467
842.031311,469
842.149353,448
842.267456,464
842.385498,448
842.503601,469
842.621643,448
842.739746,462
842.857788,470
842.97583,419
843.093933,476
843.211975,460
843.330017,439
843.44812,461
843.566101,460
843.684204,448
843.802246,430
843.920227,435
844.038269,459
844.156311,437
844.274292,462
844.392395,433
844.510376,437
844.628357,448
844.74646,452
844.864441,464
844.982422,452
845.100403,463
845.218384,460
845.336426,442
845.454468,444
845.572449,450
845.69043,456
845.808411,440
845.926453,441
846.044373,447
846.162354,462
846.280396,450
846.398315,462
846.516296,469
846.634216,470
846.752197,452
846.870178,440
846.988098,446
847.106079,450
847.22406,448
847.34198,462
847.4599,470
847.577881,445
847.695801,440
847.813782,469
847.931641,474
848.049561,445
848.167603,464
848.285461,445
848.403381,450
848.521362,435
848.639221,447
848.75708,451
848.875,453
848.99292,443
849.110901,460
849.22876,448
849.34668,465
849.464539,459
849.582458,480
849.700317,450
849.818176,446
849.936096,465
850.053955,459
850.171875,439
850.289673,450
850.407593,452
850.525452,447
850.643311,445
850.761169,452
850.878967,459
850.996887,459
851.114746,458
851.232544,440
851.350403,440
851.468262,432
851.58606,455
851.703979,452
851.821777,461
851.939636,453
852.057434,441
852.175232,446
852.293091,452
852.410889,438
852.528687,448
852.646545,456
852.764343,456
852.88208,447
852.999939,447
853.117676,446
853.235535,448
853.353271,449
853.471069,459
853.588928,453
853.706604,451
853.824402,443
853.9422,441
854.059998,475
854.177734,454
854.295532,468
854.413269,463
854.531006,449
854.648804,455
854.766541,461
854.884277,460
855.002014,451
855.119751,432
855.237549,456
855.355225,437
855.473022,452
855.590698,454
855.708435,472
855.826172,437
855.943848,460
856.061646,443
856.179321,474
856.296997,443
856.414795,476
856.53241,471
856.650085,450
856.767822,465
856.885559,454
857.003174,456
857.120911,452
857.238586,474
857.356201,468
857.473938,445
857.591614,469
857.709351,452
857.826965,476
857.944641,453
858.062317,451
858.179993,464
858.297668,454
858.415283,441
858.532959,463
858.650574,483
858.768188,429
858.885803,458
859.003479,473
859.121094,485
859.23877,449
859.356384,454
859.473999,450
859.591675,452
859.709229,458
859.826843,458
859.944458,452
860.062012,465
860.179626,446
860.297302,469
860.414856,447
860.532471,470
860.650024,456
860.767639,452
860.885193,447
861.002808,462
861.120361,437
861.237976,454
861.35553,469
861.473022,443
861.590698,455
861.708191,450
861.825745,444
861.943298,453
862.060852,443
862.178406,423
862.295959,439
862.413513,426
862.531006,472
862.64856,464
862.766113,446
862.883667,447
863.00116,444
863.118713,453
863.236206,459
863.353699,451
863.471252,453
863.588745,447
863.706177,459
863.82373,458
863.941162,459
864.058716,464
864.176208,461
864.29364,464
864.411194,461
864.528687,454
864.646118,450
864.763611,475
864.881042,449
864.998535,454
865.116028,448
865.233459,468
865.350891,447
865.468384,452
865.585754,470
865.703308,463
865.820679,433
865.938171,467
866.055542,465
866.173035,457
866.290466,467
866.407837,465
866.52533,463
866.6427,458
866.760071,459
866.877563,455
866.994934,448
867.112305,457
867.229736,441
867.347107,474
867.464539,436
867.58197,486
867.699341,466
867.81665,452
867.934082,455
868.051453,473
868.168823,443
868.286194,471
868.403564,454
868.520935,459
868.638306,446
868.755676,463
868.872986,461
868.990295,432
869.107727,469
869.225037,470
869.342346,459
869.459717,469
869.577026,458
869.694336,441
869.811707,456
869.929016,443
870.046326,467
870.163635,441
870.280945,459
870.398254,461
870.515564,449
870.632812,457
870.750183,441
870.867432,471
870.984741,443
871.102051,451
871.219299,464
871.336609,473
871.453918,458
871.571106,444
871.688416,468
871.805664,456
871.922852,455
872.040222,464
872.157471,457
872.274719,442
872.391968,442
872.509155,462
872.626465,462
872.743652,459
872.860962,449
872.978149,451
873.095337,456
873.212646,462
873.329834,469
873.44696,460
873.564209,451
873.681396,456
873.798645,468
873.915894,470
874.03302,449
874.150208,462
874.267456,449
874.384583,454
874.501831,450
874.618958,447
874.736145,456
874.853333,462
874.970459,465
875.087646,466
875.204834,459
875.32196,471
875.439148,444
875.556274,463
875.673401,449
875.790527,448
875.907715,463
876.024841,464
876.141968,463
876.259094,445
876.376282,448
876.493347,445
876.610474,455
876.7276,447
876.844727,449
876.961853,457
877.078918,458
877.195984,447
877.313171,455
877.430237,453
877.547302,458
877.664368,450
877.781433,463
877.898499,477
878.015625,434
878.13269,472
878.249695,444
878.366821,462
878.483887,455
878.600952,447
878.717957,459
878.834961,460
878.952087,465
879.069092,457
879.186157,456
879.303162,476
879.420227,434
879.537231,461
879.654236,423
879.77124,449
879.888306,444
880.005249,460
880.122314,454
880.239319,462
880.356323,439
880.473328,456
880.590271,431
880.707275,450
880.824341,439
880.941284,459
881.058228,448
881.175232,463
881.292236,469
881.40918,449
881.526123,444
881.643066,478
881.760071,463
881.877014,446
881.993958,471
882.11084,466
882.227783,446
882.344727,457
882.46167,470
882.578613,467
882.695618,452
882.812439,455
882.929382,436
883.046326,458
883.163208,447
883.280151,455
883.397034,472
883.513916,447
883.630798,444
883.747742,459
883.864563,434
883.981506,462
884.098389,440
884.21521,469
884.332153,447
884.448975,472
884.565796,470
884.682678,438
884.7995,462
884.916443,454
885.033264,477
885.150085,466
885.266968,472
885.383789,465
885.500671,455
885.617493,459
885.734314,465
885.851196,449
885.967896,472
886.084717,447
886.201599,451
886.318359,454
886.435181,470
886.552002,473
886.668762,466
886.785645,451
886.902344,472
887.019165,453
887.135925,452
887.252747,472
887.369446,480
887.486267,458
887.603027,455
887.719788,435
887.836548,461
887.953247,469
888.070068,452
888.186829,481
888.303528,475
888.420288,456
888.536987,455
888.653687,453
888.770447,446
888.887146,449
889.003967,463
889.120667,450
889.237305,460
889.354065,456
889.470703,446
889.587463,464
889.704163,461
889.820862,467
889.937561,472
890.054199,482
890.170837,471
890.287598,462
890.404236,455
890.520874,473
890.637634,464
890.754211,474
890.87085,461
890.987549,479
891.104187,443
891.220886,461
891.337463,452
891.454102,464
891.57074,482
891.687378,468
891.804077,441
891.920654,452
892.037231,455
892.15387,435
892.270447,471
892.387085,471
892.503723,458
892.6203,436
892.736877,454
892.853516,460
892.970032,465
893.08667,439
893.203186,474
893.319763,464
893.43634,452
893.552917,475
893.669556,457
893.786011,458
893.902588,465
894.019165,455
894.135681,464
894.252197,471
894.368835,468
894.485291,444
894.601868,455
894.718384,456
894.8349,449
894.951355,451
895.067932,462
895.184448,457
895.300964,472
895.417419,464
895.533936,464
895.650452,475
895.766907,456
895.883423,450
895.999878,440
896.116333,458
896.232849,453
896.349304,439
896.465759,468
896.582214,462
896.698669,451
896.815125,453
896.931641,465
897.048035,469
897.164551,449
897.280884,463
897.397339,465
897.513794,472
897.630249,471
897.746582,461
897.863098,445
897.979431,457
898.095886,451
898.212341,471
898.328674,463
898.445129,462
898.561462,472
898.677795,467
898.794312,469
898.910645,449
899.026978,457
899.143433,462
899.259766,468
899.37616,438
899.492493,457
899.608765,474
899.725159,457
899.841553,457
899.957947,451
900.07428,460
900.190552,445
900.306946,467
900.423157,479
900.53949,456
900.655884,464
900.772156,471
900.888489,464
901.004822,455
901.121033,464
901.237366,450
901.353699,452
901.46991,466
901.586304,470
901.702515,466
901.818787,465
901.93512,482
902.051331,468
902.167603,458
902.283875,478
902.400085,470
902.516418,469
902.632629,473
902.74884,475
902.865112,473
902.981384,472
903.097595,477
903.213867,464
903.330017,475
903.446289,470
903.5625,489
903.67865,470
903.794922,470
903.911072,470
904.027344,490
904.143494,459
904.259705,455
904.375916,464
904.492065,471
904.608215,462
904.724426,486
904.840576,467
904.956726,492
905.072876,454
905.189087,476
905.305176,473
905.421387,488
905.537537,465
905.653687,458
905.769775,478
905.885925,468
906.002014,445
906.118164,485
906.234314,484
906.350403,486
906.466492,462
906.582642,467
906.69873,454
906.814758,475
906.930908,454
907.046936,471
907.163086,449
907.279175,491
907.395264,468
907.511353,466
907.62738,489
907.743408,469
907.859497,479
907.975525,452
908.091553,495
908.207703,482
908.32373,468
908.439758,470
908.555786,462
908.671814,473
908.787842,483
908.90387,478
909.019775,462
909.135864,472
909.251892,468
909.367859,468
909.483826,467
909.599854,472
909.715881,481
909.831848,469
909.947815,481
910.063782,477
910.179749,449
910.295776,482
910.411743,472
910.527649,467
910.643616,453
910.759583,492
910.875488,464
910.991455,459
911.107361,476
911.223267,458
911.339294,472
911.4552,484
911.571106,473
911.687073,474
911.802979,469
911.918823,471
912.034729,459
912.150635,477
912.266602,449
912.382446,453
912.498352,468
912.614197,464
912.730103,484
912.846008,451
