792.44574,633
792.56488,633
792.68396,697
792.80304,669
792.92218,635
793.041199,607
793.160339,618
793.279419,626
793.398499,612
793.517578,589
793.636658,602
793.755737,618
793.874817,620
793.993896,640
794.112976,596
794.232056,591
794.351074,609
794.470215,596
794.589233,596
794.708313,622
794.827393,598
794.946411,598
795.065552,601
795.18457,587
795.303589,606
795.422668,579
795.541687,596
795.660767,611
795.779846,600
795.898865,574
796.017883,619
796.136963,601
796.255981,592
796.375061,586
796.49408,589
796.613037,567
796.732117,588
796.851135,578
796.970154,577
797.089233,567
797.208191,561
797.327271,567
797.446228,585
797.565186,566
797.684265,586
797.803223,600
797.922241,577
798.04126,561
798.160278,586
798.279297,575
798.398315,592
798.517273,563
798.636292,597
798.75531,575
798.874268,565
798.993286,585
799.112244,587
799.231323,577
799.350281,566
799.469238,579
799.588257,600
799.707153,558
799.826111,572
799.945129,568
800.064087,585
800.183044,583
800.302063,546
800.421021,594
800.539978,555
800.658936,577
800.777893,574
800.896912,576
801.015747,577
801.134705,575
801.253723,583
801.37262,592
801.491638,566
801.610535,554
801.729492,572
801.84845,585
801.967407,581
802.086243,590
802.205261,588
802.324158,589
802.443115,581
802.562073,573
802.680969,597
802.799927,604
802.918762,590
803.037659,604
803.156677,595
803.275574,585
803.39447,587
803.513428,586
803.632263,611
803.751221,588
803.870117,577
803.989014,590
804.107971,598
804.226746,596
804.345642,610
804.4646,602
804.583496,588
804.702393,614
804.821228,599
804.940125,614
805.059021,596
805.177917,594
805.296814,581
805.415649,599
805.534546,623
805.653442,604
805.772278,588
805.891113,616
806.01001,621
806.128906,597
806.247742,608
806.366577,598
806.485413,633
806.604309,625
806.723145,613
806.84198,609
806.960876,636
807.079712,611
807.198486,633
807.317383,599
807.436218,614
807.554993,607
807.673889,624
807.792725,618
807.91156,623
808.030396,613
808.14917,611
808.268005,621
808.386841,612
808.505676,631
808.624451,626
808.743286,607
808.862122,625
808.980896,616
809.099731,632
809.218506,611
809.337341,643
809.456116,612
809.57489,634
809.693726,638
809.8125,613
809.931274,626
810.050049,625
810.168884,629
810.287659,620
810.406372,627
810.525269,648
810.643982,606
810.762756,618
810.881531,609
811.000305,630
811.11908,616
811.237854,619
811.356567,632
811.475403,637
811.594116,654
811.71283,626
811.831604,624
811.950378,618
812.069153,627
812.187927,637
812.30658,638
812.425415,606
812.544128,624
812.662781,652
812.781616,640
812.900269,664
813.019043,639
813.137756,633
813.256531,630
813.375244,619
813.493896,632
813.612671,626
813.731384,619
813.850037,624
813.96875,623
814.087524,638
814.206238,595
814.324951,629
814.443604,637
814.562256,651
814.68103,610
814.799683,602
814.918335,635
815.037109,599
815.155762,615
815.274475,616
815.393188,622
815.511841,651
815.630554,611
815.749146,610
815.867859,628
815.986572,594
816.105164,613
816.223877,596
816.342529,620
816.461182,583
816.579895,598
816.698486,591
816.817139,591
816.935791,603
817.054504,609
817.173096,613
817.291748,608
817.4104,621
817.529053,605
817.647644,611
817.766235,587
817.884949,587
818.00354,562
818.122192,552
818.240845,565
818.359436,566
818.478088,558
818.59668,535
818.715271,548
818.833923,516
818.952515,531
819.071106,517
819.189758,495
819.30835,538
819.426941,515
819.545532,511
819.664124,503
819.782715,497
819.901306,491
820.019897,516
820.138489,501
820.25708,509
820.375671,504
820.494202,487
820.612732,495
820.731384,505
820.849915,467
820.968506,482
821.087097,513
821.205627,478
821.324158,486
821.442749,494
821.561279,486
821.679871,479
821.798401,482
821.916931,494
822.035461,478
822.154053,483
822.272583,497
822.391174,491
822.509583,479
822.628174,468
822.746704,488
822.865234,476
822.983765,486
823.102295,476
823.220825,468
823.339294,493
823.457825,475
823.576355,471
823.694824,482
823.813354,494
823.931885,487
824.050354,484
824.168884,464
824.287354,491
824.405823,484
824.524353,508
824.642822,485
824.761353,488
824.879822,502
824.998291,482
825.116699,473
825.235291,461
825.353699,496
825.472168,490
825.590637,500
825.709106,476
825.827576,461
825.946045,477
826.064453,450
826.182983,480
826.301392,469
826.4198,492
826.53833,484
826.656738,470
826.775208,476
826.893677,463
827.012024,470
827.130493,465
827.248962,474
827.36731,464
827.485779,447
827.604248,459
827.722595,467
827.841064,470
827.959412,468
828.077942,456
828.196289,446
828.314636,466
828.433105,464
828.551514,466
828.669861,476
828.78833,465
828.906677,462
829.025085,471
829.143433,461
829.261841,443
829.38031,462
829.498657,454
829.617004,464
829.735413,449
829.85376,451
829.972107,458
830.090515,458
830.208862,455
830.327209,446
830.445557,461
830.563904,462
830.682312,458
830.800659,447
830.919006,456
831.037354,455
831.155701,478
831.274048,442
831.392395,462
831.51062,443
831.629028,463
831.747314,445
831.865662,465
831.984009,454
832.102356,451
832.220642,457
832.338928,470
832.457275,456
832.575623,448
832.693909,462
832.812134,467
832.930481,426
833.048828,476
833.167114,447
833.2854,473
833.403687,468
833.521973,462
833.640259,452
833.758545,458
833.876831,466
833.995056,476
834.113281,469
834.231628,417
834.349915,457
834.468201,478
834.586426,454
834.704651,447
834.822998,455
834.941162,462
835.059448,474
835.177673,460
835.295959,466
835.414246,467
835.53241,435
835.650635,462
835.768921,455
835.887146,460
836.005371,484
836.123596,479
836.241821,457
836.360046,467
836.478271,451
836.596497,497
836.714722,449
836.832886,501
836.95105,467
837.069336,472
837.1875,464
837.305725,476
837.423889,481
837.542053,487
837.660339,469
837.778503,484
837.896667,473
838.014832,499
838.132996,470
838.25116,459
838.369385,495
838.487488,471
838.605713,458
838.723877,478
838.84198,455
838.960205,460
839.078308,466
839.196472,474
839.314636,465
839.4328,471
839.550964,462
839.669067,477
839.787231,475
839.905396,463
840.023499,455
840.141602,480
840.259766,461
840.377869,467
840.495972,468
840.614136,488
840.732239,478
840.850342,446
840.968445,468
841.086548,459
841.204651,452
841.322754,460
841.440918,445
841.55896,464
841.677002,447
841.795166,458
841.913208,455
842.031311,475
842.149353,454
842.267456,466
842.385498,461
842.503601,456
842.621643,453
842.739746,445
842.857788,471
842.97583,424
843.093933,457
843.211975,456
843.330017,457
843.44812,455
843.566101,430
843.684204,449
843.802246,426
843.920227,467
844.038269,459
844.156311,437
844.274292,447
844.392395,445
844.510376,450
844.628357,451
844.74646,433
844.864441,446
844.982422,433
845.100403,479
845.218384,448
845.336426,463
845.454468,456
845.572449,446
845.69043,461
845.808411,472
845.926453,435
846.044373,448
846.162354,446
846.280396,472
846.398315,465
846.516296,456
846.634216,452
846.752197,459
846.870178,434
846.988098,456
847.106079,432
847.22406,454
847.34198,452
847.4599,459
847.577881,446
847.695801,440
847.813782,454
847.931641,447
848.049561,439
848.167603,451
848.285461,447
848.403381,437
848.521362,446
848.639221,471
848.75708,457
848.875,456
848.99292,437
849.110901,449
849.22876,445
849.34668,455
849.464539,448
849.582458,455
849.700317,443
849.818176,437
849.936096,447
850.053955,437
850.171875,443
850.289673,448
850.407593,439
850.525452,455
850.643311,452
850.761169,450
850.878967,440
850.996887,449
851.114746,442
851.232544,457
851.350403,441
851.468262,450
851.58606,454
851.703979,447
851.821777,447
851.939636,451
852.057434,461
852.175232,454
852.293091,439
852.410889,464
852.528687,446
852.646545,450
852.764343,446
852.88208,431
852.999939,448
853.117676,466
853.235535,440
853.353271,462
853.471069,446
853.588928,448
853.706604,453
853.824402,451
853.9422,455
854.059998,439
854.177734,465
854.295532,464
854.413269,422
854.531006,475
854.648804,446
854.766541,474
854.884277,447
855.002014,462
855.119751,474
855.237549,456
855.355225,444
855.473022,458
855.590698,442
855.708435,459
855.826172,444
855.943848,471
856.061646,444
856.179321,436
856.296997,450
856.414795,453
856.53241,453
856.650085,460
856.767822,433
856.885559,442
857.003174,451
857.120911,453
857.238586,456
857.356201,458
857.473938,458
857.591614,474
857.709351,460
857.826965,468
857.944641,437
858.062317,464
858.179993,442
858.297668,462
858.415283,442
858.532959,448
858.650574,452
858.768188,462
858.885803,441
859.003479,451
859.121094,449
859.23877,453
859.356384,455
859.473999,448
859.591675,464
859.709229,442
859.826843,464
859.944458,477
860.062012,451
860.179626,455
860.297302,441
860.414856,469
860.532471,467
860.650024,456
860.767639,445
860.885193,438
861.002808,453
861.120361,441
861.237976,465
861.35553,465
861.473022,448
861.590698,456
861.708191,446
861.825745,465
861.943298,455
862.060852,437
862.178406,456
862.295959,458
862.413513,454
862.531006,431
862.64856,459
862.766113,447
862.883667,448
863.00116,466
863.118713,439
863.236206,447
863.353699,452
863.471252,443
863.588745,466
863.706177,452
863.82373,469
863.941162,446
864.058716,450
864.176208,472
864.29364,457
864.411194,468
864.528687,449
864.646118,458
864.763611,450
864.881042,457
864.998535,462
865.116028,443
865.233459,451
865.350891,442
865.468384,456
865.585754,456
865.703308,442
865.820679,453
865.938171,442
866.055542,467
866.173035,454
866.290466,456
866.407837,442
866.52533,445
866.6427,452
866.760071,466
866.877563,456
866.994934,445
867.112305,436
867.229736,471
867.347107,452
867.464539,463
867.58197,460
867.699341,449
867.81665,447
867.934082,444
868.051453,448
868.168823,458
868.286194,414
868.403564,448
868.520935,447
868.638306,447
868.755676,423
868.872986,446
868.990295,449
869.107727,458
869.225037,463
869.342346,454
869.459717,450
869.577026,445
869.694336,454
869.811707,468
869.929016,452
870.046326,441
870.163635,458
870.280945,458
870.398254,460
870.515564,479
870.632812,440
870.750183,449
870.867432,468
870.984741,445
871.102051,442
871.219299,460
871.336609,466
871.453918,456
871.571106,459
871.688416,465
871.805664,443
871.922852,459
872.040222,455
872.157471,456
872.274719,451
872.391968,459
872.509155,458
872.626465,461
872.743652,431
872.860962,464
872.978149,447
873.095337,457
873.212646,434
873.329834,461
873.44696,436
873.564209,462
873.681396,450
873.798645,452
873.915894,455
874.03302,448
874.150208,458
874.267456,453
874.384583,446
874.501831,450
874.618958,465
874.736145,453
874.853333,460
874.970459,443
875.087646,445
875.204834,446
875.32196,463
875.439148,445
875.556274,438
875.673401,454
875.790527,435
875.907715,448
876.024841,439
876.141968,452
876.259094,468
876.376282,456
876.493347,442
876.610474,438
876.7276,459
876.844727,471
876.961853,443
877.078918,461
877.195984,436
877.313171,442
877.430237,440
877.547302,453
877.664368,447
877.781433,466
877.898499,459
878.015625,456
878.13269,443
878.249695,457
878.366821,443
878.483887,458
878.600952,449
878.717957,460
878.834961,443
878.952087,457
879.069092,454
879.186157,451
879.303162,458
879.420227,456
879.537231,447
879.654236,437
879.77124,438
879.888306,456
880.005249,440
880.122314,450
880.239319,446
880.356323,440
880.473328,431
880.590271,450
880.707275,442
880.824341,452
880.941284,456
881.058228,458
881.175232,449
881.292236,455
881.40918,439
881.526123,462
881.643066,470
881.760071,442
881.877014,436
881.993958,442
882.11084,443
882.227783,453
882.344727,453
882.46167,444
882.578613,454
882.695618,453
882.812439,452
882.929382,477
883.046326,458
883.163208,448
883.280151,427
883.397034,453
883.513916,475
883.630798,452
883.747742,450
883.864563,449
883.981506,461
884.098389,446
884.21521,457
884.332153,460
884.448975,439
884.565796,463
884.682678,462
884.7995,441
884.916443,474
885.033264,472
885.150085,470
885.266968,454
885.383789,446
885.500671,453
885.617493,455
885.734314,471
885.851196,456
885.967896,464
886.084717,450
886.201599,469
886.318359,475
886.435181,451
886.552002,457
886.668762,446
886.785645,453
886.902344,470
887.019165,465
887.135925,439
887.252747,440
887.369446,459
887.486267,461
887.603027,473
887.719788,461
887.836548,471
887.953247,469
888.070068,473
888.186829,452
888.303528,445
888.420288,445
888.536987,458
888.653687,441
888.770447,435
888.887146,466
889.003967,451
889.120667,444
889.237305,461
889.354065,444
889.470703,454
889.587463,458
889.704163,467
889.820862,456
889.937561,457
890.054199,462
890.170837,443
890.287598,474
890.404236,463
890.520874,452
890.637634,465
890.754211,452
890.87085,475
890.987549,451
891.104187,446
891.220886,460
891.337463,472
891.454102,455
891.57074,464
891.687378,460
891.804077,469
891.920654,465
892.037231,461
892.15387,468
892.270447,480
892.387085,460
892.503723,452
892.6203,457
892.736877,468
892.853516,440
892.970032,463
893.08667,440
893.203186,461
893.319763,466
893.43634,468
893.552917,453
893.669556,474
893.786011,464
893.902588,458
894.019165,463
894.135681,472
894.252197,472
894.368835,474
894.485291,461
894.601868,448
894.718384,454
894.8349,459
894.951355,458
895.067932,469
895.184448,438
895.300964,460
895.417419,431
895.533936,459
895.650452,460
895.766907,452
895.883423,486
895.999878,466
896.116333,443
896.232849,454
896.349304,473
896.465759,479
896.582214,454
896.698669,474
896.815125,463
896.931641,466
897.048035,472
897.164551,464
897.280884,444
897.397339,479
897.513794,458
897.630249,472
897.746582,469
897.863098,466
897.979431,448
898.095886,471
898.212341,463
898.328674,468
898.445129,442
898.561462,472
898.677795,450
898.794312,463
898.910645,459
899.026978,463
899.143433,474
899.259766,459
899.37616,476
899.492493,460
899.608765,466
899.725159,473
899.841553,452
899.957947,456
900.07428,452
900.190552,455
900.306946,461
900.423157,468
900.53949,461
900.655884,461
900.772156,449
900.888489,463
901.004822,466
901.121033,472
901.237366,451
901.353699,465
901.46991,473
901.586304,460
901.702515,456
901.818787,461
901.93512,466
902.051331,468
902.167603,464
902.283875,484
902.400085,474
902.516418,472
902.632629,458
902.74884,481
902.865112,450
902.981384,473
903.097595,452
903.213867,461
903.330017,476
903.446289,454
903.5625,477
903.67865,489
903.794922,455
903.911072,478
904.027344,455
904.143494,478
904.259705,463
904.375916,461
904.492065,434
904.608215,470
904.724426,446
904.840576,485
904.956726,435
905.072876,469
905.189087,474
905.305176,463
905.421387,466
905.537537,469
905.653687,455
905.769775,484
905.885925,453
906.002014,467
906.118164,462
906.234314,476
906.350403,472
906.466492,480
906.582642,448
906.69873,469
906.814758,462
906.930908,471
907.046936,462
907.163086,465
907.279175,469
907.395264,467
907.511353,467
907.62738,458
907.743408,451
907.859497,489
907.975525,462
908.091553,463
908.207703,471
908.32373,463
908.439758,463
908.555786,477
908.671814,463
908.787842,478
908.90387,465
909.019775,467
909.135864,449
909.251892,490
909.367859,464
909.483826,468
909.599854,476
909.715881,474
909.831848,468
909.947815,473
910.063782,456
910.179749,482
910.295776,474
910.411743,461
910.527649,474
910.643616,450
910.759583,470
910.875488,475
910.991455,493
911.107361,466
911.223267,451
911.339294,457
911.4552,454
911.571106,469
911.687073,479
911.802979,465
911.918823,450
912.034729,475
912.150635,473
912.266602,465
912.382446,461
912.498352,462
912.614197,473
912.730103,455
912.846008,455
792.44574,623
792.56488,652
792.68396,680
792.80304,672
792.92218,631
793.041199,600
793.160339,615
793.279419,648
793.398499,614
793.517578,614
793.636658,619
793.755737,616
793.874817,645
793.993896,628
794.112976,614
794.232056,603
794.351074,586
794.470215,616
794.589233,631
794.708313,601
794.827393,605
794.946411,581
795.065552,597
795.18457,588
795.303589,606
795.422668,600
795.541687,570
795.660767,602
795.779846,574
795.898865,575
796.017883,589
796.136963,592
796.255981,581
796.375061,607
796.49408,593
796.613037,587
796.732117,586
796.851135,582
796.970154,591
797.089233,599
797.208191,574
797.327271,580
797.446228,576
797.565186,578
797.684265,602
797.803223,593
797.922241,575
798.04126,592
798.160278,596
798.279297,584
798.398315,564
798.517273,590
798.636292,584
798.75531,587
798.874268,570
798.993286,580
799.112244,558
799.231323,567
799.350281,589
799.469238,602
799.588257,603
799.707153,594
799.826111,591
799.945129,613
800.064087,571
800.183044,598
800.302063,562
800.421021,586
800.539978,595
800.658936,601
800.777893,598
800.896912,584
801.015747,574
801.134705,591
801.253723,573
801.37262,565
801.491638,576
801.610535,587
801.729492,583
801.84845,580
801.967407,592
802.086243,586
802.205261,587
802.324158,609
802.443115,584
802.562073,602
802.680969,597
802.799927,592
802.918762,569
803.037659,583
803.156677,604
803.275574,585
803.39447,579
803.513428,597
803.632263,572
803.751221,582
803.870117,595
803.989014,597
804.107971,613
804.226746,594
804.345642,595
804.4646,572
804.583496,578
804.702393,613
804.821228,597
804.940125,600
805.059021,617
805.177917,631
805.296814,616
805.415649,634
805.534546,619
805.653442,605
805.772278,616
805.891113,608
806.01001,635
806.128906,617
806.247742,635
806.366577,599
806.485413,616
806.604309,626
806.723145,622
806.84198,634
806.960876,617
807.079712,610
807.198486,588
807.317383,602
807.436218,607
807.554993,633
807.673889,621
807.792725,622
807.91156,624
808.030396,620
808.14917,626
808.268005,646
808.386841,624
808.505676,634
808.624451,625
808.743286,612
808.862122,604
808.980896,614
809.099731,651
809.218506,606
809.337341,619
809.456116,606
809.57489,620
809.693726,607
809.8125,615
809.931274,640
810.050049,630
810.168884,629
810.287659,621
810.406372,632
810.525269,639
810.643982,619
810.762756,639
810.881531,627
811.000305,638
811.11908,632
811.237854,638
811.356567,636
811.475403,646
811.594116,615
811.71283,621
811.831604,641
811.950378,634
812.069153,649
812.187927,631
812.30658,643
812.425415,631
812.544128,635
812.662781,621
812.781616,632
812.900269,648
813.019043,621
813.137756,624
813.256531,660
813.375244,629
813.493896,653
813.612671,638
813.731384,637
813.850037,622
813.96875,620
814.087524,627
814.206238,648
814.324951,617
814.443604,636
814.562256,643
814.68103,617
814.799683,630
814.918335,604
815.037109,630
815.155762,628
815.274475,639
815.393188,628
815.511841,637
815.630554,604
815.749146,597
815.867859,619
815.986572,609
816.105164,607
816.223877,611
816.342529,623
816.461182,608
816.579895,628
816.698486,609
816.817139,614
816.935791,631
817.054504,598
817.173096,624
817.291748,613
817.4104,623
817.529053,605
817.647644,605
817.766235,583
817.884949,595
818.00354,565
818.122192,551
818.240845,520
818.359436,531
818.478088,566
818.59668,535
818.715271,535
818.833923,538
818.952515,561
819.071106,534
819.189758,510
819.30835,487
819.426941,512
819.545532,518
819.664124,526
819.782715,511
819.901306,514
820.019897,493
820.138489,519
820.25708,526
820.375671,499
820.494202,505
820.612732,511
820.731384,488
820.849915,485
820.968506,518
821.087097,490
821.205627,506
821.324158,494
821.442749,491
821.561279,494
821.679871,478
821.798401,499
821.916931,490
822.035461,481
822.154053,492
822.272583,478
822.391174,487
822.509583,480
822.628174,474
822.746704,476
822.865234,491
822.983765,498
823.102295,498
823.220825,478
823.339294,477
823.457825,491
823.576355,498
823.694824,479
823.813354,470
823.931885,506
824.050354,479
824.168884,496
824.287354,510
824.405823,483
824.524353,486
824.642822,494
824.761353,484
824.879822,506
824.998291,490
825.116699,493
825.235291,477
825.353699,508
825.472168,480
825.590637,485
825.709106,501
825.827576,476
825.946045,470
826.064453,491
826.182983,462
826.301392,479
826.4198,469
826.53833,466
826.656738,466
826.775208,475
826.893677,488
827.012024,472
827.130493,477
827.248962,476
827.36731,452
827.485779,476
827.604248,476
827.722595,476
827.841064,482
827.959412,473
828.077942,459
828.196289,469
828.314636,459
828.433105,460
828.551514,476
828.669861,468
828.78833,473
828.906677,452
829.025085,493
829.143433,458
829.261841,452
829.38031,479
829.498657,471
829.617004,476
829.735413,461
829.85376,469
829.972107,464
830.090515,453
830.208862,485
830.327209,462
830.445557,470
830.563904,450
830.682312,466
830.800659,455
830.919006,472
831.037354,449
831.155701,465
831.274048,466
831.392395,468
831.51062,458
831.629028,458
831.747314,464
831.865662,463
831.984009,477
832.102356,461
832.220642,491
832.338928,457
832.457275,464
832.575623,451
832.693909,465
832.812134,449
832.930481,463
833.048828,475
833.167114,480
833.2854,435
833.403687,474
833.521973,451
833.640259,469
833.758545,458
833.876831,459
833.995056,483
834.113281,460
834.231628,450
834.349915,469
834.468201,458
834.586426,472
834.704651,444
834.822998,468
834.941162,448
835.059448,461
835.177673,464
835.295959,474
835.414246,462
835.53241,483
835.650635,447
835.768921,462
835.887146,460
836.005371,458
836.123596,473
836.241821,473
836.360046,466
836.478271,470
836.596497,473
836.714722,492
836.832886,470
836.95105,466
837.069336,488
837.1875,472
837.305725,471
837.423889,494
837.542053,478
837.660339,501
837.778503,464
837.896667,491
838.014832,472
838.132996,483
838.25116,454
838.369385,472
838.487488,484
838.605713,462
838.723877,476
838.84198,484
838.960205,474
839.078308,466
839.196472,480
839.314636,476
839.4328,472
839.550964,480
839.669067,478
839.787231,472
839.905396,482
840.023499,466
840.141602,469
840.259766,480
840.377869,447
840.495972,485
840.614136,465
840.732239,459
840.850342,454
840.968445,456
841.086548,469
841.204651,465
841.322754,465
841.440918,472
841.55896,471
841.677002,456
841.795166,457
841.913208,447
842.031311,453
842.149353,477
842.267456,467
842.385498,467
842.503601,466
842.621643,439
842.739746,473
842.857788,460
842.97583,471
843.093933,457
843.211975,459
843.330017,462
843.44812,459
843.566101,476
843.684204,439
843.802246,452
843.920227,454
844.038269,464
844.156311,438
844.274292,458
844.392395,456
844.510376,443
844.628357,446
844.74646,449
844.864441,461
844.982422,457
845.100403,457
845.218384,471
845.336426,446
845.454468,454
845.572449,443
845.69043,466
845.808411,460
845.926453,453
846.044373,447
846.162354,457
846.280396,455
846.398315,438
846.516296,433
846.634216,469
846.752197,454
846.870178,464
846.988098,453
847.106079,454
847.22406,434
847.34198,476
847.4599,453
847.577881,443
847.695801,453
847.813782,456
847.931641,436
848.049561,460
848.167603,451
848.285461,464
848.403381,445
848.521362,458
848.639221,449
848.75708,457
848.875,452
848.99292,438
849.110901,453
849.22876,445
849.34668,466
849.464539,443
849.582458,446
849.700317,453
849.818176,429
849.936096,453
850.053955,453
850.171875,457
850.289673,443
850.407593,439
850.525452,471
850.643311,443
850.761169,444
850.878967,443
850.996887,451
851.114746,458
851.232544,443
851.350403,467
851.468262,452
851.58606,445
851.703979,464
851.821777,458
851.939636,458
852.057434,464
852.175232,452
852.293091,450
852.410889,449
852.528687,455
852.646545,457
852.764343,453
852.88208,438
852.999939,455
853.117676,451
853.235535,446
853.353271,451
853.471069,465
853.588928,443
853.706604,445
853.824402,463
853.9422,442
854.059998,434
854.177734,456
854.295532,452
854.413269,458
854.531006,441
854.648804,481
854.766541,443
854.884277,448
855.002014,438
855.119751,449
855.237549,462
855.355225,460
855.473022,466
855.590698,450
855.708435,468
855.826172,453
855.943848,458
856.061646,486
856.179321,464
856.296997,464
856.414795,469
856.53241,462
856.650085,478
856.767822,462
856.885559,473
857.003174,444
857.120911,470
857.238586,456
857.356201,459
857.473938,451
857.591614,467
857.709351,466
857.826965,451
857.944641,465
858.062317,454
858.179993,458
858.297668,461
858.415283,450
858.532959,461
858.650574,446
858.768188,465
858.885803,469
859.003479,461
859.121094,470
859.23877,461
859.356384,484
859.473999,462
859.591675,464
859.709229,467
859.826843,461
859.944458,457
860.062012,435
860.179626,447
860.297302,462
860.414856,442
860.532471,455
860.650024,469
860.767639,470
860.885193,456
861.002808,458
861.120361,448
861.237976,451
861.35553,444
861.473022,457
861.590698,459
861.708191,461
861.825745,447
861.943298,454
862.060852,440
862.178406,458
862.295959,440
862.413513,450
862.531006,443
862.64856,468
862.766113,451
862.883667,453
863.00116,458
863.118713,465
863.236206,449
863.353699,457
863.471252,471
863.588745,470
863.706177,466
863.82373,428
863.941162,454
864.058716,469
864.176208,443
864.29364,466
864.411194,461
864.528687,464
864.646118,460
864.763611,454
864.881042,431
864.998535,461
865.116028,488
865.233459,472
865.350891,438
865.468384,458
865.585754,456
865.703308,446
865.820679,464
865.938171,463
866.055542,452
866.173035,449
866.290466,471
866.407837,438
866.52533,467
866.6427,466
866.760071,448
866.877563,451
866.994934,464
867.112305,470
867.229736,449
867.347107,456
867.464539,485
867.58197,454
867.699341,460
867.81665,451
867.934082,456
868.051453,463
868.168823,452
868.286194,439
868.403564,445
868.520935,446
868.638306,458
868.755676,444
868.872986,443
868.990295,472
869.107727,454
869.225037,457
869.342346,454
869.459717,445
869.577026,476
869.694336,443
869.811707,454
869.929016,466
870.046326,453
870.163635,452
870.280945,445
870.398254,459
870.515564,458
870.632812,457
870.750183,469
870.867432,446
870.984741,466
871.102051,450
871.219299,464
871.336609,459
871.453918,458
871.571106,459
871.688416,460
871.805664,446
871.922852,457
872.040222,452
872.157471,448
872.274719,479
872.391968,452
872.509155,446
872.626465,467
872.743652,447
872.860962,428
872.978149,460
873.095337,451
873.212646,455
873.329834,446
873.44696,440
873.564209,474
873.681396,458
873.798645,436
873.915894,462
874.03302,452
874.150208,466
874.267456,447
874.384583,465
874.501831,470
874.618958,471
874.736145,472
874.853333,457
874.970459,448
875.087646,445
875.204834,457
875.32196,449
875.439148,478
875.556274,453
875.673401,464
875.790527,467
875.907715,444
876.024841,441
876.141968,446
876.259094,460
876.376282,449
876.493347,463
876.610474,469
876.7276,457
876.844727,467
876.961853,454
877.078918,452
877.195984,458
877.313171,450
877.430237,460
877.547302,468
877.664368,452
877.781433,455
877.898499,457
878.015625,467
878.13269,444
878.249695,471
878.366821,444
878.483887,459
878.600952,447
878.717957,462
878.834961,473
878.952087,459
879.069092,457
879.186157,428
879.303162,455
879.420227,467
879.537231,461
879.654236,469
879.77124,463
879.888306,444
880.005249,458
880.122314,462
880.239319,461
880.356323,444
880.473328,455
880.590271,452
880.707275,468
880.824341,430
880.941284,464
881.058228,453
881.175232,466
881.292236,453
881.40918,480
881.526123,440
881.643066,482
881.760071,456
881.877014,465
881.993958,450
882.11084,467
882.227783,431
882.344727,442
882.46167,457
882.578613,481
882.695618,472
882.812439,454
882.929382,442
883.046326,471
883.163208,444
883.280151,466
883.397034,463
883.513916,473
883.630798,455
883.747742,469
883.864563,443
883.981506,461
884.098389,455
884.21521,458
884.332153,454
884.448975,478
884.565796,458
884.682678,465
884.7995,458
884.916443,469
885.033264,444
885.150085,469
885.266968,452
885.383789,480
885.500671,473
885.617493,451
885.734314,453
885.851196,472
885.967896,461
886.084717,455
886.201599,476
886.318359,462
886.435181,449
886.552002,439
886.668762,470
886.785645,470
886.902344,463
887.019165,468
887.135925,472
887.252747,458
887.369446,451
887.486267,467
887.603027,500
887.719788,471
887.836548,454
887.953247,462
888.070068,450
888.186829,474
888.303528,464
888.420288,459
888.536987,464
888.653687,464
888.770447,458
888.887146,455
889.003967,466
889.120667,451
889.237305,445
889.354065,452
889.470703,458
889.587463,469
889.704163,450
889.820862,472
889.937561,453
890.054199,476
890.170837,449
890.287598,468
890.404236,465
890.520874,460
890.637634,471
890.754211,461
890.87085,439
890.987549,453
891.104187,456
891.220886,485
891.337463,456
891.454102,472
891.57074,472
891.687378,473
891.804077,463
891.920654,479
892.037231,460
892.15387,468
892.270447,445
892.387085,472
892.503723,467
892.6203,447
892.736877,464
892.853516,470
892.970032,452
893.08667,461
893.203186,449
893.319763,466
893.43634,463
893.552917,472
893.669556,451
893.786011,469
893.902588,458
894.019165,452
894.135681,481
894.252197,431
894.368835,477
894.485291,455
894.601868,466
894.718384,459
894.8349,452
894.951355,463
895.067932,455
895.184448,459
895.300964,485
895.417419,478
895.533936,473
895.650452,472
895.766907,455
895.883423,468
895.999878,452
896.116333,467
896.232849,466
896.349304,488
896.465759,461
896.582214,463
896.698669,469
896.815125,463
896.931641,448
897.048035,473
897.164551,455
897.280884,487
897.397339,470
897.513794,477
897.630249,478
897.746582,457
897.863098,459
897.979431,443
898.095886,469
898.212341,484
898.328674,490
898.445129,470
898.561462,439
898.677795,466
898.794312,479
898.910645,453
899.026978,471
899.143433,473
899.259766,459
899.37616,469
899.492493,469
899.608765,480
899.725159,461
899.841553,462
899.957947,482
900.07428,474
900.190552,466
900.306946,482
900.423157,439
900.53949,483
900.655884,489
900.772156,464
900.888489,477
901.004822,465
901.121033,462
901.237366,458
901.353699,444
901.46991,467
901.586304,473
901.702515,467
901.818787,457
901.93512,466
902.051331,462
902.167603,463
902.283875,483
902.400085,465
902.516418,470
902.632629,457
902.74884,463
902.865112,485
902.981384,480
903.097595,459
903.213867,480
903.330017,466
903.446289,471
903.5625,468
903.67865,456
903.794922,477
903.911072,474
904.027344,473
904.143494,478
904.259705,462
904.375916,471
904.492065,474
904.608215,461
904.724426,462
904.840576,465
904.956726,489
905.072876,473
905.189087,456
905.305176,439
905.421387,478
905.537537,467
905.653687,475
905.769775,449
905.885925,477
906.002014,446
906.118164,471
906.234314,470
906.350403,477
906.466492,473
906.582642,463
906.69873,467
906.814758,489
906.930908,488
907.046936,491
907.163086,462
907.279175,474
907.395264,465
907.511353,473
907.62738,489
907.743408,470
907.859497,476
907.975525,478
908.091553,503
908.207703,453
908.32373,457
908.439758,489
908.555786,474
908.671814,476
908.787842,486
908.90387,492
909.019775,488
909.135864,499
909.251892,469
909.367859,473
909.483826,468
909.599854,472
909.715881,471
909.831848,471
909.947815,461
910.063782,461
910.179749,476
910.295776,480
910.411743,462
910.527649,467
910.643616,462
910.759583,489
910.875488,477
910.991455,481
911.107361,480
911.223267,484
911.339294,454
911.4552,473
911.571106,460
911.687073,475
911.802979,455
911.918823,462
912.034729,483
912.150635,499
912.266602,477
912.382446,470
912.498352,486
912.614197,458
912.730103,495
912.846008,454
792.44574,637
792.56488,641
792.68396,684
792.80304,684
792.92218,645
793.041199,624
793.160339,618
793.279419,632
793.398499,615
793.517578,614
793.636658,611
793.755737,615
793.874817,646
793.993896,613
794.112976,608
794.232056,626
794.351074,610
794.470215,593
794.589233,604
794.708313,591
794.827393,602
794.946411,612
795.065552,625
795.18457,579
795.303589,599
795.422668,600
795.541687,603
795.660767,573
795.779846,596
795.898865,583
796.017883,578
796.136963,579
796.255981,599
796.375061,585
796.49408,605
796.613037,598
796.732117,593
796.851135,604
796.970154,599
797.089233,582
797.208191,591
797.327271,587
797.446228,607
797.565186,581
797.684265,580
797.803223,603
797.922241,580
798.04126,576
798.160278,617
798.279297,565
798.398315,579
798.517273,608
798.636292,582
798.75531,597
798.874268,580
798.993286,582
799.112244,570
799.231323,566
799.350281,592
799.469238,566
799.588257,582
799.707153,577
799.826111,595
799.945129,590
800.064087,589
800.183044,568
800.302063,600
800.421021,598
800.539978,582
800.658936,588
800.777893,592
800.896912,567
801.015747,577
801.134705,574
801.253723,600
801.37262,615
801.491638,584
801.610535,606
801.729492,549
801.84845,589
801.967407,577
802.086243,598
802.205261,600
802.324158,599
802.443115,587
802.562073,581
802.680969,577
802.799927,574
802.918762,609
803.037659,606
803.156677,579
803.275574,611
803.39447,599
803.513428,581
803.632263,622
803.751221,597
803.870117,600
803.989014,649
804.107971,613
804.226746,602
804.345642,595
804.4646,593
804.583496,640
804.702393,608
804.821228,574
804.940125,617
805.059021,623
805.177917,600
805.296814,612
805.415649,631
805.534546,611
805.653442,603
805.772278,604
805.891113,628
806.01001,601
806.128906,594
806.247742,623
806.366577,615
806.485413,594
806.604309,617
806.723145,633
806.84198,599
806.960876,618
807.079712,619
807.198486,614
807.317383,625
807.436218,631
807.554993,618
807.673889,613
807.792725,596
807.91156,623
808.030396,604
808.14917,622
808.268005,631
808.386841,607
808.505676,625
808.624451,624
808.743286,623
808.862122,600
808.980896,624
809.099731,653
809.218506,618
809.337341,610
809.456116,632
809.57489,616
809.693726,652
809.8125,634
809.931274,650
810.050049,645
810.168884,645
810.287659,624
810.406372,634
810.525269,612
810.643982,592
810.762756,630
810.881531,623
811.000305,642
811.11908,689
811.237854,624
811.356567,619
811.475403,657
811.594116,616
811.71283,624
811.831604,617
811.950378,617
812.069153,634
812.187927,626
812.30658,617
812.425415,647
812.544128,630
812.662781,648
812.781616,603
812.900269,660
813.019043,621
813.137756,617
813.256531,609
813.375244,659
813.493896,629
813.612671,633
813.731384,619
813.850037,654
813.96875,611
814.087524,651
814.206238,642
814.324951,623
814.443604,632
814.562256,646
814.68103,609
814.799683,635
814.918335,626
815.037109,618
815.155762,626
815.274475,618
815.393188,626
815.511841,644
815.630554,607
815.749146,616
815.867859,623
815.986572,619
816.105164,611
816.223877,611
816.342529,612
816.461182,617
816.579895,594
816.698486,654
816.817139,623
816.935791,614
817.054504,616
817.173096,620
817.291748,626
817.4104,620
817.529053,580
817.647644,617
817.766235,595
817.884949,561
818.00354,587
818.122192,574
818.240845,566
818.359436,540
818.478088,546
818.59668,550
818.715271,512
818.833923,536
818.952515,546
819.071106,543
819.189758,514
819.30835,513
819.426941,524
819.545532,523
819.664124,496
819.782715,506
819.901306,481
820.019897,511
820.138489,492
820.25708,522
820.375671,496
820.494202,498
820.612732,500
820.731384,496
820.849915,496
820.968506,497
821.087097,483
821.205627,499
821.324158,489
821.442749,492
821.561279,483
821.679871,493
821.798401,484
821.916931,485
822.035461,490
822.154053,484
822.272583,502
822.391174,494
822.509583,489
822.628174,480
822.746704,435
822.865234,497
822.983765,453
823.102295,503
823.220825,483
823.339294,485
823.457825,464
823.576355,491
823.694824,471
823.813354,479
823.931885,477
824.050354,508
824.168884,486
824.287354,496
824.405823,478
824.524353,484
824.642822,479
824.761353,500
824.879822,482
824.998291,480
825.116699,481
825.235291,468
825.353699,485
825.472168,471
825.590637,466
825.709106,489
825.827576,471
825.946045,500
826.064453,505
826.182983,478
826.301392,471
826.4198,484
826.53833,481
826.656738,485
826.775208,465
826.893677,486
827.012024,465
827.130493,458
827.248962,464
827.36731,488
827.485779,464
827.604248,467
827.722595,479
827.841064,467
827.959412,458
828.077942,452
828.196289,459
828.314636,490
828.433105,455
828.551514,452
828.669861,447
828.78833,463
828.906677,476
829.025085,478
829.143433,464
829.261841,468
829.38031,461
829.498657,457
829.617004,449
829.735413,457
829.85376,452
829.972107,460
830.090515,460
830.208862,455
830.327209,471
830.445557,462
830.563904,479
830.682312,468
830.800659,456
830.919006,474
831.037354,454
831.155701,460
831.274048,457
831.392395,463
831.51062,445
831.629028,461
831.747314,464
831.865662,478
831.984009,451
832.102356,463
832.220642,461
832.338928,461
832.457275,457
832.575623,482
832.693909,464
832.812134,467
832.930481,468
833.048828,461
833.167114,473
833.2854,477
833.403687,490
833.521973,451
833.640259,466
833.758545,470
833.876831,454
833.995056,468
834.113281,458
834.231628,466
834.349915,470
834.468201,463
834.586426,450
834.704651,484
834.822998,480
834.941162,461
835.059448,446
835.177673,464
835.295959,475
835.414246,467
835.53241,450
835.650635,451
835.768921,461
835.887146,466
836.005371,462
836.123596,470
836.241821,472
836.360046,464
836.478271,460
836.596497,477
836.714722,468
836.832886,466
836.95105,483
837.069336,484
837.1875,491
837.305725,493
837.423889,464
837.542053,484
837.660339,479
837.778503,488
837.896667,462
838.014832,463
838.132996,484
838.25116,468
838.369385,466
838.487488,487
838.605713,458
838.723877,474
838.84198,474
838.960205,493
839.078308,478
839.196472,475
839.314636,456
839.4328,476
839.550964,483
839.669067,474
839.787231,472
839.905396,482
840.023499,454
840.141602,487
840.259766,467
840.377869,472
840.495972,492
840.614136,471
840.732239,475
840.850342,465
840.968445,467
841.086548,453
841.204651,476
841.322754,464
841.440918,479
841.55896,478
841.677002,475
841.795166,484
841.913208,462
842.031311,470
842.149353,467
842.267456,450
842.385498,440
842.503601,464
842.621643,464
842.739746,444
842.857788,474
842.97583,450
843.093933,456
843.211975,460
843.330017,452
843.44812,464
843.566101,445
843.684204,456
843.802246,456
843.920227,460
844.038269,464
844.156311,477
844.274292,460
844.392395,446
844.510376,459
844.628357,443
844.74646,457
844.864441,461
844.982422,456
845.100403,436
845.218384,463
845.336426,459
845.454468,465
845.572449,450
845.69043,443
845.808411,450
845.926453,466
846.044373,466
846.162354,447
846.280396,445
846.398315,455
846.516296,454
846.634216,444
846.752197,434
846.870178,456
846.988098,451
847.106079,439
847.22406,455
847.34198,456
847.4599,440
847.577881,449
847.695801,458
847.813782,452
847.931641,457
848.049561,450
848.167603,454
848.285461,448
848.403381,448
848.521362,432
848.639221,461
848.75708,449
848.875,434
848.99292,457
849.110901,474
849.22876,434
849.34668,470
849.464539,458
849.582458,449
849.700317,444
849.818176,448
849.936096,459
850.053955,439
850.171875,444
850.289673,463
850.407593,451
850.525452,450
850.643311,458
850.761169,434
850.878967,424
850.996887,455
851.114746,441
851.232544,446
851.350403,463
851.468262,459
851.58606,446
851.703979,450
851.821777,442
851.939636,437
852.057434,452
852.175232,459
852.293091,453
852.410889,450
852.528687,439
852.646545,445
852.764343,436
852.88208,463
852.999939,465
853.117676,447
853.235535,467
853.353271,448
853.471069,457
853.588928,455
853.706604,449
853.824402,454
853.9422,454
854.059998,451
854.177734,459
854.295532,451
854.413269,451
854.531006,441
854.648804,440
854.766541,455
854.884277,448
855.002014,471
855.119751,464
855.237549,472
855.355225,458
855.473022,457
855.590698,476
855.708435,469
855.826172,438
855.943848,470
856.061646,467
856.179321,468
856.296997,464
856.414795,453
856.53241,472
856.650085,469
856.767822,470
856.885559,444
857.003174,460
857.120911,431
857.238586,460
857.356201,454
857.473938,468
857.591614,462
857.709351,460
857.826965,448
857.944641,460
858.062317,458
858.179993,454
858.297668,444
858.415283,443
858.532959,462
858.650574,464
858.768188,475
858.885803,467
859.003479,464
859.121094,445
859.23877,444
859.356384,443
859.473999,458
859.591675,458
859.709229,450
859.826843,455
859.944458,441
860.062012,472
860.179626,452
860.297302,446
860.414856,445
860.532471,455
860.650024,457
860.767639,461
860.885193,450
861.002808,461
861.120361,466
861.237976,465
861.35553,445
861.473022,463
861.590698,442
861.708191,452
861.825745,448
861.943298,452
862.060852,454
862.178406,462
862.295959,465
862.413513,456
862.531006,447
862.64856,439
862.766113,449
862.883667,445
863.00116,461
863.118713,450
863.236206,459
863.353699,448
863.471252,450
863.588745,459
863.706177,460
863.82373,451
863.941162,456
864.058716,442
864.176208,459
864.29364,439
864.411194,446
864.528687,445
864.646118,454
864.763611,450
864.881042,452
864.998535,460
865.116028,458
865.233459,452
865.350891,450
865.468384,456
865.585754,471
865.703308,457
865.820679,461
865.938171,463
866.055542,450
866.173035,464
866.290466,452
866.407837,467
866.52533,449
866.6427,450
866.760071,467
866.877563,458
866.994934,455
867.112305,456
867.229736,473
867.347107,465
867.464539,472
867.58197,446
867.699341,451
867.81665,464
867.934082,455
868.051453,446
868.168823,472
868.286194,433
868.403564,442
868.520935,471
868.638306,465
868.755676,450
868.872986,462
868.990295,458
869.107727,452
869.225037,452
869.342346,456
869.459717,450
869.577026,469
869.694336,460
869.811707,470
869.929016,467
870.046326,448
870.163635,448
870.280945,445
870.398254,454
870.515564,475
870.632812,449
870.750183,469
870.867432,471
870.984741,448
871.102051,467
871.219299,445
871.336609,457
871.453918,456
871.571106,465
871.688416,468
871.805664,443
871.922852,473
872.040222,440
872.157471,452
872.274719,450
872.391968,462
872.509155,456
872.626465,444
872.743652,450
872.860962,453
872.978149,438
873.095337,472
873.212646,451
873.329834,450
873.44696,468
873.564209,468
873.681396,469
873.798645,453
873.915894,458
874.03302,456
874.150208,464
874.267456,441
874.384583,441
874.501831,462
874.618958,455
874.736145,455
874.853333,465
874.970459,450
875.087646,458
875.204834,448
875.32196,458
875.439148,457
875.556274,457
875.673401,461
875.790527,454
875.907715,457
876.024841,458
876.141968,468
876.259094,455
876.376282,466
876.493347,452
876.610474,484
876.7276,463
876.844727,466
876.961853,436
877.078918,458
877.195984,459
877.313171,461
877.430237,453
877.547302,465
877.664368,467
877.781433,457
877.898499,454
878.015625,465
878.13269,436
878.249695,452
878.366821,444
878.483887,452
878.600952,466
878.717957,451
878.834961,437
878.952087,461
879.069092,435
879.186157,470
879.303162,461
879.420227,457
879.537231,462
879.654236,456
879.77124,459
879.888306,461
880.005249,433
880.122314,456
880.239319,465
880.356323,463
880.473328,450
880.590271,445
880.707275,481
880.824341,453
880.941284,460
881.058228,443
881.175232,455
881.292236,464
881.40918,440
881.526123,436
881.643066,452
881.760071,450
881.877014,440
881.993958,462
882.11084,444
882.227783,473
882.344727,443
882.46167,467
882.578613,452
882.695618,456
882.812439,440
882.929382,454
883.046326,451
883.163208,467
883.280151,429
883.397034,447
883.513916,458
883.630798,456
883.747742,430
883.864563,442
883.981506,451
884.098389,462
884.21521,469
884.332153,475
884.448975,453
884.565796,449
884.682678,457
884.7995,480
884.916443,451
885.033264,472
885.150085,452
885.266968,464
885.383789,452
885.500671,467
885.617493,466
885.734314,476
885.851196,464
885.967896,451
886.084717,455
886.201599,463
886.318359,452
886.435181,469
886.552002,481
886.668762,457
886.785645,456
886.902344,462
887.019165,459
887.135925,487
887.252747,452
887.369446,457
887.486267,470
887.603027,446
887.719788,446
887.836548,443
887.953247,462
888.070068,465
888.186829,452
888.303528,460
888.420288,472
888.536987,459
888.653687,460
888.770447,468
888.887146,464
889.003967,465
889.120667,480
889.237305,473
889.354065,439
889.470703,466
889.587463,472
889.704163,475
889.820862,459
889.937561,491
890.054199,466
890.170837,452
890.287598,442
890.404236,467
890.520874,446
890.637634,474
890.754211,462
890.87085,465
890.987549,463
891.104187,462
891.220886,467
891.337463,463
891.454102,465
891.57074,485
891.687378,457
891.804077,463
891.920654,454
892.037231,454
892.15387,465
892.270447,466
892.387085,455
892.503723,469
892.6203,460
892.736877,464
892.853516,457
892.970032,486
893.08667,464
893.203186,461
893.319763,451
893.43634,476
893.552917,482
893.669556,451
893.786011,462
893.902588,478
894.019165,469
894.135681,466
894.252197,457
894.368835,460
894.485291,437
894.601868,451
894.718384,490
894.8349,475
894.951355,444
895.067932,461
895.184448,464
895.300964,463
895.417419,440
895.533936,473
895.650452,465
895.766907,451
895.883423,451
895.999878,486
896.116333,432
896.232849,454
896.349304,463
896.465759,459
896.582214,462
896.698669,476
896.815125,460
896.931641,478
897.048035,453
897.164551,458
897.280884,469
897.397339,468
897.513794,457
897.630249,460
897.746582,472
897.863098,474
897.979431,456
898.095886,463
898.212341,453
898.328674,485
898.445129,464
898.561462,467
898.677795,484
898.794312,476
898.910645,455
899.026978,478
899.143433,471
899.259766,452
899.37616,457
899.492493,468
899.608765,450
899.725159,467
899.841553,468
899.957947,462
900.07428,461
900.190552,483
900.306946,470
900.423157,455
900.53949,465
900.655884,455
900.772156,461
900.888489,457
901.004822,464
901.121033,451
901.237366,456
901.353699,460
901.46991,472
901.586304,461
901.702515,470
901.818787,464
901.93512,464
902.051331,453
902.167603,482
902.283875,460
902.400085,469
902.516418,471
902.632629,471
902.74884,489
902.865112,462
902.981384,472
903.097595,461
903.213867,463
903.330017,468
903.446289,474
903.5625,469
903.67865,470
903.794922,467
903.911072,458
904.027344,475
904.143494,470
904.259705,466
904.375916,451
904.492065,479
904.608215,491
904.724426,496
904.840576,474
904.956726,446
905.072876,491
905.189087,474
905.305176,468
905.421387,459
905.537537,456
905.653687,477
905.769775,481
905.885925,466
906.002014,475
906.118164,485
906.234314,447
906.350403,458
906.466492,457
906.582642,456
906.69873,485
906.814758,453
906.930908,486
907.046936,474
907.163086,466
907.279175,457
907.395264,477
907.511353,467
907.62738,467
907.743408,460
907.859497,490
907.975525,466
908.091553,479
908.207703,465
908.32373,459
908.439758,459
908.555786,459
908.671814,470
908.787842,473
908.90387,466
909.019775,457
909.135864,468
909.251892,482
909.367859,459
909.483826,474
909.599854,467
909.715881,479
909.831848,487
909.947815,472
910.063782,467
910.179749,468
910.295776,454
910.411743,475
910.527649,465
910.643616,468
910.759583,470
910.875488,476
910.991455,483
911.107361,458
911.223267,486
911.339294,465
911.4552,475
911.571106,472
911.687073,466
911.802979,474
911.918823,471
912.034729,475
912.150635,473
912.266602,459
912.382446,457
912.498352,461
912.614197,466
912.730103,475
912.846008,480
