792.44574,1086
792.56488,1098
792.68396,1100
792.80304,1055
792.92218,1023
793.041199,955
793.160339,961
793.279419,935
793.398499,918
793.517578,880
793.636658,880
793.755737,890
793.874817,899
793.993896,862
794.112976,820
794.232056,823
794.351074,851
794.470215,797
794.589233,778
794.708313,795
794.827393,757
794.946411,762
795.065552,772
795.18457,738
795.303589,763
795.422668,743
795.541687,737
795.660767,751
795.779846,723
795.898865,708
796.017883,705
796.136963,701
796.255981,705
796.375061,683
796.49408,698
796.613037,676
796.732117,663
796.851135,686
796.970154,652
797.089233,635
797.208191,647
797.327271,661
797.446228,662
797.565186,664
797.684265,652
797.803223,652
797.922241,641
798.04126,634
798.160278,627
798.279297,632
798.398315,615
798.517273,614
798.636292,616
798.75531,642
798.874268,617
798.993286,606
799.112244,637
799.231323,624
799.350281,628
799.469238,607
799.588257,617
799.707153,613
799.826111,598
799.945129,607
800.064087,594
800.183044,595
800.302063,609
800.421021,608
800.539978,598
800.658936,605
800.777893,588
800.896912,606
801.015747,586
801.134705,622
801.253723,574
801.37262,596
801.491638,566
801.610535,581
801.729492,604
801.84845,591
801.967407,582
802.086243,600
802.205261,574
802.324158,580
802.443115,586
802.562073,582
802.680969,573
802.799927,571
802.918762,565
803.037659,573
803.156677,576
803.275574,574
803.39447,585
803.513428,559
803.632263,548
803.751221,549
803.870117,562
803.989014,550
804.107971,575
804.226746,573
804.345642,553
804.4646,550
804.583496,570
804.702393,569
804.821228,549
804.940125,564
805.059021,564
805.177917,576
805.296814,545
805.415649,544
805.534546,541
805.653442,566
805.772278,540
805.891113,551
806.01001,567
806.128906,571
806.247742,558
806.366577,575
806.485413,537
806.604309,547
806.723145,537
806.84198,528
806.960876,552
807.079712,541
807.198486,535
807.317383,550
807.436218,548
807.554993,553
807.673889,531
807.792725,553
807.91156,536
808.030396,564
808.14917,532
808.268005,546
808.386841,550
808.505676,533
808.624451,538
808.743286,536
808.862122,528
808.980896,526
809.099731,528
809.218506,539
809.337341,573
809.456116,553
809.57489,554
809.693726,514
809.8125,550
809.931274,528
810.050049,534
810.168884,513
810.287659,533
810.406372,535
810.525269,539
810.643982,537
810.762756,521
810.881531,518
811.000305,555
811.11908,550
811.237854,537
811.356567,535
811.475403,523
811.594116,538
811.71283,540
811.831604,545
811.950378,529
812.069153,554
812.187927,560
812.30658,556
812.425415,548
812.544128,553
812.662781,556
812.781616,557
812.900269,533
813.019043,529
813.137756,519
813.256531,541
813.375244,550
813.493896,543
813.612671,547
813.731384,518
813.850037,542
813.96875,533
814.087524,529
814.206238,509
814.324951,539
814.443604,527
814.562256,523
814.68103,534
814.799683,544
814.918335,533
815.037109,533
815.155762,528
815.274475,529
815.393188,540
815.511841,545
815.630554,524
815.749146,530
815.867859,552
815.986572,544
816.105164,521
816.223877,506
816.342529,529
816.461182,516
816.579895,530
816.698486,529
816.817139,536
816.935791,542
817.054504,536
817.173096,525
817.291748,548
817.4104,513
817.529053,538
817.647644,513
817.766235,517
817.884949,513
818.00354,531
818.122192,507
818.240845,528
818.359436,523
818.478088,509
818.59668,516
818.715271,516
818.833923,489
818.952515,507
819.071106,495
819.189758,494
819.30835,522
819.426941,494
819.545532,517
819.664124,506
819.782715,501
819.901306,502
820.019897,488
820.138489,506
820.25708,506
820.375671,501
820.494202,522
820.612732,505
820.731384,516
820.849915,509
820.968506,506
821.087097,503
821.205627,488
821.324158,513
821.442749,493
821.561279,504
821.679871,491
821.798401,505
821.916931,515
822.035461,496
822.154053,495
822.272583,482
822.391174,507
822.509583,487
822.628174,502
822.746704,478
822.865234,480
822.983765,486
823.102295,496
823.220825,496
823.339294,496
823.457825,497
823.576355,489
823.694824,484
823.813354,504
823.931885,480
824.050354,487
824.168884,496
824.287354,492
824.405823,497
824.524353,493
824.642822,489
824.761353,492
824.879822,498
824.998291,510
825.116699,494
825.235291,492
825.353699,488
825.472168,488
825.590637,479
825.709106,489
825.827576,487
825.946045,499
826.064453,501
826.182983,488
826.301392,474
826.4198,504
826.53833,482
826.656738,472
826.775208,516
826.893677,462
827.012024,487
827.130493,476
827.248962,505
827.36731,498
827.485779,483
827.604248,484
827.722595,473
827.841064,485
827.959412,513
828.077942,473
828.196289,479
828.314636,491
828.433105,464
828.551514,474
828.669861,476
828.78833,491
828.906677,484
829.025085,490
829.143433,488
829.261841,468
829.38031,486
829.498657,465
829.617004,486
829.735413,494
829.85376,473
829.972107,465
830.090515,482
830.208862,469
830.327209,473
830.445557,467
830.563904,476
830.682312,457
830.800659,473
830.919006,478
831.037354,499
831.155701,485
831.274048,500
831.392395,484
831.51062,515
831.629028,491
831.747314,498
831.865662,487
831.984009,496
832.102356,498
832.220642,502
832.338928,492
832.457275,489
832.575623,487
832.693909,516
832.812134,493
832.930481,486
833.048828,496
833.167114,490
833.2854,485
833.403687,474
833.521973,482
833.640259,494
833.758545,480
833.876831,481
833.995056,503
834.113281,486
834.231628,488
834.349915,504
834.468201,503
834.586426,502
834.704651,483
834.822998,482
834.941162,493
835.059448,509
835.177673,487
835.295959,509
835.414246,496
835.53241,489
835.650635,478
835.768921,487
835.887146,481
836.005371,482
836.123596,480
836.241821,499
836.360046,462
836.478271,484
836.596497,479
836.714722,482
836.832886,485
836.95105,496
837.069336,490
837.1875,482
837.305725,493
837.423889,481
837.542053,495
837.660339,492
837.778503,473
837.896667,493
838.014832,488
838.132996,459
838.25116,466
838.369385,493
838.487488,478
838.605713,470
838.723877,482
838.84198,493
838.960205,489
839.078308,489
839.196472,501
839.314636,470
839.4328,490
839.550964,494
839.669067,499
839.787231,495
839.905396,490
840.023499,492
840.141602,499
840.259766,526
840.377869,506
840.495972,504
840.614136,510
840.732239,544
840.850342,507
840.968445,514
841.086548,495
841.204651,525
841.322754,520
841.440918,519
841.55896,509
841.677002,507
841.795166,515
841.913208,504
842.031311,544
842.149353,535
842.267456,500
842.385498,508
842.503601,485
842.621643,534
842.739746,505
842.857788,515
842.97583,494
843.093933,500
843.211975,505
843.330017,514
843.44812,502
843.566101,519
843.684204,520
843.802246,509
843.920227,509
844.038269,521
844.156311,507
844.274292,509
844.392395,504
844.510376,511
844.628357,504
844.74646,514
844.864441,518
844.982422,518
845.100403,503
845.218384,489
845.336426,486
845.454468,529
845.572449,483
845.69043,511
845.808411,503
845.926453,504
846.044373,502
846.162354,496
846.280396,505
846.398315,504
846.516296,503
846.634216,496
846.752197,518
846.870178,499
846.988098,487
847.106079,524
847.22406,520
847.34198,539
847.4599,508
847.577881,507
847.695801,510
847.813782,519
847.931641,525
848.049561,502
848.167603,496
848.285461,515
848.403381,499
848.521362,517
848.639221,486
848.75708,505
848.875,513
848.99292,536
849.110901,509
849.22876,520
849.34668,506
849.464539,523
849.582458,518
849.700317,504
849.818176,492
849.936096,495
850.053955,512
850.171875,508
850.289673,506
850.407593,534
850.525452,499
850.643311,500
850.761169,497
850.878967,508
850.996887,485
851.114746,519
851.232544,502
851.350403,513
851.468262,513
851.58606,508
851.703979,510
851.821777,513
851.939636,515
852.057434,505
852.175232,518
852.293091,523
852.410889,528
852.528687,524
852.646545,538
852.764343,529
852.88208,545
852.999939,557
853.117676,532
853.235535,515
853.353271,521
853.471069,534
853.588928,502
853.706604,503
853.824402,520
853.9422,512
854.059998,497
854.177734,522
854.295532,531
854.413269,503
854.531006,495
854.648804,527
854.766541,521
854.884277,510
855.002014,520
855.119751,524
855.237549,522
855.355225,512
855.473022,501
855.590698,513
855.708435,531
855.826172,508
855.943848,511
856.061646,522
856.179321,507
856.296997,510
856.414795,537
856.53241,540
856.650085,510
856.767822,523
856.885559,522
857.003174,535
857.120911,529
857.238586,517
857.356201,522
857.473938,529
857.591614,524
857.709351,531
857.826965,506
857.944641,534
858.062317,529
858.179993,500
858.297668,514
858.415283,526
858.532959,520
858.650574,531
858.768188,524
858.885803,544
859.003479,522
859.121094,539
859.23877,507
859.356384,530
859.473999,525
859.591675,513
859.709229,522
859.826843,503
859.944458,511
860.062012,525
860.179626,491
860.297302,504
860.414856,523
860.532471,501
860.650024,493
860.767639,498
860.885193,499
861.002808,492
861.120361,508
861.237976,516
861.35553,514
861.473022,518
861.590698,529
861.708191,499
861.825745,489
861.943298,500
862.060852,510
862.178406,518
862.295959,477
862.413513,509
862.531006,488
862.64856,486
862.766113,498
862.883667,486
863.00116,496
863.118713,503
863.236206,508
863.353699,478
863.471252,497
863.588745,517
863.706177,500
863.82373,498
863.941162,493
864.058716,502
864.176208,498
864.29364,502
864.411194,506
864.528687,486
864.646118,478
864.763611,490
864.881042,501
864.998535,503
865.116028,505
865.233459,531
865.350891,482
865.468384,493
865.585754,492
865.703308,478
865.820679,484
865.938171,505
866.055542,488
866.173035,483
866.290466,492
866.407837,501
866.52533,503
866.6427,493
866.760071,507
866.877563,494
866.994934,502
867.112305,492
867.229736,499
867.347107,497
867.464539,514
867.58197,486
867.699341,485
867.81665,515
867.934082,508
868.051453,491
868.168823,491
868.286194,489
868.403564,484
868.520935,517
868.638306,494
868.755676,484
868.872986,498
868.990295,526
869.107727,522
869.225037,508
869.342346,493
869.459717,498
869.577026,509
869.694336,517
869.811707,521
869.929016,502
870.046326,510
870.163635,539
870.280945,498
870.398254,525
870.515564,510
870.632812,545
870.750183,517
870.867432,530
870.984741,535
871.102051,508
871.219299,534
871.336609,544
871.453918,538
871.571106,535
871.688416,532
871.805664,529
871.922852,540
872.040222,548
872.157471,529
872.274719,526
872.391968,516
872.509155,515
872.626465,548
872.743652,553
872.860962,533
872.978149,542
873.095337,519
873.212646,531
873.329834,515
873.44696,514
873.564209,509
873.681396,514
873.798645,520
873.915894,505
874.03302,532
874.150208,511
874.267456,547
874.384583,523
874.501831,538
874.618958,544
874.736145,530
874.853333,511
874.970459,552
875.087646,531
875.204834,531
875.32196,556
875.439148,542
875.556274,537
875.673401,519
875.790527,516
875.907715,510
876.024841,514
876.141968,503
876.259094,531
876.376282,481
876.493347,504
876.610474,526
876.7276,515
876.844727,509
876.961853,521
877.078918,517
877.195984,533
877.313171,509
877.430237,514
877.547302,510
877.664368,509
877.781433,484
877.898499,540
878.015625,498
878.13269,496
878.249695,506
878.366821,485
878.483887,487
878.600952,500
878.717957,486
878.834961,490
878.952087,493
879.069092,498
879.186157,501
879.303162,496
879.420227,496
879.537231,492
879.654236,480
879.77124,489
879.888306,478
880.005249,506
880.122314,494
880.239319,478
880.356323,465
880.473328,487
880.590271,497
880.707275,488
880.824341,500
880.941284,475
881.058228,492
881.175232,492
881.292236,471
881.40918,498
881.526123,462
881.643066,499
881.760071,482
881.877014,495
881.993958,499
882.11084,508
882.227783,484
882.344727,495
882.46167,464
882.578613,496
882.695618,499
882.812439,482
882.929382,482
883.046326,489
883.163208,487
883.280151,490
883.397034,481
883.513916,483
883.630798,507
883.747742,490
883.864563,490
883.981506,495
884.098389,500
884.21521,513
884.332153,488
884.448975,499
884.565796,509
884.682678,538
884.7995,519
884.916443,527
885.033264,529
885.150085,570
885.266968,570
885.383789,585
885.500671,568
885.617493,579
885.734314,588
885.851196,596
885.967896,579
886.084717,565
886.201599,565
886.318359,540
886.435181,553
886.552002,567
886.668762,553
886.785645,550
886.902344,563
887.019165,530
887.135925,556
887.252747,531
887.369446,552
887.486267,520
887.603027,528
887.719788,514
887.836548,513
887.953247,518
888.070068,495
888.186829,500
888.303528,488
888.420288,499
888.536987,490
888.653687,488
888.770447,471
888.887146,488
889.003967,496
889.120667,484
889.237305,466
889.354065,469
889.470703,462
889.587463,467
889.704163,474
889.820862,463
889.937561,464
890.054199,470
890.170837,460
890.287598,458
890.404236,486
890.520874,480
890.637634,462
890.754211,462
890.87085,482
890.987549,481
891.104187,467
891.220886,492
891.337463,494
891.454102,480
891.57074,463
891.687378,474
891.804077,465
891.920654,466
892.037231,489
892.15387,481
892.270447,468
892.387085,489
892.503723,478
892.6203,453
892.736877,470
892.853516,481
892.970032,473
893.08667,465
893.203186,470
893.319763,464
893.43634,473
893.552917,481
893.669556,476
893.786011,476
893.902588,467
894.019165,466
894.135681,471
894.252197,460
894.368835,482
894.485291,473
894.601868,456
894.718384,473
894.8349,460
894.951355,474
895.067932,457
895.184448,465
895.300964,462
895.417419,476
895.533936,495
895.650452,454
895.766907,466
895.883423,483
895.999878,478
896.116333,476
896.232849,441
896.349304,452
896.465759,462
896.582214,470
896.698669,480
896.815125,462
896.931641,470
897.048035,474
897.164551,469
897.280884,466
897.397339,457
897.513794,490
897.630249,476
897.746582,468
897.863098,459
897.979431,485
898.095886,486
898.212341,488
898.328674,476
898.445129,464
898.561462,459
898.677795,495
898.794312,477
898.910645,457
899.026978,469
899.143433,471
899.259766,470
899.37616,485
899.492493,473
899.608765,484
899.725159,467
899.841553,477
899.957947,486
900.07428,490
900.190552,471
900.306946,472
900.423157,484
900.53949,505
900.655884,480
900.772156,465
900.888489,480
901.004822,490
901.121033,457
901.237366,494
901.353699,477
901.46991,484
901.586304,495
901.702515,481
901.818787,485
901.93512,481
902.051331,475
902.167603,526
902.283875,499
902.400085,520
902.516418,506
902.632629,531
902.74884,515
902.865112,526
902.981384,519
903.097595,529
903.213867,522
903.330017,527
903.446289,526
903.5625,527
903.67865,524
903.794922,518
903.911072,506
904.027344,508
904.143494,502
904.259705,533
904.375916,495
904.492065,473
904.608215,488
904.724426,517
904.840576,494
904.956726,479
905.072876,487
905.189087,507
905.305176,492
905.421387,476
905.537537,476
905.653687,493
905.769775,483
905.885925,486
906.002014,487
906.118164,471
906.234314,473
906.350403,463
906.466492,487
906.582642,483
906.69873,462
906.814758,469
906.930908,455
907.046936,451
907.163086,479
907.279175,462
907.395264,472
907.511353,465
907.62738,458
907.743408,473
907.859497,461
907.975525,478
908.091553,459
908.207703,484
908.32373,467
908.439758,478
908.555786,467
908.671814,476
908.787842,481
908.90387,469
909.019775,473
909.135864,484
909.251892,471
909.367859,473
909.483826,473
909.599854,465
909.715881,490
909.831848,468
909.947815,467
910.063782,471
910.179749,464
910.295776,477
910.411743,433
910.527649,468
910.643616,475
910.759583,446
910.875488,473
910.991455,482
911.107361,478
911.223267,487
911.339294,458
911.4552,470
911.571106,458
911.687073,468
911.802979,461
911.918823,452
912.034729,457
912.150635,468
912.266602,468
912.382446,471
912.498352,464
912.614197,457
912.730103,453
912.846008,466
792.44574,1061
792.56488,1109
792.68396,1081
792.80304,1074
792.92218,1012
793.041199,981
793.160339,965
793.279419,964
793.398499,935
793.517578,881
793.636658,870
793.755737,906
793.874817,866
793.993896,878
794.112976,799
794.232056,793
794.351074,797
794.470215,804
794.589233,773
794.708313,768
794.827393,759
794.946411,755
795.065552,756
795.18457,763
795.303589,783
795.422668,706
795.541687,739
795.660767,744
795.779846,732
795.898865,690
796.017883,699
796.136963,692
796.255981,693
796.375061,681
796.49408,692
796.613037,692
796.732117,680
796.851135,670
796.970154,667
797.089233,698
797.208191,657
797.327271,664
797.446228,667
797.565186,652
797.684265,644
797.803223,643
797.922241,635
798.04126,664
798.160278,623
798.279297,616
798.398315,662
798.517273,614
798.636292,639
798.75531,631
798.874268,623
798.993286,637
799.112244,626
799.231323,626
799.350281,620
799.469238,626
799.588257,615
799.707153,621
799.826111,613
799.945129,599
800.064087,613
800.183044,600
800.302063,611
800.421021,606
800.539978,599
800.658936,599
800.777893,599
800.896912,581
801.015747,594
801.134705,590
801.253723,577
801.37262,590
801.491638,587
801.610535,602
801.729492,571
801.84845,579
801.967407,561
802.086243,589
802.205261,591
802.324158,554
802.443115,593
802.562073,576
802.680969,576
802.799927,573
802.918762,589
803.037659,570
803.156677,581
803.275574,566
803.39447,579
803.513428,569
803.632263,570
803.751221,558
803.870117,544
803.989014,578
804.107971,565
804.226746,578
804.345642,570
804.4646,557
804.583496,555
804.702393,557
804.821228,538
804.940125,559
805.059021,574
805.177917,562
805.296814,558
805.415649,554
805.534546,557
805.653442,580
805.772278,564
805.891113,552
806.01001,544
806.128906,553
806.247742,556
806.366577,546
806.485413,559
806.604309,540
806.723145,546
806.84198,544
806.960876,555
807.079712,572
807.198486,541
807.317383,533
807.436218,531
807.554993,556
807.673889,543
807.792725,534
807.91156,538
808.030396,532
808.14917,543
808.268005,537
808.386841,552
808.505676,550
808.624451,548
808.743286,551
808.862122,543
808.980896,534
809.099731,537
809.218506,538
809.337341,544
809.456116,525
809.57489,538
809.693726,536
809.8125,524
809.931274,523
810.050049,542
810.168884,546
810.287659,551
810.406372,518
810.525269,555
810.643982,547
810.762756,544
810.881531,525
811.000305,527
811.11908,527
811.237854,530
811.356567,520
811.475403,523
811.594116,558
811.71283,553
811.831604,535
811.950378,532
812.069153,547
812.187927,548
812.30658,552
812.425415,538
812.544128,539
812.662781,566
812.781616,559
812.900269,531
813.019043,537
813.137756,525
813.256531,521
813.375244,557
813.493896,537
813.612671,558
813.731384,502
813.850037,535
813.96875,535
814.087524,522
814.206238,533
814.324951,533
814.443604,541
814.562256,523
814.68103,547
814.799683,520
814.918335,538
815.037109,508
815.155762,517
815.274475,512
815.393188,558
815.511841,521
815.630554,533
815.749146,523
815.867859,551
815.986572,515
816.105164,529
816.223877,518
816.342529,544
816.461182,511
816.579895,524
816.698486,527
816.817139,535
816.935791,536
817.054504,533
817.173096,538
817.291748,523
817.4104,508
817.529053,531
817.647644,536
817.766235,511
817.884949,510
818.00354,517
818.122192,529
818.240845,526
818.359436,531
818.478088,499
818.59668,501
818.715271,525
818.833923,509
818.952515,505
819.071106,494
819.189758,511
819.30835,515
819.426941,513
819.545532,489
819.664124,508
819.782715,486
819.901306,523
820.019897,509
820.138489,548
820.25708,505
820.375671,507
820.494202,489
820.612732,504
820.731384,498
820.849915,539
820.968506,500
821.087097,498
821.205627,496
821.324158,513
821.442749,492
821.561279,489
821.679871,481
821.798401,516
821.916931,523
822.035461,500
822.154053,487
822.272583,493
822.391174,482
822.509583,481
822.628174,492
822.746704,511
822.865234,477
822.983765,512
823.102295,495
823.220825,491
823.339294,483
823.457825,485
823.576355,492
823.694824,483
823.813354,485
823.931885,489
824.050354,514
824.168884,509
824.287354,477
824.405823,508
824.524353,505
824.642822,492
824.761353,493
824.879822,493
824.998291,495
825.116699,496
825.235291,499
825.353699,492
825.472168,475
825.590637,505
825.709106,493
825.827576,516
825.946045,477
826.064453,477
826.182983,493
826.301392,472
826.4198,470
826.53833,500
826.656738,481
826.775208,474
826.893677,485
827.012024,491
827.130493,496
827.248962,491
827.36731,473
827.485779,485
827.604248,488
827.722595,503
827.841064,476
827.959412,486
828.077942,494
828.196289,497
828.314636,489
828.433105,475
828.551514,467
828.669861,476
828.78833,485
828.906677,510
829.025085,480
829.143433,480
829.261841,493
829.38031,490
829.498657,477
829.617004,487
829.735413,486
829.85376,476
829.972107,494
830.090515,489
830.208862,480
830.327209,484
830.445557,477
830.563904,481
830.682312,462
830.800659,484
830.919006,479
831.037354,487
831.155701,510
831.274048,508
831.392395,491
831.51062,508
831.629028,481
831.747314,479
831.865662,483
831.984009,503
832.102356,484
832.220642,492
832.338928,510
832.457275,477
832.575623,494
832.693909,499
832.812134,487
832.930481,473
833.048828,491
833.167114,480
833.2854,482
833.403687,488
833.521973,480
833.640259,497
833.758545,478
833.876831,510
833.995056,497
834.113281,487
834.231628,485
834.349915,503
834.468201,471
834.586426,497
834.704651,475
834.822998,508
834.941162,466
835.059448,489
835.177673,492
835.295959,507
835.414246,506
835.53241,493
835.650635,497
835.768921,477
835.887146,476
836.005371,482
836.123596,492
836.241821,482
836.360046,471
836.478271,482
836.596497,463
836.714722,482
836.832886,479
836.95105,487
837.069336,478
837.1875,492
837.305725,485
837.423889,482
837.542053,473
837.660339,474
837.778503,486
837.896667,478
838.014832,482
838.132996,479
838.25116,492
838.369385,481
838.487488,462
838.605713,493
838.723877,482
838.84198,494
838.960205,490
839.078308,488
839.196472,499
839.314636,495
839.4328,509
839.550964,507
839.669067,491
839.787231,496
839.905396,505
840.023499,510
840.141602,493
840.259766,500
840.377869,523
840.495972,515
840.614136,494
840.732239,526
840.850342,529
840.968445,516
841.086548,522
841.204651,516
841.322754,506
841.440918,521
841.55896,538
841.677002,505
841.795166,538
841.913208,522
842.031311,539
842.149353,522
842.267456,525
842.385498,508
842.503601,536
842.621643,528
842.739746,517
842.857788,502
842.97583,517
843.093933,514
843.211975,497
843.330017,526
843.44812,515
843.566101,507
843.684204,535
843.802246,520
843.920227,515
844.038269,500
844.156311,516
844.274292,521
844.392395,511
844.510376,513
844.628357,497
844.74646,512
844.864441,505
844.982422,498
845.100403,532
845.218384,520
845.336426,501
845.454468,511
845.572449,515
845.69043,497
845.808411,525
845.926453,507
846.044373,501
846.162354,513
846.280396,521
846.398315,513
846.516296,519
846.634216,509
846.752197,501
846.870178,514
846.988098,513
847.106079,524
847.22406,503
847.34198,517
847.4599,533
847.577881,525
847.695801,523
847.813782,514
847.931641,517
848.049561,516
848.167603,488
848.285461,513
848.403381,483
848.521362,521
848.639221,530
848.75708,507
848.875,526
848.99292,547
849.110901,508
849.22876,510
849.34668,500
849.464539,520
849.582458,525
849.700317,523
849.818176,502
849.936096,506
850.053955,508
850.171875,529
850.289673,515
850.407593,501
850.525452,512
850.643311,531
850.761169,509
850.878967,526
850.996887,519
851.114746,502
851.232544,526
851.350403,496
851.468262,494
851.58606,517
851.703979,488
851.821777,541
851.939636,515
852.057434,519
852.175232,512
852.293091,516
852.410889,515
852.528687,547
852.646545,555
852.764343,540
852.88208,551
852.999939,520
853.117676,534
853.235535,531
853.353271,507
853.471069,522
853.588928,514
853.706604,510
853.824402,539
853.9422,526
854.059998,515
854.177734,497
854.295532,499
854.413269,515
854.531006,521
854.648804,524
854.766541,525
854.884277,525
855.002014,525
855.119751,499
855.237549,508
855.355225,519
855.473022,530
855.590698,515
855.708435,535
855.826172,505
855.943848,520
856.061646,517
856.179321,512
856.296997,509
856.414795,510
856.53241,546
856.650085,519
856.767822,525
856.885559,521
857.003174,537
857.120911,546
857.238586,522
857.356201,524
857.473938,520
857.591614,533
857.709351,533
857.826965,532
857.944641,526
858.062317,515
858.179993,502
858.297668,525
858.415283,525
858.532959,503
858.650574,529
858.768188,518
858.885803,543
859.003479,488
859.121094,509
859.23877,512
859.356384,524
859.473999,531
859.591675,507
859.709229,493
859.826843,511
859.944458,520
860.062012,509
860.179626,515
860.297302,515
860.414856,491
860.532471,489
860.650024,505
860.767639,502
860.885193,504
861.002808,506
861.120361,497
861.237976,507
861.35553,512
861.473022,526
861.590698,491
861.708191,508
861.825745,511
861.943298,512
862.060852,510
862.178406,493
862.295959,505
862.413513,493
862.531006,474
862.64856,500
862.766113,486
862.883667,505
863.00116,495
863.118713,520
863.236206,505
863.353699,503
863.471252,485
863.588745,493
863.706177,489
863.82373,496
863.941162,491
864.058716,497
864.176208,491
864.29364,491
864.411194,486
864.528687,502
864.646118,490
864.763611,485
864.881042,467
864.998535,492
865.116028,489
865.233459,492
865.350891,500
865.468384,492
865.585754,494
865.703308,481
865.820679,480
865.938171,494
866.055542,491
866.173035,505
866.290466,483
866.407837,522
866.52533,487
866.6427,483
866.760071,506
866.877563,492
866.994934,517
867.112305,508
867.229736,477
867.347107,491
867.464539,504
867.58197,507
867.699341,510
867.81665,508
867.934082,504
868.051453,505
868.168823,493
868.286194,497
868.403564,503
868.520935,513
868.638306,504
868.755676,508
868.872986,504
868.990295,493
869.107727,522
869.225037,533
869.342346,518
869.459717,530
869.577026,505
869.694336,526
869.811707,512
869.929016,511
870.046326,545
870.163635,518
870.280945,508
870.398254,508
870.515564,540
870.632812,520
870.750183,506
870.867432,542
870.984741,535
871.102051,536
871.219299,538
871.336609,544
871.453918,543
871.571106,525
871.688416,546
871.805664,528
871.922852,540
872.040222,543
872.157471,521
872.274719,564
872.391968,531
872.509155,539
872.626465,512
872.743652,529
872.860962,527
872.978149,539
873.095337,542
873.212646,545
873.329834,524
873.44696,533
873.564209,538
873.681396,517
873.798645,538
873.915894,526
874.03302,536
874.150208,512
874.267456,511
874.384583,534
874.501831,533
874.618958,549
874.736145,542
874.853333,542
874.970459,526
875.087646,540
875.204834,552
875.32196,544
875.439148,536
875.556274,536
875.673401,522
875.790527,529
875.907715,529
876.024841,528
876.141968,529
876.259094,518
876.376282,519
876.493347,528
876.610474,503
876.7276,519
876.844727,492
876.961853,509
877.078918,512
877.195984,507
877.313171,497
877.430237,504
877.547302,514
877.664368,515
877.781433,507
877.898499,520
878.015625,521
878.13269,511
878.249695,507
878.366821,511
878.483887,513
878.600952,483
878.717957,505
878.834961,513
878.952087,493
879.069092,508
879.186157,504
879.303162,503
879.420227,497
879.537231,510
879.654236,488
879.77124,500
879.888306,490
880.005249,509
880.122314,502
880.239319,500
880.356323,482
880.473328,484
880.590271,489
880.707275,516
880.824341,485
880.941284,490
881.058228,485
881.175232,491
881.292236,482
881.40918,480
881.526123,473
881.643066,492
881.760071,496
881.877014,485
881.993958,488
882.11084,491
882.227783,487
882.344727,489
882.46167,490
882.578613,483
882.695618,476
882.812439,495
882.929382,502
883.046326,479
883.163208,486
883.280151,482
883.397034,481
883.513916,494
883.630798,491
883.747742,495
883.864563,494
883.981506,474
884.098389,516
884.21521,512
884.332153,502
884.448975,500
884.565796,496
884.682678,535
884.7995,534
884.916443,544
885.033264,519
885.150085,574
885.266968,563
885.383789,582
885.500671,554
885.617493,587
885.734314,558
885.851196,557
885.967896,566
886.084717,579
886.201599,588
886.318359,577
886.435181,568
886.552002,543
886.668762,571
886.785645,561
886.902344,560
887.019165,563
887.135925,530
887.252747,557
887.369446,531
887.486267,535
887.603027,524
887.719788,523
887.836548,515
887.953247,520
888.070068,491
888.186829,499
888.303528,506
888.420288,496
888.536987,513
888.653687,482
888.770447,469
888.887146,502
889.003967,483
889.120667,483
889.237305,487
889.354065,482
889.470703,460
889.587463,469
889.704163,482
889.820862,477
889.937561,469
890.054199,470
890.170837,465
890.287598,475
890.404236,460
890.520874,469
890.637634,458
890.754211,452
890.87085,464
890.987549,479
891.104187,471
891.220886,487
891.337463,472
891.454102,488
891.57074,480
891.687378,462
891.804077,470
891.920654,470
892.037231,486
892.15387,480
892.270447,457
892.387085,473
892.503723,466
892.6203,479
892.736877,472
892.853516,478
892.970032,457
893.08667,474
893.203186,458
893.319763,471
893.43634,476
893.552917,458
893.669556,460
893.786011,475
893.902588,472
894.019165,476
894.135681,483
894.252197,478
894.368835,486
894.485291,461
894.601868,474
894.718384,478
894.8349,468
894.951355,479
895.067932,466
895.184448,461
895.300964,452
895.417419,469
895.533936,459
895.650452,462
895.766907,463
895.883423,465
895.999878,458
896.116333,463
896.232849,472
896.349304,484
896.465759,473
896.582214,481
896.698669,471
896.815125,469
896.931641,476
897.048035,470
897.164551,455
897.280884,478
897.397339,470
897.513794,494
897.630249,469
897.746582,488
897.863098,472
897.979431,462
898.095886,499
898.212341,486
898.328674,463
898.445129,470
898.561462,476
898.677795,469
898.794312,486
898.910645,478
899.026978,475
899.143433,478
899.259766,481
899.37616,488
899.492493,461
899.608765,461
899.725159,474
899.841553,488
899.957947,482
900.07428,469
900.190552,471
900.306946,483
900.423157,478
900.53949,479
900.655884,468
900.772156,478
900.888489,475
901.004822,494
901.121033,479
901.237366,476
901.353699,502
901.46991,488
901.586304,483
901.702515,490
901.818787,478
901.93512,502
902.051331,500
902.167603,506
902.283875,494
902.400085,518
902.516418,535
902.632629,530
902.74884,543
902.865112,542
902.981384,529
903.097595,540
903.213867,535
903.330017,534
903.446289,525
903.5625,501
903.67865,511
903.794922,532
903.911072,524
904.027344,514
904.143494,491
904.259705,510
904.375916,517
904.492065,499
904.608215,502
904.724426,482
904.840576,494
904.956726,485
905.072876,486
905.189087,498
905.305176,474
905.421387,507
905.537537,468
905.653687,473
905.769775,474
905.885925,483
906.002014,456
906.118164,482
906.234314,476
906.350403,493
906.466492,468
906.582642,480
906.69873,481
906.814758,478
906.930908,490
907.046936,474
907.163086,465
907.279175,456
907.395264,473
907.511353,497
907.62738,464
907.743408,464
907.859497,465
907.975525,474
908.091553,467
908.207703,483
908.32373,473
908.439758,472
908.555786,460
908.671814,453
908.787842,466
908.90387,471
909.019775,477
909.135864,447
909.251892,458
909.367859,478
909.483826,479
909.599854,463
909.715881,475
909.831848,479
909.947815,466
910.063782,464
910.179749,476
910.295776,476
910.411743,465
910.527649,482
910.643616,459
910.759583,469
910.875488,459
910.991455,466
911.107361,460
911.223267,457
911.339294,471
911.4552,472
911.571106,468
911.687073,475
911.802979,459
911.918823,466
912.034729,470
912.150635,455
912.266602,477
912.382446,470
912.498352,444
912.614197,468
912.730103,473
912.846008,477
792.44574,1081
792.56488,1062
792.68396,1131
792.80304,1086
792.92218,1028
793.041199,964
793.160339,967
793.279419,935
793.398499,929
793.517578,910
793.636658,902
793.755737,874
793.874817,890
793.993896,847
794.112976,860
794.232056,826
794.351074,843
794.470215,802
794.589233,814
794.708313,775
794.827393,775
794.946411,764
795.065552,772
795.18457,738
795.303589,749
795.422668,747
795.541687,717
795.660767,731
795.779846,706
795.898865,710
796.017883,722
796.136963,697
796.255981,699
796.375061,687
796.49408,716
796.613037,682
796.732117,686
796.851135,660
796.970154,675
797.089233,683
797.208191,663
797.327271,653
797.446228,668
797.565186,648
797.684265,640
797.803223,672
797.922241,647
798.04126,641
798.160278,663
798.279297,635
798.398315,624
798.517273,621
798.636292,635
798.75531,653
798.874268,618
798.993286,630
799.112244,624
799.231323,629
799.350281,620
799.469238,632
799.588257,591
799.707153,598
799.826111,598
799.945129,584
800.064087,637
800.183044,629
800.302063,607
800.421021,605
800.539978,623
800.658936,582
800.777893,611
800.896912,605
801.015747,589
801.134705,609
801.253723,580
801.37262,596
801.491638,583
801.610535,581
801.729492,568
801.84845,567
801.967407,589
802.086243,588
802.205261,583
802.324158,566
802.443115,567
802.562073,589
802.680969,571
802.799927,579
802.918762,579
803.037659,549
803.156677,562
803.275574,573
803.39447,583
803.513428,576
803.632263,586
803.751221,569
803.870117,577
803.989014,555
804.107971,539
804.226746,574
804.345642,586
804.4646,567
804.583496,568
804.702393,557
804.821228,567
804.940125,527
805.059021,556
805.177917,559
805.296814,529
805.415649,567
805.534546,550
805.653442,542
805.772278,551
805.891113,546
806.01001,547
806.128906,556
806.247742,536
806.366577,551
806.485413,534
806.604309,541
806.723145,571
806.84198,545
806.960876,544
807.079712,515
807.198486,560
807.317383,552
807.436218,551
807.554993,568
807.673889,527
807.792725,550
807.91156,547
808.030396,536
808.14917,529
808.268005,527
808.386841,549
808.505676,545
808.624451,544
808.743286,551
808.862122,530
808.980896,550
809.099731,541
809.218506,526
809.337341,538
809.456116,542
809.57489,551
809.693726,527
809.8125,524
809.931274,530
810.050049,521
810.168884,529
810.287659,524
810.406372,544
810.525269,542
810.643982,530
810.762756,518
810.881531,540
811.000305,522
811.11908,545
811.237854,540
811.356567,526
811.475403,540
811.594116,560
811.71283,543
811.831604,544
811.950378,542
812.069153,548
812.187927,557
812.30658,555
812.425415,526
812.544128,540
812.662781,531
812.781616,526
812.900269,534
813.019043,542
813.137756,536
813.256531,532
813.375244,532
813.493896,550
813.612671,520
813.731384,532
813.850037,543
813.96875,529
814.087524,525
814.206238,515
814.324951,548
814.443604,529
814.562256,521
814.68103,543
814.799683,521
814.918335,525
815.037109,538
815.155762,513
815.274475,534
815.393188,540
815.511841,530
815.630554,547
815.749146,542
815.867859,523
815.986572,534
816.105164,520
816.223877,554
816.342529,529
816.461182,544
816.579895,517
816.698486,524
816.817139,529
816.935791,523
817.054504,528
817.173096,508
817.291748,536
817.4104,535
817.529053,532
817.647644,528
817.766235,532
817.884949,520
818.00354,509
818.122192,534
818.240845,525
818.359436,529
818.478088,531
818.59668,527
818.715271,514
818.833923,527
818.952515,497
819.071106,510
819.189758,498
819.30835,492
819.426941,505
819.545532,523
819.664124,513
819.782715,492
819.901306,492
820.019897,494
820.138489,497
820.25708,510
820.375671,487
820.494202,515
820.612732,524
820.731384,507
820.849915,509
820.968506,499
821.087097,501
821.205627,505
821.324158,501
821.442749,498
821.561279,490
821.679871,492
821.798401,492
821.916931,458
822.035461,485
822.154053,499
822.272583,493
822.391174,511
822.509583,494
822.628174,477
822.746704,498
822.865234,496
822.983765,492
823.102295,494
823.220825,482
823.339294,496
823.457825,508
823.576355,481
823.694824,496
823.813354,470
823.931885,503
824.050354,494
824.168884,489
824.287354,471
824.405823,511
824.524353,507
824.642822,504
824.761353,499
824.879822,492
824.998291,485
825.116699,490
825.235291,504
825.353699,496
825.472168,487
825.590637,474
825.709106,500
825.827576,491
825.946045,522
826.064453,473
826.182983,489
826.301392,486
826.4198,482
826.53833,464
826.656738,502
826.775208,473
826.893677,477
827.012024,481
827.130493,506
827.248962,469
827.36731,505
827.485779,483
827.604248,492
827.722595,481
827.841064,477
827.959412,486
828.077942,472
828.196289,473
828.314636,483
828.433105,476
828.551514,478
828.669861,471
828.78833,481
828.906677,469
829.025085,482
829.143433,477
829.261841,472
829.38031,475
829.498657,490
829.617004,503
829.735413,485
829.85376,483
829.972107,492
830.090515,471
830.208862,479
830.327209,492
830.445557,457
830.563904,494
830.682312,490
830.800659,477
830.919006,487
831.037354,492
831.155701,497
831.274048,509
831.392395,492
831.51062,473
831.629028,499
831.747314,487
831.865662,482
831.984009,499
832.102356,481
832.220642,511
832.338928,492
832.457275,499
832.575623,515
832.693909,504
832.812134,487
832.930481,471
833.048828,485
833.167114,484
833.2854,484
833.403687,475
833.521973,499
833.640259,494
833.758545,486
833.876831,487
833.995056,465
834.113281,495
834.231628,473
834.349915,496
834.468201,476
834.586426,498
834.704651,503
834.822998,474
834.941162,500
835.059448,493
835.177673,501
835.295959,482
835.414246,492
835.53241,499
835.650635,479
835.768921,497
835.887146,486
836.005371,470
836.123596,475
836.241821,494
836.360046,499
836.478271,491
836.596497,483
836.714722,502
836.832886,480
836.95105,457
837.069336,456
837.1875,486
837.305725,475
837.423889,475
837.542053,481
837.660339,484
837.778503,477
837.896667,485
838.014832,500
838.132996,474
838.25116,483
838.369385,487
838.487488,477
838.605713,503
838.723877,489
838.84198,473
838.960205,496
839.078308,517
839.196472,489
839.314636,479
839.4328,501
839.550964,482
839.669067,500
839.787231,506
839.905396,492
840.023499,522
840.141602,500
840.259766,505
840.377869,479
840.495972,515
840.614136,496
840.732239,528
840.850342,491
840.968445,502
841.086548,499
841.204651,516
841.322754,519
841.440918,512
841.55896,523
841.677002,514
841.795166,512
841.913208,535
842.031311,512
842.149353,521
842.267456,523
842.385498,533
842.503601,513
842.621643,514
842.739746,520
842.857788,498
842.97583,516
843.093933,518
843.211975,531
843.330017,532
843.44812,514
843.566101,523
843.684204,527
843.802246,514
843.920227,509
844.038269,491
844.156311,513
844.274292,505
844.392395,513
844.510376,506
844.628357,503
844.74646,521
844.864441,495
844.982422,506
845.100403,500
845.218384,519
845.336426,515
845.454468,494
845.572449,507
845.69043,522
845.808411,486
845.926453,509
846.044373,503
846.162354,512
846.280396,506
846.398315,517
846.516296,527
846.634216,504
846.752197,509
846.870178,524
846.988098,521
847.106079,512
847.22406,507
847.34198,533
847.4599,488
847.577881,514
847.695801,504
847.813782,497
847.931641,511
848.049561,515
848.167603,512
848.285461,510
848.403381,522
848.521362,515
848.639221,510
848.75708,502
848.875,513
848.99292,515
849.110901,504
849.22876,502
849.34668,489
849.464539,515
849.582458,497
849.700317,521
849.818176,504
849.936096,496
850.053955,511
850.171875,519
850.289673,518
850.407593,499
850.525452,527
850.643311,508
850.761169,485
850.878967,496
850.996887,518
851.114746,479
851.232544,520
851.350403,511
851.468262,490
851.58606,499
851.703979,477
851.821777,513
851.939636,497
852.057434,490
852.175232,506
852.293091,508
852.410889,542
852.528687,523
852.646545,538
852.764343,537
852.88208,546
852.999939,544
853.117676,507
853.235535,536
853.353271,529
853.471069,500
853.588928,504
853.706604,527
853.824402,506
853.9422,518
854.059998,507
854.177734,506
854.295532,509
854.413269,511
854.531006,519
854.648804,513
854.766541,516
854.884277,525
855.002014,509
855.119751,523
855.237549,530
855.355225,511
855.473022,511
855.590698,518
855.708435,508
855.826172,507
855.943848,524
856.061646,503
856.179321,529
856.296997,529
856.414795,532
856.53241,520
856.650085,521
856.767822,527
856.885559,530
857.003174,515
857.120911,521
857.238586,549
857.356201,522
857.473938,507
857.591614,513
857.709351,516
857.826965,524
857.944641,542
858.062317,515
858.179993,536
858.297668,553
858.415283,501
858.532959,508
858.650574,526
858.768188,530
858.885803,531
859.003479,515
859.121094,537
859.23877,522
859.356384,513
859.473999,527
859.591675,510
859.709229,527
859.826843,523
859.944458,523
860.062012,503
860.179626,509
860.297302,508
860.414856,519
860.532471,513
860.650024,521
860.767639,504
860.885193,510
861.002808,512
861.120361,495
861.237976,505
861.35553,521
861.473022,507
861.590698,504
861.708191,506
861.825745,526
861.943298,516
862.060852,497
862.178406,507
862.295959,495
862.413513,497
862.531006,490
862.64856,491
862.766113,476
862.883667,492
863.00116,487
863.118713,479
863.236206,493
863.353699,485
863.471252,489
863.588745,513
863.706177,493
863.82373,511
863.941162,509
864.058716,502
864.176208,515
864.29364,478
864.411194,503
864.528687,497
864.646118,487
864.763611,502
864.881042,486
864.998535,508
865.116028,506
865.233459,484
865.350891,478
865.468384,484
865.585754,480
865.703308,481
865.820679,484
865.938171,486
866.055542,494
866.173035,487
866.290466,505
866.407837,492
866.52533,503
866.6427,510
866.760071,468
866.877563,500
866.994934,491
867.112305,488
867.229736,502
867.347107,488
867.464539,503
867.58197,495
867.699341,501
867.81665,509
867.934082,479
868.051453,508
868.168823,489
868.286194,514
868.403564,473
868.520935,516
868.638306,479
868.755676,487
868.872986,510
868.990295,525
869.107727,498
869.225037,527
869.342346,518
869.459717,513
869.577026,519
869.694336,521
869.811707,485
869.929016,523
870.046326,515
870.163635,514
870.280945,532
870.398254,511
870.515564,537
870.632812,531
870.750183,549
870.867432,527
870.984741,528
871.102051,543
871.219299,527
871.336609,521
871.453918,518
871.571106,539
871.688416,542
871.805664,519
871.922852,540
872.040222,534
872.157471,542
872.274719,522
872.391968,540
872.509155,570
872.626465,510
872.743652,534
872.860962,525
872.978149,535
873.095337,538
873.212646,544
873.329834,499
873.44696,536
873.564209,515
873.681396,512
873.798645,516
873.915894,541
874.03302,513
874.150208,535
874.267456,533
874.384583,533
874.501831,542
874.618958,515
874.736145,538
874.853333,541
874.970459,547
875.087646,538
875.204834,522
875.32196,554
875.439148,543
875.556274,536
875.673401,523
875.790527,513
875.907715,519
876.024841,491
876.141968,500
876.259094,525
876.376282,497
876.493347,504
876.610474,518
876.7276,513
876.844727,501
876.961853,515
877.078918,512
877.195984,509
877.313171,524
877.430237,505
877.547302,514
877.664368,503
877.781433,500
877.898499,491
878.015625,520
878.13269,508
878.249695,509
878.366821,522
878.483887,493
878.600952,497
878.717957,506
878.834961,511
878.952087,495
879.069092,483
879.186157,501
879.303162,489
879.420227,487
879.537231,499
879.654236,486
879.77124,497
879.888306,472
880.005249,509
880.122314,492
880.239319,492
880.356323,473
880.473328,491
880.590271,475
880.707275,477
880.824341,491
880.941284,504
881.058228,481
881.175232,474
881.292236,491
881.40918,486
881.526123,486
881.643066,485
881.760071,490
881.877014,496
881.993958,503
882.11084,491
882.227783,473
882.344727,475
882.46167,491
882.578613,498
882.695618,497
882.812439,485
882.929382,516
883.046326,492
883.163208,477
883.280151,485
883.397034,489
883.513916,498
883.630798,486
883.747742,488
883.864563,506
883.981506,500
884.098389,501
884.21521,497
884.332153,500
884.448975,503
884.565796,496
884.682678,508
884.7995,521
884.916443,545
885.033264,527
885.150085,536
885.266968,556
885.383789,576
885.500671,585
885.617493,569
885.734314,585
885.851196,570
885.967896,575
886.084717,583
886.201599,557
886.318359,572
886.435181,578
886.552002,585
886.668762,582
886.785645,544
886.902344,552
887.019165,563
887.135925,550
887.252747,538
887.369446,538
887.486267,539
887.603027,540
887.719788,512
887.836548,516
887.953247,505
888.070068,517
888.186829,492
888.303528,498
888.420288,502
888.536987,485
888.653687,478
888.770447,501
888.887146,464
889.003967,468
889.120667,477
889.237305,484
889.354065,473
889.470703,487
889.587463,457
889.704163,503
889.820862,479
889.937561,463
890.054199,475
890.170837,468
890.287598,479
890.404236,475
890.520874,453
890.637634,471
890.754211,469
890.87085,460
890.987549,450
891.104187,486
891.220886,467
891.337463,472
891.454102,492
891.57074,475
891.687378,480
891.804077,488
891.920654,492
892.037231,492
892.15387,483
892.270447,482
892.387085,492
892.503723,489
892.6203,487
892.736877,469
892.853516,488
892.970032,457
893.08667,483
893.203186,467
893.319763,476
893.43634,470
893.552917,472
893.669556,460
893.786011,487
893.902588,468
894.019165,466
894.135681,458
894.252197,477
894.368835,476
894.485291,469
894.601868,478
894.718384,487
894.8349,477
894.951355,492
895.067932,465
895.184448,462
895.300964,485
895.417419,487
895.533936,486
895.650452,485
895.766907,469
895.883423,488
895.999878,481
896.116333,475
896.232849,452
896.349304,464
896.465759,467
896.582214,486
896.698669,460
896.815125,459
896.931641,468
897.048035,475
897.164551,464
897.280884,465
897.397339,456
897.513794,471
897.630249,459
897.746582,478
897.863098,459
897.979431,477
898.095886,480
898.212341,488
898.328674,478
898.445129,472
898.561462,454
898.677795,480
898.794312,483
898.910645,470
899.026978,480
899.143433,475
899.259766,477
899.37616,483
899.492493,479
899.608765,495
899.725159,494
899.841553,488
899.957947,491
900.07428,488
900.190552,476
900.306946,483
900.423157,479
900.53949,479
900.655884,471
900.772156,452
900.888489,484
901.004822,477
901.121033,468
901.237366,487
901.353699,484
901.46991,483
901.586304,496
901.702515,486
901.818787,498
901.93512,495
902.051331,496
902.167603,500
902.283875,501
902.400085,503
902.516418,523
902.632629,527
902.74884,533
902.865112,519
902.981384,550
903.097595,546
903.213867,512
903.330017,520
903.446289,504
903.5625,514
903.67865,507
903.794922,523
903.911072,518
904.027344,507
904.143494,508
904.259705,494
904.375916,484
904.492065,498
904.608215,498
904.724426,497
904.840576,481
904.956726,485
905.072876,481
905.189087,493
905.305176,473
905.421387,491
905.537537,478
905.653687,518
905.769775,482
905.885925,489
906.002014,497
906.118164,487
906.234314,472
906.350403,478
906.466492,451
906.582642,476
906.69873,489
906.814758,476
906.930908,489
907.046936,475
907.163086,467
907.279175,472
907.395264,468
907.511353,469
907.62738,452
907.743408,486
907.859497,456
907.975525,475
908.091553,476
908.207703,471
908.32373,481
908.439758,465
908.555786,471
908.671814,454
908.787842,458
908.90387,467
909.019775,467
909.135864,469
909.251892,451
909.367859,480
909.483826,494
909.599854,493
909.715881,486
909.831848,463
909.947815,463
910.063782,479
910.179749,456
910.295776,476
910.411743,477
910.527649,471
910.643616,471
910.759583,459
910.875488,474
910.991455,478
911.107361,462
911.223267,491
911.339294,475
911.4552,482
911.571106,472
911.687073,470
911.802979,460
911.918823,474
912.034729,464
912.150635,467
912.266602,447
912.382446,472
912.498352,455
912.614197,472
912.730103,485
912.846008,460
