792.44574,642
792.56488,703
792.68396,708
792.80304,705
792.92218,653
793.041199,620
793.160339,643
793.279419,626
793.398499,626
793.517578,643
793.636658,633
793.755737,626
793.874817,638
793.993896,632
794.112976,609
794.232056,628
794.351074,619
794.470215,630
794.589233,598
794.708313,622
794.827393,602
794.946411,626
795.065552,608
795.18457,605
795.303589,595
795.422668,623
795.541687,609
795.660767,599
795.779846,594
795.898865,609
796.017883,601
796.136963,599
796.255981,598
796.375061,581
796.49408,619
796.613037,609
796.732117,590
796.851135,583
796.970154,580
797.089233,595
797.208191,586
797.327271,601
797.446228,603
797.565186,608
797.684265,589
797.803223,589
797.922241,580
798.04126,604
798.160278,589
798.279297,586
798.398315,587
798.517273,573
798.636292,577
798.75531,625
798.874268,591
798.993286,564
799.112244,585
799.231323,562
799.350281,587
799.469238,585
799.588257,578
799.707153,571
799.826111,587
799.945129,597
800.064087,567
800.183044,577
800.302063,584
800.421021,598
800.539978,560
800.658936,604
800.777893,593
800.896912,583
801.015747,598
801.134705,586
801.253723,595
801.37262,574
801.491638,580
801.610535,574
801.729492,612
801.84845,593
801.967407,585
802.086243,576
802.205261,590
802.324158,586
802.443115,581
802.562073,597
802.680969,598
802.799927,600
802.918762,592
803.037659,589
803.156677,612
803.275574,594
803.39447,586
803.513428,577
803.632263,589
803.751221,588
803.870117,607
803.989014,598
804.107971,620
804.226746,579
804.345642,608
804.4646,588
804.583496,596
804.702393,624
804.821228,594
804.940125,608
805.059021,609
805.177917,622
805.296814,586
805.415649,613
805.534546,617
805.653442,597
805.772278,593
805.891113,612
806.01001,608
806.128906,612
806.247742,610
806.366577,623
806.485413,601
806.604309,594
806.723145,598
806.84198,605
806.960876,609
807.079712,606
807.198486,611
807.317383,609
807.436218,611
807.554993,621
807.673889,605
807.792725,607
807.91156,586
808.030396,637
808.14917,593
808.268005,613
808.386841,610
808.505676,618
808.624451,624
808.743286,641
808.862122,611
808.980896,603
809.099731,620
809.218506,632
809.337341,601
809.456116,598
809.57489,603
809.693726,619
809.8125,654
809.931274,639
810.050049,623
810.168884,613
810.287659,618
810.406372,617
810.525269,607
810.643982,612
810.762756,655
810.881531,612
811.000305,645
811.11908,638
811.237854,627
811.356567,636
811.475403,635
811.594116,648
811.71283,616
811.831604,640
811.950378,623
812.069153,616
812.187927,656
812.30658,604
812.425415,623
812.544128,633
812.662781,628
812.781616,631
812.900269,618
813.019043,626
813.137756,625
813.256531,633
813.375244,628
813.493896,616
813.612671,628
813.731384,621
813.850037,604
813.96875,624
814.087524,617
814.206238,618
814.324951,621
814.443604,606
814.562256,623
814.68103,605
814.799683,640
814.918335,606
815.037109,606
815.155762,609
815.274475,594
815.393188,622
815.511841,606
815.630554,621
815.749146,630
815.867859,617
815.986572,605
816.105164,596
816.223877,605
816.342529,580
816.461182,615
816.579895,594
816.698486,606
816.817139,642
816.935791,616
817.054504,609
817.173096,604
817.291748,608
817.4104,604
817.529053,599
817.647644,585
817.766235,574
817.884949,572
818.00354,573
818.122192,562
818.240845,574
818.359436,546
818.478088,560
818.59668,543
818.715271,545
818.833923,530
818.952515,557
819.071106,527
819.189758,525
819.30835,500
819.426941,513
819.545532,499
819.664124,507
819.782715,509
819.901306,503
820.019897,494
820.138489,498
820.25708,498
820.375671,499
820.494202,474
820.612732,496
820.731384,492
820.849915,502
820.968506,494
821.087097,480
821.205627,494
821.324158,506
821.442749,471
821.561279,482
821.679871,495
821.798401,463
821.916931,494
822.035461,491
822.154053,468
822.272583,504
822.391174,476
822.509583,475
822.628174,482
822.746704,496
822.865234,490
822.983765,487
823.102295,479
823.220825,476
823.339294,471
823.457825,494
823.576355,484
823.694824,493
823.813354,470
823.931885,482
824.050354,489
824.168884,485
824.287354,489
824.405823,481
824.524353,488
824.642822,504
824.761353,490
824.879822,483
824.998291,467
825.116699,506
825.235291,488
825.353699,485
825.472168,492
825.590637,483
825.709106,497
825.827576,478
825.946045,471
826.064453,475
826.182983,474
826.301392,474
826.4198,464
826.53833,474
826.656738,480
826.775208,476
826.893677,461
827.012024,474
827.130493,472
827.248962,458
827.36731,485
827.485779,489
827.604248,462
827.722595,478
827.841064,462
827.959412,458
828.077942,478
828.196289,448
828.314636,456
828.433105,461
828.551514,448
828.669861,461
828.78833,466
828.906677,462
829.025085,465
829.143433,465
829.261841,451
829.38031,466
829.498657,462
829.617004,455
829.735413,466
829.85376,481
829.972107,443
830.090515,450
830.208862,481
830.327209,455
830.445557,445
830.563904,461
830.682312,460
830.800659,455
830.919006,452
831.037354,465
831.155701,463
831.274048,483
831.392395,462
831.51062,453
831.629028,460
831.747314,483
831.865662,451
831.984009,464
832.102356,466
832.220642,464
832.338928,474
832.457275,472
832.575623,461
832.693909,453
832.812134,470
832.930481,444
833.048828,450
833.167114,451
833.2854,462
833.403687,482
833.521973,464
833.640259,454
833.758545,466
833.876831,454
833.995056,461
834.113281,476
834.231628,446
834.349915,463
834.468201,465
834.586426,473
834.704651,464
834.822998,468
834.941162,467
835.059448,466
835.177673,480
835.295959,465
835.414246,457
835.53241,484
835.650635,450
835.768921,473
835.887146,456
836.005371,461
836.123596,443
836.241821,459
836.360046,462
836.478271,467
836.596497,481
836.714722,473
836.832886,459
836.95105,492
837.069336,466
837.1875,485
837.305725,488
837.423889,471
837.542053,483
837.660339,479
837.778503,454
837.896667,473
838.014832,487
838.132996,478
838.25116,478
838.369385,479
838.487488,482
838.605713,487
838.723877,475
838.84198,478
838.960205,476
839.078308,473
839.196472,469
839.314636,470
839.4328,487
839.550964,471
839.669067,478
839.787231,479
839.905396,484
840.023499,484
840.141602,447
840.259766,468
840.377869,472
840.495972,481
840.614136,458
840.732239,468
840.850342,488
840.968445,461
841.086548,471
841.204651,480
841.322754,476
841.440918,480
841.55896,477
841.677002,454
841.795166,464
841.913208,468
842.031311,462
842.149353,475
842.267456,482
842.385498,459
842.503601,466
842.621643,470
842.739746,471
842.857788,476
842.97583,465
843.093933,466
843.211975,466
843.330017,451
843.44812,478
843.566101,452
843.684204,448
843.802246,460
843.920227,451
844.038269,478
844.156311,439
844.274292,470
844.392395,449
844.510376,442
844.628357,444
844.74646,462
844.864441,469
844.982422,461
845.100403,455
845.218384,461
845.336426,433
845.454468,459
845.572449,440
845.69043,448
845.808411,447
845.926453,449
846.044373,465
846.162354,458
846.280396,435
846.398315,437
846.516296,444
846.634216,457
846.752197,462
846.870178,440
846.988098,437
847.106079,465
847.22406,446
847.34198,488
847.4599,459
847.577881,454
847.695801,443
847.813782,446
847.931641,459
848.049561,457
848.167603,458
848.285461,472
848.403381,452
848.521362,455
848.639221,454
848.75708,453
848.875,442
848.99292,435
849.110901,456
849.22876,441
849.34668,451
849.464539,448
849.582458,451
849.700317,448
849.818176,455
849.936096,453
850.053955,449
850.171875,441
850.289673,459
850.407593,454
850.525452,450
850.643311,464
850.761169,447
850.878967,459
850.996887,436
851.114746,460
851.232544,467
851.350403,454
851.468262,458
851.58606,457
851.703979,466
851.821777,453
851.939636,462
852.057434,443
852.175232,462
852.293091,436
852.410889,422
852.528687,448
852.646545,452
852.764343,454
852.88208,480
852.999939,474
853.117676,435
853.235535,449
853.353271,432
853.471069,456
853.588928,444
853.706604,453
853.824402,457
853.9422,442
854.059998,447
854.177734,457
854.295532,463
854.413269,461
854.531006,465
854.648804,463
854.766541,473
854.884277,449
855.002014,473
855.119751,456
855.237549,473
855.355225,469
855.473022,457
855.590698,462
855.708435,471
855.826172,457
855.943848,478
856.061646,453
856.179321,448
856.296997,468
856.414795,454
856.53241,463
856.650085,457
856.767822,483
856.885559,458
857.003174,459
857.120911,479
857.238586,465
857.356201,463
857.473938,467
857.591614,456
857.709351,476
857.826965,461
857.944641,468
858.062317,457
858.179993,455
858.297668,469
858.415283,451
858.532959,457
858.650574,495
858.768188,464
858.885803,458
859.003479,461
859.121094,453
859.23877,465
859.356384,457
859.473999,465
859.591675,442
859.709229,457
859.826843,457
859.944458,470
860.062012,462
860.179626,476
860.297302,463
860.414856,453
860.532471,465
860.650024,458
860.767639,464
860.885193,475
861.002808,462
861.120361,448
861.237976,448
861.35553,444
861.473022,456
861.590698,441
861.708191,454
861.825745,461
861.943298,452
862.060852,443
862.178406,469
862.295959,450
862.413513,442
862.531006,465
862.64856,465
862.766113,456
862.883667,460
863.00116,464
863.118713,456
863.236206,477
863.353699,478
863.471252,451
863.588745,460
863.706177,450
863.82373,462
863.941162,448
864.058716,444
864.176208,479
864.29364,461
864.411194,463
864.528687,461
864.646118,472
864.763611,461
864.881042,453
864.998535,457
865.116028,439
865.233459,447
865.350891,466
865.468384,462
865.585754,455
865.703308,454
865.820679,459
865.938171,461
866.055542,457
866.173035,457
866.290466,467
866.407837,466
866.52533,448
866.6427,452
866.760071,453
866.877563,446
866.994934,457
867.112305,448
867.229736,455
867.347107,457
867.464539,462
867.58197,462
867.699341,463
867.81665,471
867.934082,457
868.051453,463
868.168823,457
868.286194,434
868.403564,451
868.520935,465
868.638306,451
868.755676,461
868.872986,470
868.990295,482
869.107727,458
869.225037,465
869.342346,456
869.459717,456
869.577026,459
869.694336,462
869.811707,454
869.929016,454
870.046326,456
870.163635,470
870.280945,454
870.398254,474
870.515564,459
870.632812,480
870.750183,457
870.867432,454
870.984741,465
871.102051,470
871.219299,465
871.336609,446
871.453918,470
871.571106,481
871.688416,441
871.805664,452
871.922852,456
872.040222,456
872.157471,453
872.274719,446
872.391968,457
872.509155,458
872.626465,448
872.743652,468
872.860962,459
872.978149,465
873.095337,465
873.212646,445
873.329834,461
873.44696,457
873.564209,456
873.681396,459
873.798645,460
873.915894,443
874.03302,467
874.150208,464
874.267456,459
874.384583,468
874.501831,464
874.618958,454
874.736145,457
874.853333,440
874.970459,454
875.087646,452
875.204834,444
875.32196,448
875.439148,454
875.556274,462
875.673401,450
875.790527,449
875.907715,447
876.024841,442
876.141968,470
876.259094,451
876.376282,454
876.493347,463
876.610474,455
876.7276,456
876.844727,449
876.961853,458
877.078918,454
877.195984,448
877.313171,464
877.430237,444
877.547302,459
877.664368,461
877.781433,431
877.898499,444
878.015625,471
878.13269,470
878.249695,485
878.366821,470
878.483887,455
878.600952,468
878.717957,453
878.834961,451
878.952087,460
879.069092,459
879.186157,465
879.303162,464
879.420227,454
879.537231,458
879.654236,464
879.77124,457
879.888306,433
880.005249,447
880.122314,436
880.239319,444
880.356323,462
880.473328,467
880.590271,441
880.707275,447
880.824341,466
880.941284,457
881.058228,457
881.175232,443
881.292236,470
881.40918,466
881.526123,457
881.643066,453
881.760071,461
881.877014,431
881.993958,444
882.11084,454
882.227783,458
882.344727,451
882.46167,429
882.578613,474
882.695618,438
882.812439,482
882.929382,455
883.046326,442
883.163208,447
883.280151,443
883.397034,435
883.513916,460
883.630798,466
883.747742,459
883.864563,457
883.981506,451
884.098389,466
884.21521,438
884.332153,466
884.448975,434
884.565796,457
884.682678,457
884.7995,470
884.916443,468
885.033264,471
885.150085,469
885.266968,470
885.383789,472
885.500671,489
885.617493,472
885.734314,491
885.851196,471
885.967896,478
886.084717,469
886.201599,449
886.318359,472
886.435181,465
886.552002,465
886.668762,458
886.785645,469
886.902344,461
887.019165,471
887.135925,458
887.252747,453
887.369446,471
887.486267,480
887.603027,458
887.719788,463
887.836548,443
887.953247,451
888.070068,473
888.186829,450
888.303528,443
888.420288,474
888.536987,454
888.653687,472
888.770447,450
888.887146,437
889.003967,456
889.120667,457
889.237305,472
889.354065,472
889.470703,458
889.587463,465
889.704163,464
889.820862,454
889.937561,447
890.054199,482
890.170837,456
890.287598,452
890.404236,460
890.520874,461
890.637634,455
890.754211,459
890.87085,469
890.987549,447
891.104187,461
891.220886,446
891.337463,459
891.454102,476
891.57074,464
891.687378,444
891.804077,449
891.920654,443
892.037231,445
892.15387,437
892.270447,460
892.387085,470
892.503723,461
892.6203,468
892.736877,466
892.853516,468
892.970032,465
893.08667,493
893.203186,466
893.319763,458
893.43634,454
893.552917,451
893.669556,452
893.786011,457
893.902588,459
894.019165,468
894.135681,440
894.252197,444
894.368835,456
894.485291,466
894.601868,464
894.718384,462
894.8349,452
894.951355,458
895.067932,455
895.184448,457
895.300964,480
895.417419,471
895.533936,454
895.650452,480
895.766907,459
895.883423,460
895.999878,469
896.116333,472
896.232849,451
896.349304,481
896.465759,457
896.582214,458
896.698669,438
896.815125,462
896.931641,457
897.048035,473
897.164551,483
897.280884,475
897.397339,466
897.513794,463
897.630249,469
897.746582,467
897.863098,453
897.979431,453
898.095886,467
898.212341,456
898.328674,464
898.445129,473
898.561462,465
898.677795,463
898.794312,454
898.910645,467
899.026978,470
899.143433,463
899.259766,469
899.37616,471
899.492493,465
899.608765,467
899.725159,459
899.841553,463
899.957947,461
900.07428,482
900.190552,473
900.306946,468
900.423157,462
900.53949,470
900.655884,460
900.772156,471
900.888489,468
901.004822,463
901.121033,464
901.237366,472
901.353699,460
901.46991,473
901.586304,465
901.702515,466
901.818787,462
901.93512,457
902.051331,466
902.167603,483
902.283875,456
902.400085,463
902.516418,461
902.632629,461
902.74884,451
902.865112,466
902.981384,473
903.097595,476
903.213867,464
903.330017,460
903.446289,466
903.5625,472
903.67865,482
903.794922,478
903.911072,484
904.027344,483
904.143494,464
904.259705,467
904.375916,478
904.492065,459
904.608215,474
904.724426,466
904.840576,462
904.956726,466
905.072876,482
905.189087,457
905.305176,458
905.421387,457
905.537537,448
905.653687,453
905.769775,458
905.885925,460
906.002014,462
906.118164,457
906.234314,456
906.350403,475
906.466492,465
906.582642,465
906.69873,463
906.814758,470
906.930908,467
907.046936,466
907.163086,476
907.279175,475
907.395264,448
907.511353,480
907.62738,474
907.743408,477
907.859497,462
907.975525,485
908.091553,478
908.207703,482
908.32373,462
908.439758,470
908.555786,461
908.671814,468
908.787842,460
908.90387,477
909.019775,464
909.135864,482
909.251892,466
909.367859,457
909.483826,470
909.599854,476
909.715881,470
909.831848,471
909.947815,463
910.063782,476
910.179749,455
910.295776,463
910.411743,462
910.527649,458
910.643616,470
910.759583,470
910.875488,462
910.991455,453
911.107361,467
911.223267,471
911.339294,455
911.4552,464
911.571106,447
911.687073,454
911.802979,477
911.918823,469
912.034729,477
912.150635,468
912.266602,475
912.382446,468
912.498352,453
912.614197,453
912.730103,468
912.846008,467
792.44574,675
792.56488,696
792.68396,747
792.80304,704
792.92218,680
793.041199,623
793.160339,644
793.279419,629
793.398499,645
793.517578,617
793.636658,630
793.755737,651
793.874817,649
793.993896,635
794.112976,654
794.232056,622
794.351074,603
794.470215,622
794.589233,624
794.708313,641
794.827393,607
794.946411,625
795.065552,625
795.18457,593
795.303589,617
795.422668,618
795.541687,608
795.660767,595
795.779846,602
795.898865,600
796.017883,603
796.136963,613
796.255981,592
796.375061,615
796.49408,611
796.613037,597
796.732117,603
796.851135,600
796.970154,594
797.089233,591
797.208191,586
797.327271,587
797.446228,582
797.565186,596
797.684265,611
797.803223,587
797.922241,588
798.04126,608
798.160278,601
798.279297,594
798.398315,568
798.517273,578
798.636292,603
798.75531,602
798.874268,581
798.993286,569
799.112244,597
799.231323,587
799.350281,598
799.469238,585
799.588257,575
799.707153,574
799.826111,594
799.945129,606
800.064087,585
800.183044,586
800.302063,583
800.421021,591
800.539978,587
800.658936,569
800.777893,571
800.896912,594
801.015747,618
801.134705,584
801.253723,608
801.37262,566
801.491638,581
801.610535,576
801.729492,573
801.84845,578
801.967407,592
802.086243,584
802.205261,595
802.324158,592
802.443115,568
802.562073,603
802.680969,593
802.799927,603
802.918762,615
803.037659,603
803.156677,567
803.275574,611
803.39447,592
803.513428,594
803.632263,595
803.751221,601
803.870117,604
803.989014,603
804.107971,590
804.226746,595
804.345642,596
804.4646,601
804.583496,596
804.702393,600
804.821228,608
804.940125,596
805.059021,588
805.177917,622
805.296814,589
805.415649,600
805.534546,621
805.653442,613
805.772278,604
805.891113,620
806.01001,633
806.128906,615
806.247742,609
806.366577,602
806.485413,605
806.604309,640
806.723145,614
806.84198,600
806.960876,600
807.079712,634
807.198486,621
807.317383,613
807.436218,578
807.554993,637
807.673889,614
807.792725,625
807.91156,630
808.030396,625
808.14917,626
808.268005,603
808.386841,603
808.505676,615
808.624451,612
808.743286,604
808.862122,620
808.980896,617
809.099731,608
809.218506,640
809.337341,617
809.456116,595
809.57489,638
809.693726,635
809.8125,626
809.931274,632
810.050049,623
810.168884,632
810.287659,622
810.406372,629
810.525269,639
810.643982,645
810.762756,606
810.881531,631
811.000305,610
811.11908,619
811.237854,620
811.356567,611
811.475403,661
811.594116,629
811.71283,649
811.831604,629
811.950378,624
812.069153,624
812.187927,650
812.30658,647
812.425415,632
812.544128,619
812.662781,621
812.781616,619
812.900269,610
813.019043,627
813.137756,626
813.256531,602
813.375244,601
813.493896,634
813.612671,626
813.731384,622
813.850037,652
813.96875,623
814.087524,607
814.206238,620
814.324951,626
814.443604,605
814.562256,608
814.68103,625
814.799683,618
814.918335,620
815.037109,615
815.155762,637
815.274475,602
815.393188,620
815.511841,617
815.630554,606
815.749146,614
815.867859,593
815.986572,593
816.105164,621
816.223877,589
816.342529,612
816.461182,602
816.579895,598
816.698486,601
816.817139,621
816.935791,620
817.054504,638
817.173096,627
817.291748,623
817.4104,621
817.529053,583
817.647644,612
817.766235,583
817.884949,544
818.00354,565
818.122192,548
818.240845,557
818.359436,553
818.478088,571
818.59668,539
818.715271,558
818.833923,510
818.952515,543
819.071106,511
819.189758,502
819.30835,522
819.426941,515
819.545532,514
819.664124,503
819.782715,517
819.901306,502
820.019897,497
820.138489,506
820.25708,497
820.375671,516
820.494202,509
820.612732,498
820.731384,505
820.849915,499
820.968506,496
821.087097,485
821.205627,500
821.324158,498
821.442749,479
821.561279,494
821.679871,488
821.798401,492
821.916931,489
822.035461,482
822.154053,493
822.272583,491
822.391174,508
822.509583,482
822.628174,510
822.746704,495
822.865234,475
822.983765,500
823.102295,495
823.220825,485
823.339294,491
823.457825,475
823.576355,506
823.694824,488
823.813354,478
823.931885,486
824.050354,489
824.168884,498
824.287354,499
824.405823,493
824.524353,483
824.642822,480
824.761353,511
824.879822,466
824.998291,493
825.116699,482
825.235291,484
825.353699,498
825.472168,490
825.590637,479
825.709106,482
825.827576,470
825.946045,481
826.064453,476
826.182983,477
826.301392,492
826.4198,483
826.53833,474
826.656738,469
826.775208,462
826.893677,477
827.012024,486
827.130493,470
827.248962,464
827.36731,458
827.485779,470
827.604248,466
827.722595,456
827.841064,470
827.959412,482
828.077942,462
828.196289,457
828.314636,462
828.433105,466
828.551514,470
828.669861,458
828.78833,468
828.906677,460
829.025085,458
829.143433,479
829.261841,470
829.38031,453
829.498657,463
829.617004,480
829.735413,464
829.85376,472
829.972107,464
830.090515,472
830.208862,456
830.327209,472
830.445557,460
830.563904,471
830.682312,490
830.800659,458
830.919006,488
831.037354,488
831.155701,466
831.274048,468
831.392395,471
831.51062,464
831.629028,463
831.747314,481
831.865662,458
831.984009,449
832.102356,445
832.220642,472
832.338928,453
832.457275,465
832.575623,452
832.693909,481
832.812134,447
832.930481,482
833.048828,467
833.167114,464
833.2854,460
833.403687,466
833.521973,481
833.640259,462
833.758545,453
833.876831,473
833.995056,483
834.113281,465
834.231628,458
834.349915,463
834.468201,450
834.586426,490
834.704651,444
834.822998,483
834.941162,476
835.059448,460
835.177673,475
835.295959,452
835.414246,477
835.53241,472
835.650635,466
835.768921,447
835.887146,470
836.005371,484
836.123596,451
836.241821,466
836.360046,468
836.478271,473
836.596497,475
836.714722,471
836.832886,453
836.95105,471
837.069336,481
837.1875,486
837.305725,471
837.423889,470
837.542053,491
837.660339,501
837.778503,478
837.896667,466
838.014832,489
838.132996,459
838.25116,476
838.369385,473
838.487488,465
838.605713,472
838.723877,471
838.84198,482
838.960205,488
839.078308,467
839.196472,451
839.314636,490
839.4328,498
839.550964,459
839.669067,472
839.787231,486
839.905396,475
840.023499,499
840.141602,459
840.259766,478
840.377869,469
840.495972,489
840.614136,460
840.732239,468
840.850342,465
840.968445,484
841.086548,491
841.204651,480
841.322754,460
841.440918,454
841.55896,468
841.677002,468
841.795166,465
841.913208,468
842.031311,454
842.149353,472
842.267456,465
842.385498,466
842.503601,460
842.621643,475
842.739746,454
842.857788,466
842.97583,461
843.093933,451
843.211975,459
843.330017,486
843.44812,455
843.566101,473
843.684204,465
843.802246,476
843.920227,449
844.038269,464
844.156311,451
844.274292,463
844.392395,438
844.510376,459
844.628357,457
844.74646,471
844.864441,484
844.982422,459
845.100403,443
845.218384,467
845.336426,455
845.454468,483
845.572449,456
845.69043,462
845.808411,449
845.926453,461
846.044373,471
846.162354,457
846.280396,458
846.398315,445
846.516296,451
846.634216,455
846.752197,444
846.870178,458
846.988098,469
847.106079,454
847.22406,461
847.34198,447
847.4599,469
847.577881,441
847.695801,454
847.813782,481
847.931641,453
848.049561,471
848.167603,462
848.285461,455
848.403381,445
848.521362,462
848.639221,464
848.75708,447
848.875,466
848.99292,484
849.110901,455
849.22876,472
849.34668,458
849.464539,488
849.582458,465
849.700317,447
849.818176,456
849.936096,467
850.053955,451
850.171875,467
850.289673,441
850.407593,446
850.525452,438
850.643311,459
850.761169,457
850.878967,461
850.996887,475
851.114746,462
851.232544,456
851.350403,469
851.468262,450
851.58606,488
851.703979,445
851.821777,458
851.939636,458
852.057434,439
852.175232,454
852.293091,467
852.410889,457
852.528687,454
852.646545,454
852.764343,444
852.88208,443
852.999939,453
853.117676,461
853.235535,453
853.353271,458
853.471069,454
853.588928,452
853.706604,477
853.824402,474
853.9422,471
854.059998,454
854.177734,467
854.295532,460
854.413269,470
854.531006,478
854.648804,473
854.766541,472
854.884277,464
855.002014,461
855.119751,481
855.237549,454
855.355225,469
855.473022,445
855.590698,459
855.708435,459
855.826172,467
855.943848,459
856.061646,473
856.179321,458
856.296997,475
856.414795,475
856.53241,456
856.650085,473
856.767822,488
856.885559,458
857.003174,486
857.120911,456
857.238586,465
857.356201,463
857.473938,466
857.591614,483
857.709351,464
857.826965,463
857.944641,446
858.062317,477
858.179993,478
858.297668,452
858.415283,464
858.532959,449
858.650574,464
858.768188,462
858.885803,467
859.003479,453
859.121094,448
859.23877,474
859.356384,466
859.473999,466
859.591675,458
859.709229,469
859.826843,445
859.944458,470
860.062012,445
860.179626,433
860.297302,454
860.414856,457
860.532471,453
860.650024,453
860.767639,463
860.885193,438
861.002808,456
861.120361,460
861.237976,452
861.35553,467
861.473022,465
861.590698,464
861.708191,451
861.825745,440
861.943298,474
862.060852,460
862.178406,451
862.295959,457
862.413513,453
862.531006,463
862.64856,457
862.766113,451
862.883667,469
863.00116,453
863.118713,480
863.236206,473
863.353699,472
863.471252,467
863.588745,461
863.706177,460
863.82373,451
863.941162,466
864.058716,475
864.176208,466
864.29364,470
864.411194,447
864.528687,465
864.646118,457
864.763611,460
864.881042,468
864.998535,461
865.116028,445
865.233459,452
865.350891,451
865.468384,454
865.585754,435
865.703308,454
865.820679,468
865.938171,457
866.055542,450
866.173035,459
866.290466,459
866.407837,457
866.52533,449
866.6427,453
866.760071,473
866.877563,457
866.994934,451
867.112305,458
867.229736,452
867.347107,467
867.464539,447
867.58197,459
867.699341,449
867.81665,472
867.934082,445
868.051453,468
868.168823,465
868.286194,439
868.403564,470
868.520935,460
868.638306,472
868.755676,466
868.872986,452
868.990295,452
869.107727,467
869.225037,470
869.342346,438
869.459717,441
869.577026,458
869.694336,462
869.811707,460
869.929016,470
870.046326,452
870.163635,448
870.280945,470
870.398254,469
870.515564,448
870.632812,470
870.750183,465
870.867432,469
870.984741,455
871.102051,474
871.219299,469
871.336609,474
871.453918,445
871.571106,467
871.688416,459
871.805664,469
871.922852,463
872.040222,467
872.157471,471
872.274719,452
872.391968,448
872.509155,457
872.626465,457
872.743652,481
872.860962,466
872.978149,464
873.095337,456
873.212646,470
873.329834,454
873.44696,472
873.564209,463
873.681396,446
873.798645,454
873.915894,480
874.03302,471
874.150208,460
874.267456,438
874.384583,466
874.501831,455
874.618958,461
874.736145,461
874.853333,468
874.970459,459
875.087646,448
875.204834,465
875.32196,443
875.439148,458
875.556274,445
875.673401,466
875.790527,467
875.907715,470
876.024841,453
876.141968,461
876.259094,459
876.376282,468
876.493347,464
876.610474,451
876.7276,449
876.844727,463
876.961853,478
877.078918,464
877.195984,441
877.313171,453
877.430237,448
877.547302,456
877.664368,468
877.781433,469
877.898499,459
878.015625,459
878.13269,479
878.249695,460
878.366821,472
878.483887,454
878.600952,447
878.717957,444
878.834961,449
878.952087,472
879.069092,450
879.186157,453
879.303162,462
879.420227,449
879.537231,459
879.654236,447
879.77124,457
879.888306,461
880.005249,450
880.122314,455
880.239319,471
880.356323,458
880.473328,456
880.590271,447
880.707275,477
880.824341,467
880.941284,457
881.058228,471
881.175232,453
881.292236,461
881.40918,474
881.526123,470
881.643066,447
881.760071,444
881.877014,453
881.993958,448
882.11084,459
882.227783,439
882.344727,469
882.46167,462
882.578613,463
882.695618,452
882.812439,480
882.929382,455
883.046326,471
883.163208,442
883.280151,467
883.397034,458
883.513916,457
883.630798,451
883.747742,460
883.864563,453
883.981506,452
884.098389,456
884.21521,467
884.332153,483
884.448975,445
884.565796,470
884.682678,477
884.7995,471
884.916443,485
885.033264,470
885.150085,470
885.266968,466
885.383789,468
885.500671,467
885.617493,462
885.734314,478
885.851196,462
885.967896,485
886.084717,478
886.201599,469
886.318359,488
886.435181,466
886.552002,479
886.668762,468
886.785645,481
886.902344,464
887.019165,466
887.135925,442
887.252747,459
887.369446,457
887.486267,465
887.603027,473
887.719788,478
887.836548,454
887.953247,470
888.070068,449
888.186829,460
888.303528,466
888.420288,447
888.536987,468
888.653687,456
888.770447,458
888.887146,449
889.003967,449
889.120667,470
889.237305,453
889.354065,461
889.470703,464
889.587463,446
889.704163,462
889.820862,461
889.937561,446
890.054199,461
890.170837,464
890.287598,455
890.404236,453
890.520874,473
890.637634,466
890.754211,454
890.87085,461
890.987549,478
891.104187,495
891.220886,445
891.337463,470
891.454102,501
891.57074,458
891.687378,467
891.804077,453
891.920654,453
892.037231,455
892.15387,478
892.270447,467
892.387085,455
892.503723,454
892.6203,474
892.736877,461
892.853516,472
892.970032,458
893.08667,464
893.203186,478
893.319763,462
893.43634,465
893.552917,466
893.669556,448
893.786011,480
893.902588,478
894.019165,468
894.135681,475
894.252197,462
894.368835,465
894.485291,489
894.601868,467
894.718384,455
894.8349,480
894.951355,482
895.067932,453
895.184448,469
895.300964,453
895.417419,462
895.533936,460
895.650452,456
895.766907,449
895.883423,448
895.999878,464
896.116333,463
896.232849,462
896.349304,451
896.465759,448
896.582214,469
896.698669,458
896.815125,457
896.931641,446
897.048035,460
897.164551,469
897.280884,465
897.397339,469
897.513794,479
897.630249,459
897.746582,470
897.863098,470
897.979431,434
898.095886,458
898.212341,456
898.328674,465
898.445129,476
898.561462,470
898.677795,463
898.794312,459
898.910645,438
899.026978,485
899.143433,476
899.259766,473
899.37616,447
899.492493,470
899.608765,478
899.725159,460
899.841553,474
899.957947,466
900.07428,482
900.190552,474
900.306946,489
900.423157,466
900.53949,457
900.655884,486
900.772156,471
900.888489,464
901.004822,459
901.121033,473
901.237366,483
901.353699,457
901.46991,459
901.586304,459
901.702515,463
901.818787,465
901.93512,472
902.051331,467
902.167603,470
902.283875,471
902.400085,483
902.516418,463
902.632629,459
902.74884,471
902.865112,485
902.981384,457
903.097595,462
903.213867,462
903.330017,479
903.446289,472
903.5625,469
903.67865,466
903.794922,482
903.911072,475
904.027344,490
904.143494,472
904.259705,472
904.375916,474
904.492065,461
904.608215,466
904.724426,469
904.840576,488
904.956726,459
905.072876,464
905.189087,453
905.305176,473
905.421387,466
905.537537,467
905.653687,457
905.769775,468
905.885925,464
906.002014,451
906.118164,480
906.234314,467
906.350403,465
906.466492,470
906.582642,466
906.69873,471
906.814758,483
906.930908,457
907.046936,452
907.163086,457
907.279175,470
907.395264,463
907.511353,463
907.62738,468
907.743408,476
907.859497,458
907.975525,472
908.091553,470
908.207703,476
908.32373,449
908.439758,476
908.555786,439
908.671814,476
908.787842,471
908.90387,470
909.019775,480
909.135864,477
909.251892,464
909.367859,457
909.483826,465
909.599854,469
909.715881,449
909.831848,492
909.947815,470
910.063782,476
910.179749,450
910.295776,483
910.411743,471
910.527649,484
910.643616,471
910.759583,486
910.875488,467
910.991455,473
911.107361,461
911.223267,475
911.339294,478
911.4552,468
911.571106,469
911.687073,456
911.802979,466
911.918823,490
912.034729,488
912.150635,473
912.266602,475
912.382446,454
912.498352,468
912.614197,476
912.730103,511
912.846008,480
792.44574,648
792.56488,690
792.68396,747
792.80304,697
792.92218,654
793.041199,637
793.160339,616
793.279419,686
793.398499,657
793.517578,631
793.636658,651
793.755737,645
793.874817,664
793.993896,656
794.112976,619
794.232056,611
794.351074,639
794.470215,630
794.589233,630
794.708313,597
794.827393,622
794.946411,592
795.065552,635
795.18457,625
795.303589,582
795.422668,627
795.541687,611
795.660767,614
795.779846,609
795.898865,575
796.017883,599
796.136963,598
796.255981,595
796.375061,574
796.49408,589
796.613037,587
796.732117,604
796.851135,583
796.970154,591
797.089233,580
797.208191,581
797.327271,590
797.446228,605
797.565186,585
797.684265,590
797.803223,584
797.922241,609
798.04126,604
798.160278,604
798.279297,596
798.398315,597
798.517273,598
798.636292,579
798.75531,598
798.874268,571
798.993286,582
799.112244,606
799.231323,573
799.350281,570
799.469238,579
799.588257,586
799.707153,589
799.826111,591
799.945129,597
800.064087,581
800.183044,584
800.302063,569
800.421021,601
800.539978,605
800.658936,593
800.777893,609
800.896912,584
801.015747,586
801.134705,595
801.253723,564
801.37262,583
801.491638,572
801.610535,584
801.729492,609
801.84845,602
801.967407,613
802.086243,586
802.205261,589
802.324158,599
802.443115,570
802.562073,594
802.680969,589
802.799927,590
802.918762,590
803.037659,595
803.156677,603
803.275574,586
803.39447,598
803.513428,585
803.632263,606
803.751221,624
803.870117,607
803.989014,592
804.107971,599
804.226746,605
804.345642,604
804.4646,603
804.583496,607
804.702393,598
804.821228,592
804.940125,621
805.059021,585
805.177917,610
805.296814,585
805.415649,585
805.534546,586
805.653442,604
805.772278,582
805.891113,614
806.01001,584
806.128906,606
806.247742,609
806.366577,604
806.485413,616
806.604309,599
806.723145,616
806.84198,619
806.960876,598
807.079712,608
807.198486,631
807.317383,611
807.436218,602
807.554993,617
807.673889,617
807.792725,618
807.91156,630
808.030396,610
808.14917,609
808.268005,626
808.386841,604
808.505676,638
808.624451,617
808.743286,622
808.862122,625
808.980896,619
809.099731,613
809.218506,624
809.337341,630
809.456116,626
809.57489,654
809.693726,615
809.8125,615
809.931274,663
810.050049,617
810.168884,634
810.287659,611
810.406372,631
810.525269,654
810.643982,610
810.762756,597
810.881531,632
811.000305,619
811.11908,602
811.237854,624
811.356567,654
811.475403,641
811.594116,612
811.71283,627
811.831604,628
811.950378,607
812.069153,656
812.187927,638
812.30658,642
812.425415,616
812.544128,596
812.662781,640
812.781616,644
812.900269,610
813.019043,628
813.137756,623
813.256531,625
813.375244,608
813.493896,640
813.612671,638
813.731384,625
813.850037,619
813.96875,626
814.087524,628
814.206238,638
814.324951,621
814.443604,635
814.562256,627
814.68103,619
814.799683,625
814.918335,591
815.037109,620
815.155762,601
815.274475,617
815.393188,619
815.511841,624
815.630554,610
815.749146,600
815.867859,600
815.986572,619
816.105164,607
816.223877,592
816.342529,599
816.461182,593
816.579895,628
816.698486,602
816.817139,598
816.935791,619
817.054504,621
817.173096,623
817.291748,595
817.4104,617
817.529053,614
817.647644,593
817.766235,580
817.884949,579
818.00354,565
818.122192,560
818.240845,564
818.359436,558
818.478088,543
818.59668,521
818.715271,534
818.833923,523
818.952515,536
819.071106,533
819.189758,521
819.30835,541
819.426941,500
819.545532,516
819.664124,513
819.782715,498
819.901306,514
820.019897,491
820.138489,523
820.25708,502
820.375671,506
820.494202,516
820.612732,499
820.731384,488
820.849915,508
820.968506,524
821.087097,514
821.205627,489
821.324158,490
821.442749,470
821.561279,488
821.679871,476
821.798401,512
821.916931,490
822.035461,483
822.154053,482
822.272583,484
822.391174,487
822.509583,467
822.628174,490
822.746704,521
822.865234,477
822.983765,508
823.102295,477
823.220825,477
823.339294,481
823.457825,493
823.576355,482
823.694824,522
823.813354,469
823.931885,499
824.050354,480
824.168884,491
824.287354,511
824.405823,497
824.524353,488
824.642822,498
824.761353,500
824.879822,479
824.998291,486
825.116699,498
825.235291,488
825.353699,487
825.472168,485
825.590637,504
825.709106,485
825.827576,469
825.946045,455
826.064453,477
826.182983,480
826.301392,487
826.4198,471
826.53833,455
826.656738,462
826.775208,471
826.893677,466
827.012024,462
827.130493,473
827.248962,465
827.36731,480
827.485779,463
827.604248,484
827.722595,470
827.841064,463
827.959412,461
828.077942,471
828.196289,445
828.314636,468
828.433105,465
828.551514,469
828.669861,453
828.78833,461
828.906677,462
829.025085,457
829.143433,491
829.261841,480
829.38031,456
829.498657,463
829.617004,471
829.735413,461
829.85376,464
829.972107,460
830.090515,472
830.208862,466
830.327209,454
830.445557,464
830.563904,467
830.682312,475
830.800659,461
830.919006,483
831.037354,478
831.155701,460
831.274048,448
831.392395,464
831.51062,462
831.629028,452
831.747314,458
831.865662,460
831.984009,464
832.102356,455
832.220642,470
832.338928,485
832.457275,465
832.575623,478
832.693909,464
832.812134,458
832.930481,454
833.048828,438
833.167114,461
833.2854,464
833.403687,446
833.521973,473
833.640259,455
833.758545,474
833.876831,472
833.995056,465
834.113281,476
834.231628,477
834.349915,457
834.468201,449
834.586426,485
834.704651,464
834.822998,448
834.941162,474
835.059448,475
835.177673,447
835.295959,473
835.414246,455
835.53241,479
835.650635,455
835.768921,466
835.887146,484
836.005371,460
836.123596,464
836.241821,465
836.360046,473
836.478271,485
836.596497,467
836.714722,470
836.832886,484
836.95105,475
837.069336,460
837.1875,493
837.305725,480
837.423889,501
837.542053,480
837.660339,489
837.778503,486
837.896667,489
838.014832,463
838.132996,476
838.25116,488
838.369385,488
838.487488,465
838.605713,488
838.723877,498
838.84198,480
838.960205,464
839.078308,491
839.196472,475
839.314636,466
839.4328,468
839.550964,473
839.669067,474
839.787231,459
839.905396,474
840.023499,482
840.141602,453
840.259766,483
840.377869,463
840.495972,484
840.614136,452
840.732239,465
840.850342,465
840.968445,483
841.086548,470
841.204651,467
841.322754,461
841.440918,466
841.55896,462
841.677002,472
841.795166,447
841.913208,486
842.031311,464
842.149353,458
842.267456,458
842.385498,462
842.503601,440
842.621643,464
842.739746,482
842.857788,444
842.97583,467
843.093933,468
843.211975,465
843.330017,474
843.44812,487
843.566101,472
843.684204,453
843.802246,449
843.920227,466
844.038269,464
844.156311,463
844.274292,458
844.392395,471
844.510376,473
844.628357,438
844.74646,456
844.864441,456
844.982422,464
845.100403,471
845.218384,447
845.336426,460
845.454468,469
845.572449,444
845.69043,466
845.808411,431
845.926453,458
846.044373,460
846.162354,450
846.280396,458
846.398315,465
846.516296,468
846.634216,431
846.752197,469
846.870178,454
846.988098,450
847.106079,447
847.22406,432
847.34198,455
847.4599,485
847.577881,452
847.695801,446
847.813782,459
847.931641,465
848.049561,452
848.167603,449
848.285461,462
848.403381,426
848.521362,455
848.639221,446
848.75708,451
848.875,475
848.99292,464
849.110901,460
849.22876,458
849.34668,452
849.464539,449
849.582458,469
849.700317,452
849.818176,452
849.936096,460
850.053955,455
850.171875,448
850.289673,470
850.407593,462
850.525452,455
850.643311,457
850.761169,449
850.878967,451
850.996887,443
851.114746,471
851.232544,465
851.350403,442
851.468262,454
851.58606,459
851.703979,448
851.821777,465
851.939636,431
852.057434,455
852.175232,453
852.293091,464
852.410889,451
852.528687,446
852.646545,462
852.764343,472
852.88208,452
852.999939,455
853.117676,451
853.235535,468
853.353271,458
853.471069,468
853.588928,474
853.706604,454
853.824402,460
853.9422,467
854.059998,434
854.177734,465
854.295532,457
854.413269,469
854.531006,478
854.648804,461
854.766541,466
854.884277,455
855.002014,451
855.119751,452
855.237549,471
855.355225,477
855.473022,469
855.590698,446
855.708435,489
855.826172,479
855.943848,460
856.061646,467
856.179321,455
856.296997,446
856.414795,455
856.53241,457
856.650085,448
856.767822,464
856.885559,466
857.003174,476
857.120911,473
857.238586,471
857.356201,448
857.473938,456
857.591614,476
857.709351,466
857.826965,467
857.944641,465
858.062317,458
858.179993,475
858.297668,451
858.415283,472
858.532959,444
858.650574,465
858.768188,458
858.885803,476
859.003479,463
859.121094,454
859.23877,440
859.356384,478
859.473999,471
859.591675,459
859.709229,454
859.826843,457
859.944458,457
860.062012,459
860.179626,467
860.297302,458
860.414856,456
860.532471,474
860.650024,459
860.767639,446
860.885193,462
861.002808,460
861.120361,436
861.237976,476
861.35553,470
861.473022,443
861.590698,445
861.708191,478
861.825745,460
861.943298,442
862.060852,449
862.178406,447
862.295959,455
862.413513,448
862.531006,439
862.64856,457
862.766113,453
862.883667,468
863.00116,460
863.118713,451
863.236206,455
863.353699,452
863.471252,448
863.588745,458
863.706177,469
863.82373,474
863.941162,444
864.058716,470
864.176208,471
864.29364,466
864.411194,463
864.528687,447
864.646118,441
864.763611,470
864.881042,453
864.998535,454
865.116028,456
865.233459,461
865.350891,440
865.468384,447
865.585754,463
865.703308,452
865.820679,461
865.938171,455
866.055542,467
866.173035,455
866.290466,460
866.407837,455
866.52533,461
866.6427,465
866.760071,447
866.877563,470
866.994934,471
867.112305,460
867.229736,475
867.347107,453
867.464539,467
867.58197,458
867.699341,479
867.81665,445
867.934082,457
868.051453,464
868.168823,458
868.286194,470
868.403564,443
868.520935,467
868.638306,464
868.755676,469
868.872986,449
868.990295,459
869.107727,466
869.225037,463
869.342346,434
869.459717,452
869.577026,453
869.694336,466
869.811707,455
869.929016,468
870.046326,452
870.163635,461
870.280945,454
870.398254,462
870.515564,477
870.632812,463
870.750183,451
870.867432,464
870.984741,476
871.102051,461
871.219299,471
871.336609,461
871.453918,460
871.571106,462
871.688416,467
871.805664,457
871.922852,458
872.040222,451
872.157471,429
872.274719,481
872.391968,474
872.509155,472
872.626465,463
872.743652,473
872.860962,465
872.978149,459
873.095337,457
873.212646,465
873.329834,434
873.44696,467
873.564209,445
873.681396,451
873.798645,456
873.915894,452
874.03302,484
874.150208,450
874.267456,464
874.384583,467
874.501831,473
874.618958,447
874.736145,471
874.853333,449
874.970459,467
875.087646,473
875.204834,459
875.32196,474
875.439148,456
875.556274,451
875.673401,452
875.790527,449
875.907715,467
876.024841,452
876.141968,473
876.259094,447
876.376282,467
876.493347,462
876.610474,449
876.7276,470
876.844727,445
876.961853,465
877.078918,463
877.195984,452
877.313171,471
877.430237,459
877.547302,463
877.664368,460
877.781433,444
877.898499,449
878.015625,436
878.13269,454
878.249695,446
878.366821,454
878.483887,456
878.600952,446
878.717957,458
878.834961,448
878.952087,454
879.069092,486
879.186157,454
879.303162,466
879.420227,466
879.537231,443
879.654236,458
879.77124,441
879.888306,452
880.005249,454
880.122314,460
880.239319,479
880.356323,454
880.473328,472
880.590271,452
880.707275,445
880.824341,451
880.941284,448
881.058228,454
881.175232,476
881.292236,458
881.40918,446
881.526123,462
881.643066,444
881.760071,455
881.877014,453
881.993958,445
882.11084,456
882.227783,452
882.344727,467
882.46167,451
882.578613,462
882.695618,459
882.812439,446
882.929382,461
883.046326,462
883.163208,466
883.280151,457
883.397034,466
883.513916,447
883.630798,468
883.747742,452
883.864563,461
883.981506,452
884.098389,471
884.21521,460
884.332153,465
884.448975,464
884.565796,475
884.682678,466
884.7995,460
884.916443,472
885.033264,452
885.150085,464
885.266968,461
885.383789,493
885.500671,440
885.617493,464
885.734314,463
885.851196,480
885.967896,470
886.084717,475
886.201599,467
886.318359,490
886.435181,462
886.552002,467
886.668762,468
886.785645,467
886.902344,484
887.019165,473
887.135925,459
887.252747,466
887.369446,459
887.486267,468
887.603027,471
887.719788,455
887.836548,468
887.953247,486
888.070068,475
888.186829,460
888.303528,460
888.420288,479
888.536987,470
888.653687,450
888.770447,461
888.887146,486
889.003967,477
889.120667,448
889.237305,478
889.354065,471
889.470703,467
889.587463,452
889.704163,444
889.820862,480
889.937561,461
890.054199,451
890.170837,447
890.287598,469
890.404236,439
890.520874,444
890.637634,458
890.754211,475
890.87085,441
890.987549,480
891.104187,460
891.220886,460
891.337463,460
891.454102,461
891.57074,459
891.687378,470
891.804077,453
891.920654,454
892.037231,460
892.15387,469
892.270447,467
892.387085,481
892.503723,445
892.6203,465
892.736877,455
892.853516,471
892.970032,444
893.08667,461
893.203186,451
893.319763,468
893.43634,484
893.552917,464
893.669556,462
893.786011,462
893.902588,462
894.019165,472
894.135681,471
894.252197,460
894.368835,453
894.485291,465
894.601868,476
894.718384,475
894.8349,457
894.951355,462
895.067932,459
895.184448,469
895.300964,446
895.417419,463
895.533936,441
895.650452,471
895.766907,458
895.883423,459
895.999878,465
896.116333,471
896.232849,454
896.349304,456
896.465759,465
896.582214,456
896.698669,472
896.815125,498
896.931641,455
897.048035,479
897.164551,445
897.280884,463
897.397339,462
897.513794,474
897.630249,440
897.746582,470
897.863098,469
897.979431,468
898.095886,456
898.212341,463
898.328674,467
898.445129,461
898.561462,475
898.677795,478
898.794312,473
898.910645,461
899.026978,452
899.143433,474
899.259766,451
899.37616,467
899.492493,458
899.608765,451
899.725159,453
899.841553,465
899.957947,480
900.07428,475
900.190552,466
900.306946,456
900.423157,461
900.53949,476
900.655884,463
900.772156,471
900.888489,461
901.004822,472
901.121033,471
901.237366,443
901.353699,465
901.46991,473
901.586304,476
901.702515,468
901.818787,481
901.93512,474
902.051331,484
902.167603,476
902.283875,477
902.400085,471
902.516418,458
902.632629,462
902.74884,468
902.865112,490
902.981384,494
903.097595,463
903.213867,476
903.330017,479
903.446289,477
903.5625,479
903.67865,466
903.794922,468
903.911072,467
904.027344,473
904.143494,490
904.259705,487
904.375916,487
904.492065,444
904.608215,471
904.724426,472
904.840576,468
904.956726,489
905.072876,472
905.189087,453
905.305176,457
905.421387,484
905.537537,474
905.653687,478
905.769775,447
905.885925,455
906.002014,483
906.118164,449
906.234314,479
906.350403,469
906.466492,460
906.582642,458
906.69873,483
906.814758,459
906.930908,455
907.046936,457
907.163086,477
907.279175,473
907.395264,474
907.511353,462
907.62738,471
907.743408,465
907.859497,469
907.975525,452
908.091553,450
908.207703,477
908.32373,468
908.439758,469
908.555786,468
908.671814,461
908.787842,467
908.90387,477
909.019775,480
909.135864,456
909.251892,482
909.367859,485
909.483826,446
909.599854,463
909.715881,459
909.831848,467
909.947815,464
910.063782,478
910.179749,471
910.295776,474
910.411743,470
910.527649,467
910.643616,464
910.759583,483
910.875488,472
910.991455,460
911.107361,476
911.223267,461
911.339294,465
911.4552,486
911.571106,447
911.687073,468
911.802979,471
911.918823,477
912.034729,461
912.150635,472
912.266602,474
912.382446,465
912.498352,470
912.614197,483
912.730103,467
912.846008,460
