792.44574,1218
792.56488,1189
792.68396,1240
792.80304,1161
792.92218,1120
793.041199,1057
793.160339,1030
793.279419,1060
793.398499,1037
793.517578,993
793.636658,982
793.755737,960
793.874817,930
793.993896,935
794.112976,904
794.232056,906
794.351074,848
794.470215,856
794.589233,852
794.708313,861
794.827393,826
794.946411,822
795.065552,828
795.18457,803
795.303589,778
795.422668,784
795.541687,802
795.660767,748
795.779846,779
795.898865,759
796.017883,747
796.136963,738
796.255981,740
796.375061,767
796.49408,718
796.613037,746
796.732117,705
796.851135,673
796.970154,740
797.089233,701
797.208191,694
797.327271,715
797.446228,638
797.565186,703
797.684265,699
797.803223,695
797.922241,644
798.04126,668
798.160278,674
798.279297,670
798.398315,675
798.517273,638
798.636292,659
798.75531,661
798.874268,649
798.993286,651
799.112244,645
799.231323,642
799.350281,668
799.469238,638
799.588257,653
799.707153,634
799.826111,631
799.945129,644
800.064087,637
800.183044,649
800.302063,625
800.421021,625
800.539978,641
800.658936,624
800.777893,609
800.896912,617
801.015747,620
801.134705,603
801.253723,635
801.37262,592
801.491638,614
801.610535,599
801.729492,589
801.84845,590
801.967407,619
802.086243,604
802.205261,608
802.324158,630
802.443115,620
802.562073,587
802.680969,626
802.799927,585
802.918762,599
803.037659,586
803.156677,601
803.275574,580
803.39447,605
803.513428,581
803.632263,575
803.751221,588
803.870117,563
803.989014,572
804.107971,594
804.226746,592
804.345642,574
804.4646,568
804.583496,585
804.702393,582
804.821228,593
804.940125,584
805.059021,593
805.177917,567
805.296814,581
805.415649,576
805.534546,565
805.653442,551
805.772278,574
805.891113,570
806.01001,583
806.128906,572
806.247742,578
806.366577,564
806.485413,578
806.604309,544
806.723145,553
806.84198,565
806.960876,569
807.079712,559
807.198486,561
807.317383,564
807.436218,547
807.554993,558
807.673889,569
807.792725,551
807.91156,566
808.030396,532
808.14917,550
808.268005,553
808.386841,570
808.505676,559
808.624451,553
808.743286,525
808.862122,556
808.980896,548
809.099731,538
809.218506,538
809.337341,520
809.456116,540
809.57489,548
809.693726,556
809.8125,560
809.931274,548
810.050049,554
810.168884,538
810.287659,562
810.406372,539
810.525269,525
810.643982,538
810.762756,543
810.881531,560
811.000305,534
811.11908,557
811.237854,538
811.356567,555
811.475403,556
811.594116,538
811.71283,551
811.831604,531
811.950378,555
812.069153,549
812.187927,570
812.30658,574
812.425415,564
812.544128,550
812.662781,543
812.781616,555
812.900269,562
813.019043,533
813.137756,539
813.256531,545
813.375244,526
813.493896,530
813.612671,561
813.731384,548
813.850037,531
813.96875,531
814.087524,546
814.206238,540
814.324951,548
814.443604,545
814.562256,531
814.68103,545
814.799683,532
814.918335,554
815.037109,544
815.155762,521
815.274475,540
815.393188,530
815.511841,554
815.630554,549
815.749146,566
815.867859,547
815.986572,550
816.105164,549
816.223877,553
816.342529,545
816.461182,532
816.579895,552
816.698486,563
816.817139,551
816.935791,566
817.054504,555
817.173096,547
817.291748,546
817.4104,532
817.529053,545
817.647644,555
817.766235,533
817.884949,543
818.00354,533
818.122192,518
818.240845,521
818.359436,526
818.478088,528
818.59668,522
818.715271,531
818.833923,512
818.952515,520
819.071106,519
819.189758,491
819.30835,513
819.426941,537
819.545532,529
819.664124,511
819.782715,542
819.901306,510
820.019897,516
820.138489,513
820.25708,513
820.375671,509
820.494202,528
820.612732,522
820.731384,535
820.849915,515
820.968506,527
821.087097,500
821.205627,514
821.324158,496
821.442749,532
821.561279,491
821.679871,508
821.798401,489
821.916931,504
822.035461,501
822.154053,510
822.272583,498
822.391174,545
822.509583,507
822.628174,518
822.746704,484
822.865234,517
822.983765,495
823.102295,510
823.220825,511
823.339294,501
823.457825,497
823.576355,515
823.694824,511
823.813354,501
823.931885,525
824.050354,519
824.168884,503
824.287354,523
824.405823,519
824.524353,512
824.642822,495
824.761353,508
824.879822,487
824.998291,502
825.116699,496
825.235291,504
825.353699,516
825.472168,493
825.590637,500
825.709106,498
825.827576,501
825.946045,504
826.064453,489
826.182983,511
826.301392,495
826.4198,505
826.53833,489
826.656738,500
826.775208,461
826.893677,508
827.012024,490
827.130493,483
827.248962,489
827.36731,516
827.485779,511
827.604248,495
827.722595,492
827.841064,497
827.959412,517
828.077942,480
828.196289,507
828.314636,492
828.433105,475
828.551514,512
828.669861,473
828.78833,500
828.906677,481
829.025085,488
829.143433,496
829.261841,472
829.38031,471
829.498657,481
829.617004,496
829.735413,510
829.85376,480
829.972107,490
830.090515,484
830.208862,511
830.327209,482
830.445557,491
830.563904,507
830.682312,488
830.800659,489
830.919006,504
831.037354,483
831.155701,498
831.274048,518
831.392395,507
831.51062,504
831.629028,511
831.747314,479
831.865662,498
831.984009,496
832.102356,510
832.220642,506
832.338928,507
832.457275,495
832.575623,520
832.693909,489
832.812134,498
832.930481,487
833.048828,516
833.167114,504
833.2854,492
833.403687,478
833.521973,500
833.640259,480
833.758545,513
833.876831,499
833.995056,519
834.113281,513
834.231628,503
834.349915,526
834.468201,508
834.586426,498
834.704651,512
834.822998,519
834.941162,510
835.059448,503
835.177673,501
835.295959,495
835.414246,517
835.53241,505
835.650635,532
835.768921,498
835.887146,497
836.005371,516
836.123596,493
836.241821,494
836.360046,493
836.478271,490
836.596497,481
836.714722,478
836.832886,512
836.95105,470
837.069336,468
837.1875,475
837.305725,502
837.423889,488
837.542053,486
837.660339,508
837.778503,485
837.896667,512
838.014832,502
838.132996,487
838.25116,491
838.369385,496
838.487488,509
838.605713,486
838.723877,510
838.84198,487
838.960205,517
839.078308,505
839.196472,484
839.314636,494
839.4328,520
839.550964,505
839.669067,519
839.787231,528
839.905396,513
840.023499,521
840.141602,522
840.259766,518
840.377869,506
840.495972,532
840.614136,535
840.732239,533
840.850342,538
840.968445,528
841.086548,543
841.204651,520
841.322754,536
841.440918,558
841.55896,567
841.677002,537
841.795166,552
841.913208,555
842.031311,536
842.149353,557
842.267456,540
842.385498,532
842.503601,563
842.621643,525
842.739746,537
842.857788,530
842.97583,525
843.093933,534
843.211975,516
843.330017,531
843.44812,546
843.566101,521
843.684204,536
843.802246,501
843.920227,531
844.038269,544
844.156311,540
844.274292,531
844.392395,534
844.510376,532
844.628357,526
844.74646,519
844.864441,532
844.982422,544
845.100403,545
845.218384,524
845.336426,505
845.454468,515
845.572449,530
845.69043,510
845.808411,520
845.926453,520
846.044373,511
846.162354,527
846.280396,516
846.398315,540
846.516296,546
846.634216,535
846.752197,527
846.870178,532
846.988098,534
847.106079,534
847.22406,539
847.34198,526
847.4599,535
847.577881,522
847.695801,538
847.813782,535
847.931641,541
848.049561,533
848.167603,513
848.285461,521
848.403381,519
848.521362,522
848.639221,528
848.75708,512
848.875,535
848.99292,521
849.110901,517
849.22876,525
849.34668,531
849.464539,542
849.582458,539
849.700317,527
849.818176,533
849.936096,519
850.053955,546
850.171875,512
850.289673,543
850.407593,540
850.525452,540
850.643311,532
850.761169,533
850.878967,514
850.996887,546
851.114746,532
851.232544,544
851.350403,529
851.468262,520
851.58606,535
851.703979,531
851.821777,523
851.939636,529
852.057434,523
852.175232,519
852.293091,527
852.410889,552
852.528687,516
852.646545,579
852.764343,565
852.88208,555
852.999939,550
853.117676,530
853.235535,529
853.353271,549
853.471069,526
853.588928,520
853.706604,529
853.824402,516
853.9422,522
854.059998,525
854.177734,523
854.295532,517
854.413269,524
854.531006,524
854.648804,544
854.766541,546
854.884277,525
855.002014,528
855.119751,532
855.237549,553
855.355225,528
855.473022,525
855.590698,533
855.708435,540
855.826172,540
855.943848,525
856.061646,518
856.179321,523
856.296997,526
856.414795,524
856.53241,531
856.650085,550
856.767822,530
856.885559,546
857.003174,528
857.120911,557
857.238586,548
857.356201,561
857.473938,543
857.591614,535
857.709351,532
857.826965,546
857.944641,543
858.062317,541
858.179993,549
858.297668,531
858.415283,536
858.532959,558
858.650574,531
858.768188,549
858.885803,525
859.003479,551
859.121094,529
859.23877,561
859.356384,533
859.473999,579
859.591675,529
859.709229,542
859.826843,527
859.944458,523
860.062012,521
860.179626,496
860.297302,529
860.414856,525
860.532471,521
860.650024,524
860.767639,515
860.885193,553
861.002808,523
861.120361,528
861.237976,536
861.35553,532
861.473022,527
861.590698,537
861.708191,510
861.825745,525
861.943298,514
862.060852,539
862.178406,507
862.295959,522
862.413513,518
862.531006,514
862.64856,505
862.766113,514
862.883667,505
863.00116,496
863.118713,507
863.236206,520
863.353699,511
863.471252,488
863.588745,532
863.706177,500
863.82373,525
863.941162,531
864.058716,506
864.176208,515
864.29364,504
864.411194,522
864.528687,495
864.646118,507
864.763611,497
864.881042,505
864.998535,508
865.116028,510
865.233459,508
865.350891,499
865.468384,470
865.585754,485
865.703308,489
865.820679,506
865.938171,491
866.055542,500
866.173035,509
866.290466,505
866.407837,501
866.52533,524
866.6427,500
866.760071,504
866.877563,512
866.994934,508
867.112305,509
867.229736,526
867.347107,525
867.464539,514
867.58197,509
867.699341,526
867.81665,527
867.934082,511
868.051453,520
868.168823,524
868.286194,497
868.403564,505
868.520935,531
868.638306,526
868.755676,524
868.872986,520
868.990295,501
869.107727,530
869.225037,555
869.342346,536
869.459717,520
869.577026,542
869.694336,533
869.811707,546
869.929016,545
870.046326,539
870.163635,526
870.280945,545
870.398254,530
870.515564,543
870.632812,529
870.750183,533
870.867432,564
870.984741,532
871.102051,553
871.219299,529
871.336609,547
871.453918,546
871.571106,556
871.688416,541
871.805664,555
871.922852,560
872.040222,555
872.157471,562
872.274719,540
872.391968,555
872.509155,561
872.626465,537
872.743652,558
872.860962,530
872.978149,529
873.095337,558
873.212646,552
873.329834,528
873.44696,522
873.564209,526
873.681396,523
873.798645,517
873.915894,530
874.03302,547
874.150208,525
874.267456,544
874.384583,537
874.501831,531
874.618958,556
874.736145,579
874.853333,547
874.970459,567
875.087646,554
875.204834,559
875.32196,551
875.439148,547
875.556274,537
875.673401,566
875.790527,520
875.907715,549
876.024841,522
876.141968,540
876.259094,519
876.376282,538
876.493347,526
876.610474,533
876.7276,529
876.844727,549
876.961853,536
877.078918,542
877.195984,518
877.313171,509
877.430237,501
877.547302,535
877.664368,530
877.781433,547
877.898499,506
878.015625,529
878.13269,516
878.249695,513
878.366821,518
878.483887,541
878.600952,503
878.717957,509
878.834961,528
878.952087,512
879.069092,493
879.186157,508
879.303162,513
879.420227,518
879.537231,505
879.654236,513
879.77124,500
879.888306,505
880.005249,494
880.122314,494
880.239319,507
880.356323,493
880.473328,500
880.590271,492
880.707275,494
880.824341,498
880.941284,510
881.058228,489
881.175232,494
881.292236,507
881.40918,515
881.526123,501
881.643066,513
881.760071,499
881.877014,493
881.993958,505
882.11084,486
882.227783,486
882.344727,506
882.46167,504
882.578613,505
882.695618,497
882.812439,498
882.929382,514
883.046326,484
883.163208,513
883.280151,471
883.397034,502
883.513916,491
883.630798,498
883.747742,520
883.864563,508
883.981506,501
884.098389,523
884.21521,495
884.332153,514
884.448975,515
884.565796,529
884.682678,531
884.7995,522
884.916443,541
885.033264,570
885.150085,575
885.266968,602
885.383789,605
885.500671,576
885.617493,601
885.734314,603
885.851196,560
885.967896,608
886.084717,608
886.201599,611
886.318359,601
886.435181,580
886.552002,584
886.668762,594
886.785645,564
886.902344,577
887.019165,586
887.135925,575
887.252747,559
887.369446,572
887.486267,549
887.603027,530
887.719788,524
887.836548,543
887.953247,533
888.070068,524
888.186829,532
888.303528,518
888.420288,510
888.536987,509
888.653687,485
888.770447,504
888.887146,485
889.003967,499
889.120667,479
889.237305,500
889.354065,483
889.470703,476
889.587463,491
889.704163,503
889.820862,472
889.937561,483
890.054199,475
890.170837,483
890.287598,465
890.404236,488
890.520874,472
890.637634,481
890.754211,461
890.87085,465
890.987549,489
891.104187,494
891.220886,449
891.337463,497
891.454102,492
891.57074,467
891.687378,486
891.804077,473
891.920654,489
892.037231,481
892.15387,475
892.270447,488
892.387085,462
892.503723,474
892.6203,467
892.736877,494
892.853516,472
892.970032,484
893.08667,490
893.203186,474
893.319763,466
893.43634,489
893.552917,461
893.669556,485
893.786011,471
893.902588,481
894.019165,463
894.135681,493
894.252197,480
894.368835,482
894.485291,469
894.601868,484
894.718384,465
894.8349,460
894.951355,481
895.067932,499
895.184448,474
895.300964,469
895.417419,479
895.533936,473
895.650452,467
895.766907,498
895.883423,474
895.999878,486
896.116333,466
896.232849,464
896.349304,465
896.465759,481
896.582214,456
896.698669,462
896.815125,491
896.931641,480
897.048035,477
897.164551,484
897.280884,488
897.397339,486
897.513794,485
897.630249,478
897.746582,482
897.863098,475
897.979431,474
898.095886,493
898.212341,497
898.328674,494
898.445129,471
898.561462,470
898.677795,487
898.794312,475
898.910645,467
899.026978,485
899.143433,480
899.259766,491
899.37616,500
899.492493,518
899.608765,487
899.725159,494
899.841553,496
899.957947,488
900.07428,473
900.190552,475
900.306946,483
900.423157,501
900.53949,501
900.655884,482
900.772156,472
900.888489,499
901.004822,480
901.121033,483
901.237366,489
901.353699,496
901.46991,486
901.586304,500
901.702515,522
901.818787,496
901.93512,524
902.051331,496
902.167603,517
902.283875,520
902.400085,512
902.516418,548
902.632629,521
902.74884,547
902.865112,544
902.981384,557
903.097595,542
903.213867,557
903.330017,548
903.446289,535
903.5625,539
903.67865,507
903.794922,511
903.911072,516
904.027344,530
904.143494,507
904.259705,514
904.375916,530
904.492065,515
904.608215,505
904.724426,507
904.840576,487
904.956726,511
905.072876,501
905.189087,487
905.305176,498
905.421387,477
905.537537,503
905.653687,496
905.769775,483
905.885925,475
906.002014,475
906.118164,473
906.234314,472
906.350403,466
906.466492,488
906.582642,475
906.69873,478
906.814758,471
906.930908,479
907.046936,487
907.163086,481
907.279175,466
907.395264,467
907.511353,446
907.62738,480
907.743408,466
907.859497,474
907.975525,468
908.091553,491
908.207703,461
908.32373,470
908.439758,455
908.555786,482
908.671814,467
908.787842,466
908.90387,452
909.019775,478
909.135864,491
909.251892,493
909.367859,500
909.483826,466
909.599854,476
909.715881,467
909.831848,470
909.947815,479
910.063782,473
910.179749,490
910.295776,454
910.411743,484
910.527649,476
910.643616,479
910.759583,474
910.875488,485
910.991455,462
911.107361,460
911.223267,456
911.339294,453
911.4552,450
911.571106,459
911.687073,474
911.802979,474
911.918823,462
912.034729,485
912.150635,455
912.266602,481
912.382446,438
912.498352,448
912.614197,466
912.730103,478
912.846008,480
792.44574,1224
792.56488,1225
792.68396,1269
792.80304,1175
792.92218,1135
793.041199,1033
793.160339,1027
793.279419,1025
793.398499,1016
793.517578,996
793.636658,945
793.755737,960
793.874817,960
793.993896,932
794.112976,911
794.232056,921
794.351074,856
794.470215,887
794.589233,859
794.708313,828
794.827393,840
794.946411,807
795.065552,841
795.18457,795
795.303589,821
795.422668,775
795.541687,794
795.660767,776
795.779846,764
795.898865,772
796.017883,732
796.136963,751
796.255981,745
796.375061,758
796.49408,698
796.613037,718
796.732117,728
796.851135,698
796.970154,722
797.089233,687
797.208191,696
797.327271,685
797.446228,721
797.565186,686
797.684265,693
797.803223,679
797.922241,691
798.04126,682
798.160278,661
798.279297,675
798.398315,653
798.517273,664
798.636292,673
798.75531,678
798.874268,633
798.993286,669
799.112244,652
799.231323,641
799.350281,651
799.469238,647
799.588257,653
799.707153,647
799.826111,674
799.945129,666
800.064087,650
800.183044,622
800.302063,619
800.421021,622
800.539978,612
800.658936,614
800.777893,621
800.896912,636
801.015747,617
801.134705,626
801.253723,617
801.37262,605
801.491638,633
801.610535,618
801.729492,626
801.84845,609
801.967407,611
802.086243,616
802.205261,653
802.324158,590
802.443115,586
802.562073,596
802.680969,605
802.799927,565
802.918762,573
803.037659,587
803.156677,564
803.275574,597
803.39447,591
803.513428,561
803.632263,586
803.751221,586
803.870117,589
803.989014,591
804.107971,574
804.226746,577
804.345642,570
804.4646,579
804.583496,559
804.702393,566
804.821228,565
804.940125,570
805.059021,566
805.177917,547
805.296814,567
805.415649,570
805.534546,564
805.653442,559
805.772278,571
805.891113,566
806.01001,572
806.128906,602
806.247742,576
806.366577,572
806.485413,563
806.604309,567
806.723145,547
806.84198,543
806.960876,560
807.079712,555
807.198486,537
807.317383,560
807.436218,564
807.554993,563
807.673889,546
807.792725,594
807.91156,547
808.030396,560
808.14917,544
808.268005,553
808.386841,552
808.505676,534
808.624451,555
808.743286,555
808.862122,542
808.980896,562
809.099731,546
809.218506,555
809.337341,546
809.456116,543
809.57489,572
809.693726,564
809.8125,534
809.931274,538
810.050049,546
810.168884,565
810.287659,537
810.406372,557
810.525269,545
810.643982,549
810.762756,563
810.881531,516
811.000305,555
811.11908,542
811.237854,551
811.356567,547
811.475403,544
811.594116,577
811.71283,548
811.831604,542
811.950378,577
812.069153,550
812.187927,567
812.30658,564
812.425415,553
812.544128,562
812.662781,560
812.781616,553
812.900269,559
813.019043,549
813.137756,539
813.256531,554
813.375244,555
813.493896,549
813.612671,562
813.731384,550
813.850037,561
813.96875,557
814.087524,533
814.206238,522
814.324951,550
814.443604,539
814.562256,546
814.68103,542
814.799683,535
814.918335,552
815.037109,563
815.155762,533
815.274475,531
815.393188,534
815.511841,575
815.630554,559
815.749146,525
815.867859,525
815.986572,562
816.105164,523
816.223877,549
816.342529,554
816.461182,552
816.579895,540
816.698486,534
816.817139,545
816.935791,564
817.054504,557
817.173096,569
817.291748,531
817.4104,568
817.529053,530
817.647644,532
817.766235,524
817.884949,552
818.00354,516
818.122192,539
818.240845,535
818.359436,507
818.478088,506
818.59668,522
818.715271,538
818.833923,527
818.952515,534
819.071106,523
819.189758,521
819.30835,540
819.426941,532
819.545532,513
819.664124,528
819.782715,517
819.901306,534
820.019897,530
820.138489,502
820.25708,518
820.375671,512
820.494202,537
820.612732,525
820.731384,515
820.849915,522
820.968506,515
821.087097,512
821.205627,522
821.324158,509
821.442749,523
821.561279,485
821.679871,519
821.798401,493
821.916931,503
822.035461,526
822.154053,483
822.272583,481
822.391174,509
822.509583,506
822.628174,533
822.746704,528
822.865234,518
822.983765,504
823.102295,513
823.220825,494
823.339294,503
823.457825,495
823.576355,482
823.694824,500
823.813354,515
823.931885,497
824.050354,489
824.168884,489
824.287354,504
824.405823,478
824.524353,498
824.642822,511
824.761353,502
824.879822,506
824.998291,495
825.116699,494
825.235291,492
825.353699,507
825.472168,500
825.590637,490
825.709106,517
825.827576,511
825.946045,498
826.064453,510
826.182983,500
826.301392,484
826.4198,512
826.53833,482
826.656738,497
826.775208,502
826.893677,494
827.012024,487
827.130493,490
827.248962,498
827.36731,533
827.485779,501
827.604248,482
827.722595,500
827.841064,505
827.959412,507
828.077942,502
828.196289,498
828.314636,495
828.433105,484
828.551514,500
828.669861,488
828.78833,512
828.906677,495
829.025085,489
829.143433,501
829.261841,482
829.38031,482
829.498657,497
829.617004,467
829.735413,504
829.85376,490
829.972107,504
830.090515,494
830.208862,502
830.327209,488
830.445557,491
830.563904,471
830.682312,499
830.800659,502
830.919006,491
831.037354,508
831.155701,496
831.274048,498
831.392395,525
831.51062,500
831.629028,488
831.747314,533
831.865662,486
831.984009,510
832.102356,507
832.220642,503
832.338928,516
832.457275,499
832.575623,503
832.693909,527
832.812134,503
832.930481,517
833.048828,499
833.167114,519
833.2854,516
833.403687,496
833.521973,493
833.640259,481
833.758545,502
833.876831,508
833.995056,493
834.113281,534
834.231628,533
834.349915,503
834.468201,496
834.586426,484
834.704651,520
834.822998,490
834.941162,512
835.059448,484
835.177673,504
835.295959,500
835.414246,534
835.53241,523
835.650635,502
835.768921,486
835.887146,514
836.005371,488
836.123596,482
836.241821,495
836.360046,482
836.478271,474
836.596497,507
836.714722,478
836.832886,507
836.95105,492
837.069336,492
837.1875,483
837.305725,483
837.423889,498
837.542053,499
837.660339,484
837.778503,502
837.896667,486
838.014832,488
838.132996,466
838.25116,512
838.369385,470
838.487488,503
838.605713,501
838.723877,511
838.84198,498
838.960205,509
839.078308,520
839.196472,518
839.314636,523
839.4328,518
839.550964,514
839.669067,538
839.787231,537
839.905396,520
840.023499,530
840.141602,545
840.259766,546
840.377869,529
840.495972,521
840.614136,549
840.732239,528
840.850342,534
840.968445,533
841.086548,521
841.204651,525
841.322754,548
841.440918,521
841.55896,548
841.677002,539
841.795166,566
841.913208,520
842.031311,510
842.149353,520
842.267456,521
842.385498,559
842.503601,534
842.621643,539
842.739746,555
842.857788,541
842.97583,528
843.093933,547
843.211975,537
843.330017,538
843.44812,561
843.566101,554
843.684204,547
843.802246,541
843.920227,534
844.038269,549
844.156311,546
844.274292,538
844.392395,555
844.510376,537
844.628357,547
844.74646,523
844.864441,520
844.982422,503
845.100403,540
845.218384,528
845.336426,521
845.454468,535
845.572449,501
845.69043,512
845.808411,510
845.926453,535
846.044373,509
846.162354,522
846.280396,519
846.398315,534
846.516296,505
846.634216,526
846.752197,522
846.870178,544
846.988098,535
847.106079,521
847.22406,513
847.34198,543
847.4599,533
847.577881,524
847.695801,540
847.813782,546
847.931641,515
848.049561,521
848.167603,515
848.285461,517
848.403381,523
848.521362,550
848.639221,527
848.75708,508
848.875,525
848.99292,520
849.110901,533
849.22876,526
849.34668,528
849.464539,526
849.582458,554
849.700317,501
849.818176,554
849.936096,544
850.053955,527
850.171875,530
850.289673,522
850.407593,514
850.525452,539
850.643311,527
850.761169,532
850.878967,521
850.996887,538
851.114746,510
851.232544,539
851.350403,530
851.468262,505
851.58606,516
851.703979,525
851.821777,521
851.939636,509
852.057434,523
852.175232,530
852.293091,526
852.410889,541
852.528687,578
852.646545,571
852.764343,565
852.88208,547
852.999939,555
853.117676,572
853.235535,540
853.353271,534
853.471069,546
853.588928,517
853.706604,515
853.824402,547
853.9422,533
854.059998,531
854.177734,523
854.295532,539
854.413269,533
854.531006,523
854.648804,550
854.766541,513
854.884277,547
855.002014,537
855.119751,535
855.237549,546
855.355225,534
855.473022,560
855.590698,546
855.708435,537
855.826172,540
855.943848,544
856.061646,534
856.179321,537
856.296997,512
856.414795,514
856.53241,545
856.650085,530
856.767822,542
856.885559,551
857.003174,572
857.120911,548
857.238586,529
857.356201,540
857.473938,556
857.591614,561
857.709351,541
857.826965,556
857.944641,533
858.062317,547
858.179993,530
858.297668,532
858.415283,534
858.532959,544
858.650574,522
858.768188,553
858.885803,533
859.003479,554
859.121094,552
859.23877,522
859.356384,550
859.473999,544
859.591675,540
859.709229,531
859.826843,522
859.944458,543
860.062012,516
860.179626,528
860.297302,516
860.414856,535
860.532471,530
860.650024,543
860.767639,528
860.885193,525
861.002808,491
861.120361,537
861.237976,528
861.35553,528
861.473022,531
861.590698,529
861.708191,530
861.825745,534
861.943298,528
862.060852,512
862.178406,514
862.295959,511
862.413513,491
862.531006,523
862.64856,506
862.766113,502
862.883667,503
863.00116,492
863.118713,500
863.236206,527
863.353699,500
863.471252,483
863.588745,505
863.706177,492
863.82373,501
863.941162,512
864.058716,529
864.176208,515
864.29364,484
864.411194,503
864.528687,499
864.646118,503
864.763611,526
864.881042,516
864.998535,496
865.116028,501
865.233459,515
865.350891,501
865.468384,523
865.585754,508
865.703308,515
865.820679,514
865.938171,512
866.055542,501
866.173035,491
866.290466,516
866.407837,505
866.52533,494
866.6427,488
866.760071,501
866.877563,505
866.994934,519
867.112305,503
867.229736,514
867.347107,501
867.464539,526
867.58197,510
867.699341,515
867.81665,516
867.934082,513
868.051453,512
868.168823,511
868.286194,537
868.403564,540
868.520935,507
868.638306,548
868.755676,536
868.872986,503
868.990295,532
869.107727,537
869.225037,513
869.342346,525
869.459717,523
869.577026,546
869.694336,519
869.811707,539
869.929016,546
870.046326,553
870.163635,550
870.280945,517
870.398254,528
870.515564,550
870.632812,544
870.750183,554
870.867432,536
870.984741,563
871.102051,552
871.219299,564
871.336609,562
871.453918,556
871.571106,574
871.688416,554
871.805664,546
871.922852,541
872.040222,541
872.157471,570
872.274719,551
872.391968,568
872.509155,563
872.626465,555
872.743652,560
872.860962,538
872.978149,560
873.095337,546
873.212646,553
873.329834,561
873.44696,531
873.564209,534
873.681396,538
873.798645,533
873.915894,547
874.03302,552
874.150208,541
874.267456,574
874.384583,543
874.501831,578
874.618958,551
874.736145,587
874.853333,543
874.970459,553
875.087646,546
875.204834,562
875.32196,541
875.439148,526
875.556274,543
875.673401,545
875.790527,533
875.907715,544
876.024841,548
876.141968,528
876.259094,533
876.376282,535
876.493347,536
876.610474,545
876.7276,518
876.844727,530
876.961853,523
877.078918,523
877.195984,503
877.313171,529
877.430237,542
877.547302,535
877.664368,547
877.781433,554
877.898499,538
878.015625,525
878.13269,520
878.249695,530
878.366821,503
878.483887,506
878.600952,508
878.717957,526
878.834961,524
878.952087,531
879.069092,519
879.186157,514
879.303162,475
879.420227,495
879.537231,507
879.654236,491
879.77124,502
879.888306,506
880.005249,522
880.122314,511
880.239319,493
880.356323,486
880.473328,483
880.590271,502
880.707275,495
880.824341,497
880.941284,506
881.058228,514
881.175232,483
881.292236,481
881.40918,486
881.526123,500
881.643066,495
881.760071,503
881.877014,490
881.993958,514
882.11084,491
882.227783,500
882.344727,507
882.46167,482
882.578613,492
882.695618,486
882.812439,510
882.929382,501
883.046326,489
883.163208,495
883.280151,519
883.397034,505
883.513916,506
883.630798,502
883.747742,509
883.864563,502
883.981506,507
884.098389,516
884.21521,531
884.332153,537
884.448975,526
884.565796,539
884.682678,531
884.7995,535
884.916443,556
885.033264,589
885.150085,582
885.266968,593
885.383789,579
885.500671,586
885.617493,600
885.734314,616
885.851196,598
885.967896,607
886.084717,592
886.201599,587
886.318359,591
886.435181,618
886.552002,570
886.668762,605
886.785645,594
886.902344,558
887.019165,598
887.135925,568
887.252747,554
887.369446,584
887.486267,528
887.603027,536
887.719788,543
887.836548,565
887.953247,529
888.070068,543
888.186829,512
888.303528,514
888.420288,514
888.536987,500
888.653687,501
888.770447,503
888.887146,495
889.003967,502
889.120667,492
889.237305,474
889.354065,488
889.470703,464
889.587463,465
889.704163,489
889.820862,490
889.937561,490
890.054199,470
890.170837,479
890.287598,462
890.404236,473
890.520874,476
890.637634,462
890.754211,448
890.87085,476
890.987549,482
891.104187,479
891.220886,481
891.337463,472
891.454102,477
891.57074,486
891.687378,488
891.804077,484
891.920654,478
892.037231,485
892.15387,479
892.270447,509
892.387085,480
892.503723,476
892.6203,473
892.736877,490
892.853516,499
892.970032,512
893.08667,477
893.203186,470
893.319763,483
893.43634,480
893.552917,477
893.669556,477
893.786011,466
893.902588,481
894.019165,494
894.135681,495
894.252197,488
894.368835,459
894.485291,466
894.601868,491
894.718384,498
894.8349,466
894.951355,468
895.067932,475
895.184448,482
895.300964,472
895.417419,497
895.533936,493
895.650452,480
895.766907,473
895.883423,487
895.999878,469
896.116333,453
896.232849,462
896.349304,483
896.465759,489
896.582214,488
896.698669,464
896.815125,459
896.931641,473
897.048035,491
897.164551,481
897.280884,487
897.397339,475
897.513794,477
897.630249,484
897.746582,482
897.863098,480
897.979431,482
898.095886,478
898.212341,480
898.328674,477
898.445129,488
898.561462,493
898.677795,504
898.794312,491
898.910645,470
899.026978,493
899.143433,462
899.259766,472
899.37616,492
899.492493,493
899.608765,494
899.725159,490
899.841553,491
899.957947,479
900.07428,466
900.190552,484
900.306946,490
900.423157,518
900.53949,476
900.655884,474
900.772156,507
900.888489,475
901.004822,502
901.121033,497
901.237366,486
901.353699,500
901.46991,498
901.586304,505
901.702515,508
901.818787,522
901.93512,499
902.051331,503
902.167603,521
902.283875,535
902.400085,533
902.516418,535
902.632629,528
902.74884,553
902.865112,523
902.981384,557
903.097595,540
903.213867,552
903.330017,521
903.446289,524
903.5625,555
903.67865,549
903.794922,516
903.911072,526
904.027344,539
904.143494,515
904.259705,536
904.375916,500
904.492065,514
904.608215,506
904.724426,485
904.840576,490
904.956726,493
905.072876,494
905.189087,509
905.305176,496
905.421387,484
905.537537,495
905.653687,490
905.769775,498
905.885925,477
906.002014,488
906.118164,468
906.234314,473
906.350403,481
906.466492,489
906.582642,487
906.69873,470
906.814758,501
906.930908,473
907.046936,455
907.163086,480
907.279175,468
907.395264,482
907.511353,468
907.62738,498
907.743408,467
907.859497,486
907.975525,471
908.091553,479
908.207703,467
908.32373,481
908.439758,472
908.555786,465
908.671814,486
908.787842,470
908.90387,478
909.019775,483
909.135864,496
909.251892,489
909.367859,486
909.483826,470
909.599854,485
909.715881,475
909.831848,475
909.947815,449
910.063782,479
910.179749,481
910.295776,476
910.411743,467
910.527649,489
910.643616,488
910.759583,475
910.875488,495
910.991455,459
911.107361,467
911.223267,478
911.339294,475
911.4552,471
911.571106,453
911.687073,465
911.802979,460
911.918823,471
912.034729,480
912.150635,463
912.266602,490
912.382446,469
912.498352,473
912.614197,468
912.730103,472
912.846008,477
792.44574,1215
792.56488,1192
792.68396,1245
792.80304,1165
792.92218,1165
793.041199,1069
793.160339,1039
793.279419,1031
793.398499,1040
793.517578,996
793.636658,991
793.755737,933
793.874817,952
793.993896,939
794.112976,930
794.232056,905
794.351074,888
794.470215,883
794.589233,871
794.708313,849
794.827393,829
794.946411,826
795.065552,843
795.18457,822
795.303589,802
795.422668,816
795.541687,802
795.660767,794
795.779846,786
795.898865,770
796.017883,766
796.136963,739
796.255981,724
796.375061,750
796.49408,707
796.613037,737
796.732117,719
796.851135,750
796.970154,692
797.089233,725
797.208191,731
797.327271,689
797.446228,690
797.565186,723
797.684265,697
797.803223,695
797.922241,687
798.04126,666
798.160278,688
798.279297,687
798.398315,671
798.517273,655
798.636292,659
798.75531,664
798.874268,676
798.993286,661
799.112244,641
799.231323,669
799.350281,662
799.469238,663
799.588257,651
799.707153,643
799.826111,646
799.945129,652
800.064087,666
800.183044,651
800.302063,626
800.421021,638
800.539978,628
800.658936,636
800.777893,615
800.896912,622
801.015747,631
801.134705,633
801.253723,607
801.37262,638
801.491638,602
801.610535,587
801.729492,620
801.84845,594
801.967407,610
802.086243,608
802.205261,632
802.324158,587
802.443115,588
802.562073,584
802.680969,598
802.799927,596
802.918762,586
803.037659,591
803.156677,596
803.275574,567
803.39447,623
803.513428,588
803.632263,567
803.751221,575
803.870117,583
803.989014,586
804.107971,579
804.226746,590
804.345642,588
804.4646,582
804.583496,587
804.702393,570
804.821228,589
804.940125,555
805.059021,573
805.177917,555
805.296814,563
805.415649,559
805.534546,603
805.653442,569
805.772278,573
805.891113,545
806.01001,582
806.128906,569
806.247742,569
806.366577,577
806.485413,552
806.604309,570
806.723145,575
806.84198,556
806.960876,568
807.079712,582
807.198486,582
807.317383,555
807.436218,576
807.554993,569
807.673889,567
807.792725,571
807.91156,558
808.030396,558
808.14917,538
808.268005,548
808.386841,546
808.505676,536
808.624451,550
808.743286,546
808.862122,554
808.980896,567
809.099731,543
809.218506,552
809.337341,554
809.456116,561
809.57489,553
809.693726,564
809.8125,535
809.931274,550
810.050049,554
810.168884,544
810.287659,554
810.406372,549
810.525269,561
810.643982,551
810.762756,541
810.881531,555
811.000305,523
811.11908,576
811.237854,543
811.356567,552
811.475403,539
811.594116,545
811.71283,549
811.831604,571
811.950378,555
812.069153,549
812.187927,551
812.30658,563
812.425415,573
812.544128,556
812.662781,543
812.781616,544
812.900269,550
813.019043,537
813.137756,561
813.256531,544
813.375244,557
813.493896,567
813.612671,530
813.731384,529
813.850037,537
813.96875,551
814.087524,566
814.206238,525
814.324951,541
814.443604,530
814.562256,550
814.68103,540
814.799683,543
814.918335,532
815.037109,538
815.155762,545
815.274475,528
815.393188,539
815.511841,547
815.630554,528
815.749146,536
815.867859,527
815.986572,542
816.105164,538
816.223877,542
816.342529,531
816.461182,546
816.579895,549
816.698486,544
816.817139,523
816.935791,547
817.054504,551
817.173096,551
817.291748,538
817.4104,536
817.529053,557
817.647644,552
817.766235,527
817.884949,531
818.00354,544
818.122192,556
818.240845,540
818.359436,524
818.478088,536
818.59668,548
818.715271,518
818.833923,544
818.952515,525
819.071106,548
819.189758,509
819.30835,510
819.426941,515
819.545532,523
819.664124,532
819.782715,528
819.901306,523
820.019897,505
820.138489,503
820.25708,526
820.375671,523
820.494202,509
820.612732,511
820.731384,525
820.849915,504
820.968506,530
821.087097,504
821.205627,520
821.324158,521
821.442749,521
821.561279,508
821.679871,494
821.798401,513
821.916931,508
822.035461,504
822.154053,521
822.272583,534
822.391174,492
822.509583,520
822.628174,507
822.746704,521
822.865234,520
822.983765,504
823.102295,504
823.220825,510
823.339294,490
823.457825,508
823.576355,506
823.694824,520
823.813354,515
823.931885,522
824.050354,511
824.168884,484
824.287354,506
824.405823,507
824.524353,477
824.642822,519
824.761353,508
824.879822,510
824.998291,516
825.116699,495
825.235291,498
825.353699,510
825.472168,495
825.590637,514
825.709106,506
825.827576,476
825.946045,483
826.064453,511
826.182983,500
826.301392,505
826.4198,510
826.53833,479
826.656738,485
826.775208,487
826.893677,492
827.012024,503
827.130493,518
827.248962,517
827.36731,514
827.485779,507
827.604248,496
827.722595,499
827.841064,500
827.959412,489
828.077942,491
828.196289,489
828.314636,491
828.433105,486
828.551514,506
828.669861,517
828.78833,516
828.906677,498
829.025085,499
829.143433,490
829.261841,484
829.38031,492
829.498657,491
829.617004,507
829.735413,494
829.85376,494
829.972107,499
830.090515,474
830.208862,477
830.327209,500
830.445557,501
830.563904,495
830.682312,509
830.800659,483
830.919006,501
831.037354,506
831.155701,510
831.274048,515
831.392395,501
831.51062,508
831.629028,494
831.747314,509
831.865662,510
831.984009,472
832.102356,489
832.220642,495
832.338928,507
832.457275,490
832.575623,514
832.693909,511
832.812134,516
832.930481,497
833.048828,510
833.167114,497
833.2854,513
833.403687,497
833.521973,494
833.640259,492
833.758545,498
833.876831,491
833.995056,504
834.113281,506
834.231628,496
834.349915,520
834.468201,503
834.586426,477
834.704651,504
834.822998,531
834.941162,526
835.059448,501
835.177673,500
835.295959,503
835.414246,517
835.53241,482
835.650635,506
835.768921,512
835.887146,510
836.005371,482
836.123596,497
836.241821,475
836.360046,494
836.478271,481
836.596497,496
836.714722,506
836.832886,517
836.95105,492
837.069336,515
837.1875,477
837.305725,512
837.423889,493
837.542053,476
837.660339,495
837.778503,492
837.896667,504
838.014832,486
838.132996,513
838.25116,507
838.369385,478
838.487488,492
838.605713,513
838.723877,502
838.84198,516
838.960205,511
839.078308,484
839.196472,496
839.314636,513
839.4328,490
839.550964,498
839.669067,512
839.787231,498
839.905396,522
840.023499,523
840.141602,532
840.259766,506
840.377869,529
840.495972,520
840.614136,498
840.732239,530
840.850342,545
840.968445,525
841.086548,536
841.204651,527
841.322754,540
841.440918,541
841.55896,532
841.677002,553
841.795166,556
841.913208,541
842.031311,556
842.149353,539
842.267456,561
842.385498,537
842.503601,556
842.621643,513
842.739746,517
842.857788,522
842.97583,523
843.093933,552
843.211975,535
843.330017,544
843.44812,555
843.566101,534
843.684204,543
843.802246,511
843.920227,535
844.038269,518
844.156311,549
844.274292,524
844.392395,530
844.510376,537
844.628357,535
844.74646,528
844.864441,546
844.982422,525
845.100403,550
845.218384,518
845.336426,520
845.454468,539
845.572449,534
845.69043,550
845.808411,516
845.926453,529
846.044373,530
846.162354,530
846.280396,540
846.398315,516
846.516296,542
846.634216,529
846.752197,536
846.870178,552
846.988098,552
847.106079,512
847.22406,539
847.34198,538
847.4599,539
847.577881,507
847.695801,551
847.813782,528
847.931641,525
848.049561,548
848.167603,518
848.285461,532
848.403381,519
848.521362,517
848.639221,532
848.75708,530
848.875,531
848.99292,520
849.110901,504
849.22876,525
849.34668,546
849.464539,520
849.582458,541
849.700317,536
849.818176,528
849.936096,500
850.053955,520
850.171875,527
850.289673,518
850.407593,532
850.525452,539
850.643311,537
850.761169,534
850.878967,516
850.996887,537
851.114746,515
851.232544,538
851.350403,526
851.468262,518
851.58606,541
851.703979,506
851.821777,540
851.939636,542
852.057434,489
852.175232,536
852.293091,534
852.410889,530
852.528687,548
852.646545,567
852.764343,559
852.88208,580
852.999939,531
853.117676,552
853.235535,547
853.353271,534
853.471069,525
853.588928,513
853.706604,535
853.824402,523
853.9422,533
854.059998,512
854.177734,530
854.295532,518
854.413269,532
854.531006,534
854.648804,547
854.766541,529
854.884277,543
855.002014,530
855.119751,543
855.237549,534
855.355225,521
855.473022,526
855.590698,540
855.708435,536
855.826172,550
855.943848,525
856.061646,518
856.179321,556
856.296997,549
856.414795,530
856.53241,535
856.650085,525
856.767822,546
856.885559,560
857.003174,569
857.120911,538
857.238586,534
857.356201,567
857.473938,553
857.591614,576
857.709351,546
857.826965,558
857.944641,538
858.062317,539
858.179993,524
858.297668,534
858.415283,529
858.532959,526
858.650574,518
858.768188,555
858.885803,532
859.003479,548
859.121094,542
859.23877,544
859.356384,521
859.473999,557
859.591675,548
859.709229,540
859.826843,547
859.944458,544
860.062012,530
860.179626,529
860.297302,543
860.414856,529
860.532471,512
860.650024,503
860.767639,523
860.885193,523
861.002808,526
861.120361,505
861.237976,508
861.35553,516
861.473022,540
861.590698,523
861.708191,532
861.825745,537
861.943298,494
862.060852,518
862.178406,520
862.295959,500
862.413513,494
862.531006,501
862.64856,475
862.766113,501
862.883667,505
863.00116,509
863.118713,480
863.236206,500
863.353699,523
863.471252,518
863.588745,512
863.706177,524
863.82373,522
863.941162,525
864.058716,506
864.176208,513
864.29364,511
864.411194,545
864.528687,490
864.646118,504
864.763611,477
864.881042,511
864.998535,502
865.116028,516
865.233459,504
865.350891,507
865.468384,504
865.585754,517
865.703308,499
865.820679,498
865.938171,494
866.055542,507
866.173035,503
866.290466,503
866.407837,515
866.52533,514
866.6427,497
866.760071,503
866.877563,500
866.994934,506
867.112305,504
867.229736,510
867.347107,526
867.464539,520
867.58197,523
867.699341,534
867.81665,518
867.934082,535
868.051453,510
868.168823,503
868.286194,506
868.403564,513
868.520935,511
868.638306,535
868.755676,519
868.872986,516
868.990295,511
869.107727,515
869.225037,522
869.342346,526
869.459717,519
869.577026,541
869.694336,538
869.811707,537
869.929016,531
870.046326,516
870.163635,547
870.280945,544
870.398254,523
870.515564,545
870.632812,536
870.750183,558
870.867432,539
870.984741,537
871.102051,538
871.219299,551
871.336609,535
871.453918,565
871.571106,566
871.688416,564
871.805664,550
871.922852,558
872.040222,542
872.157471,561
872.274719,565
872.391968,563
872.509155,531
872.626465,541
872.743652,544
872.860962,558
872.978149,539
873.095337,556
873.212646,540
873.329834,546
873.44696,529
873.564209,551
873.681396,556
873.798645,523
873.915894,538
874.03302,550
874.150208,546
874.267456,545
874.384583,551
874.501831,526
874.618958,534
874.736145,555
874.853333,549
874.970459,538
875.087646,550
875.204834,573
875.32196,548
875.439148,549
875.556274,522
875.673401,534
875.790527,535
875.907715,548
876.024841,511
876.141968,537
876.259094,512
876.376282,540
876.493347,528
876.610474,538
876.7276,519
876.844727,535
876.961853,534
877.078918,551
877.195984,521
877.313171,529
877.430237,517
877.547302,518
877.664368,540
877.781433,532
877.898499,532
878.015625,545
878.13269,543
878.249695,521
878.366821,516
878.483887,535
878.600952,508
878.717957,518
878.834961,521
878.952087,508
879.069092,501
879.186157,507
879.303162,521
879.420227,515
879.537231,513
879.654236,508
879.77124,487
879.888306,485
880.005249,494
880.122314,508
880.239319,496
880.356323,513
880.473328,494
880.590271,497
880.707275,490
880.824341,498
880.941284,485
881.058228,496
881.175232,499
881.292236,498
881.40918,482
881.526123,507
881.643066,522
881.760071,514
881.877014,491
881.993958,506
882.11084,502
882.227783,500
882.344727,499
882.46167,508
882.578613,484
882.695618,489
882.812439,498
882.929382,506
883.046326,486
883.163208,507
883.280151,498
883.397034,497
883.513916,514
883.630798,529
883.747742,493
883.864563,514
883.981506,508
884.098389,509
884.21521,491
884.332153,511
884.448975,524
884.565796,529
884.682678,545
884.7995,545
884.916443,553
885.033264,573
885.150085,568
885.266968,593
885.383789,578
885.500671,615
885.617493,587
885.734314,600
885.851196,592
885.967896,598
886.084717,584
886.201599,597
886.318359,587
886.435181,592
886.552002,593
886.668762,579
886.785645,554
886.902344,561
887.019165,563
887.135925,579
887.252747,566
887.369446,568
887.486267,582
887.603027,555
887.719788,515
887.836548,552
887.953247,528
888.070068,516
888.186829,549
888.303528,516
888.420288,519
888.536987,489
888.653687,495
888.770447,508
888.887146,481
889.003967,481
889.120667,493
889.237305,493
889.354065,498
889.470703,491
889.587463,469
889.704163,486
889.820862,469
889.937561,468
890.054199,484
890.170837,476
890.287598,494
890.404236,482
890.520874,471
890.637634,474
890.754211,459
890.87085,473
890.987549,472
891.104187,473
891.220886,482
891.337463,503
891.454102,496
891.57074,504
891.687378,490
891.804077,488
891.920654,493
892.037231,495
892.15387,481
892.270447,469
892.387085,462
892.503723,479
892.6203,488
892.736877,493
892.853516,471
892.970032,479
893.08667,479
893.203186,492
893.319763,486
893.43634,477
893.552917,451
893.669556,476
893.786011,479
893.902588,477
894.019165,474
894.135681,502
894.252197,485
894.368835,476
894.485291,474
894.601868,498
894.718384,488
894.8349,507
894.951355,456
895.067932,466
895.184448,456
895.300964,479
895.417419,481
895.533936,480
895.650452,470
895.766907,479
895.883423,466
895.999878,469
896.116333,477
896.232849,456
896.349304,473
896.465759,485
896.582214,472
896.698669,479
896.815125,463
896.931641,477
897.048035,467
897.164551,475
897.280884,454
897.397339,488
897.513794,492
897.630249,497
897.746582,486
897.863098,478
897.979431,465
898.095886,491
898.212341,471
898.328674,499
898.445129,469
898.561462,491
898.677795,474
898.794312,494
898.910645,476
899.026978,471
899.143433,486
899.259766,517
899.37616,494
899.492493,474
899.608765,470
899.725159,502
899.841553,480
899.957947,507
900.07428,470
900.190552,458
900.306946,477
900.423157,480
900.53949,476
900.655884,475
900.772156,489
900.888489,490
901.004822,507
901.121033,493
901.237366,481
901.353699,488
901.46991,484
901.586304,489
901.702515,499
901.818787,488
901.93512,503
902.051331,503
902.167603,509
902.283875,510
902.400085,529
902.516418,541
902.632629,533
902.74884,552
902.865112,564
902.981384,536
903.097595,536
903.213867,533
903.330017,515
903.446289,551
903.5625,510
903.67865,522
903.794922,532
903.911072,499
904.027344,536
904.143494,506
904.259705,498
904.375916,513
904.492065,501
904.608215,512
904.724426,515
904.840576,501
904.956726,518
905.072876,498
905.189087,490
905.305176,485
905.421387,481
905.537537,495
905.653687,494
905.769775,486
905.885925,490
906.002014,487
906.118164,495
906.234314,472
906.350403,471
906.466492,490
906.582642,470
906.69873,479
906.814758,485
906.930908,473
907.046936,449
907.163086,492
907.279175,466
907.395264,467
907.511353,456
907.62738,490
907.743408,459
907.859497,465
907.975525,479
908.091553,480
908.207703,464
908.32373,487
908.439758,478
908.555786,480
908.671814,459
908.787842,470
908.90387,459
909.019775,475
909.135864,466
909.251892,468
909.367859,488
909.483826,504
909.599854,464
909.715881,479
909.831848,460
909.947815,486
910.063782,471
910.179749,472
910.295776,487
910.411743,474
910.527649,478
910.643616,489
910.759583,477
910.875488,466
910.991455,471
911.107361,452
911.223267,477
911.339294,484
911.4552,470
911.571106,463
911.687073,469
911.802979,461
911.918823,479
912.034729,479
912.150635,476
912.266602,475
912.382446,476
912.498352,473
912.614197,483
912.730103,477
912.846008,452
