792.44574,593
792.56488,664
792.68396,695
792.80304,656
792.92218,633
793.041199,609
793.160339,604
793.279419,606
793.398499,617
793.517578,598
793.636658,584
793.755737,618
793.874817,618
793.993896,626
794.112976,630
794.232056,605
794.351074,589
794.470215,589
794.589233,603
794.708313,600
794.827393,596
794.946411,589
795.065552,619
795.18457,592
795.303589,593
795.422668,601
795.541687,595
795.660767,603
795.779846,581
795.898865,582
796.017883,565
796.136963,591
796.255981,604
796.375061,589
796.49408,598
796.613037,584
796.732117,599
796.851135,574
796.970154,604
797.089233,596
797.208191,568
797.327271,572
797.446228,557
797.565186,561
797.684265,578
797.803223,571
797.922241,566
798.04126,565
798.160278,598
798.279297,566
798.398315,569
798.517273,582
798.636292,549
798.75531,565
798.874268,586
798.993286,588
799.112244,589
799.231323,568
799.350281,598
799.469238,593
799.588257,591
799.707153,590
799.826111,593
799.945129,577
800.064087,598
800.183044,587
800.302063,608
800.421021,570
800.539978,587
800.658936,601
800.777893,584
800.896912,579
801.015747,593
801.134705,560
801.253723,579
801.37262,575
801.491638,577
801.610535,585
801.729492,592
801.84845,559
801.967407,609
802.086243,592
802.205261,573
802.324158,586
802.443115,593
802.562073,592
802.680969,613
802.799927,595
802.918762,574
803.037659,598
803.156677,605
803.275574,596
803.39447,588
803.513428,572
803.632263,605
803.751221,617
803.870117,600
803.989014,587
804.107971,598
804.226746,606
804.345642,596
804.4646,583
804.583496,605
804.702393,604
804.821228,600
804.940125,621
805.059021,626
805.177917,605
805.296814,628
805.415649,599
805.534546,610
805.653442,585
805.772278,609
805.891113,597
806.01001,606
806.128906,596
806.247742,625
806.366577,579
806.485413,596
806.604309,614
806.723145,618
806.84198,613
806.960876,597
807.079712,620
807.198486,617
807.317383,625
807.436218,601
807.554993,636
807.673889,601
807.792725,594
807.91156,631
808.030396,624
808.14917,626
808.268005,605
808.386841,613
808.505676,614
808.624451,611
808.743286,604
808.862122,622
808.980896,597
809.099731,611
809.218506,621
809.337341,613
809.456116,663
809.57489,613
809.693726,602
809.8125,634
809.931274,638
810.050049,630
810.168884,624
810.287659,650
810.406372,617
810.525269,635
810.643982,604
810.762756,612
810.881531,643
811.000305,632
811.11908,600
811.237854,630
811.356567,626
811.475403,645
811.594116,616
811.71283,637
811.831604,620
811.950378,649
812.069153,617
812.187927,631
812.30658,634
812.425415,633
812.544128,645
812.662781,622
812.781616,620
812.900269,638
813.019043,632
813.137756,633
813.256531,629
813.375244,629
813.493896,649
813.612671,637
813.731384,614
813.850037,627
813.96875,630
814.087524,622
814.206238,615
814.324951,622
814.443604,621
814.562256,618
814.68103,623
814.799683,630
814.918335,610
815.037109,634
815.155762,600
815.274475,634
815.393188,606
815.511841,615
815.630554,605
815.749146,615
815.867859,597
815.986572,613
816.105164,614
816.223877,594
816.342529,609
816.461182,619
816.579895,623
816.698486,614
816.817139,633
816.935791,612
817.054504,603
817.173096,622
817.291748,603
817.4104,614
817.529053,599
817.647644,618
817.766235,581
817.884949,586
818.00354,577
818.122192,571
818.240845,542
818.359436,560
818.478088,547
818.59668,557
818.715271,536
818.833923,559
818.952515,549
819.071106,532
819.189758,517
819.30835,528
819.426941,494
819.545532,529
819.664124,522
819.782715,484
819.901306,505
820.019897,488
820.138489,492
820.25708,499
820.375671,482
820.494202,485
820.612732,493
820.731384,507
820.849915,489
820.968506,490
821.087097,482
821.205627,478
821.324158,485
821.442749,500
821.561279,486
821.679871,514
821.798401,473
821.916931,504
822.035461,466
822.154053,477
822.272583,484
822.391174,489
822.509583,475
822.628174,470
822.746704,476
822.865234,483
822.983765,491
823.102295,484
823.220825,480
823.339294,476
823.457825,486
823.576355,490
823.694824,473
823.813354,496
823.931885,479
824.050354,478
824.168884,475
824.287354,494
824.405823,475
824.524353,486
824.642822,468
824.761353,489
824.879822,477
824.998291,453
825.116699,476
825.235291,490
825.353699,479
825.472168,495
825.590637,463
825.709106,475
825.827576,464
825.946045,470
826.064453,451
826.182983,471
826.301392,462
826.4198,473
826.53833,477
826.656738,467
826.775208,465
826.893677,453
827.012024,450
827.130493,478
827.248962,484
827.36731,474
827.485779,446
827.604248,463
827.722595,478
827.841064,474
827.959412,457
828.077942,467
828.196289,444
828.314636,474
828.433105,467
828.551514,455
828.669861,462
828.78833,455
828.906677,468
829.025085,455
829.143433,453
829.261841,439
829.38031,442
829.498657,474
829.617004,464
829.735413,470
829.85376,448
829.972107,464
830.090515,440
830.208862,465
830.327209,460
830.445557,454
830.563904,461
830.682312,474
830.800659,450
830.919006,465
831.037354,456
831.155701,465
831.274048,465
831.392395,469
831.51062,460
831.629028,456
831.747314,444
831.865662,461
831.984009,463
832.102356,468
832.220642,444
832.338928,471
832.457275,442
832.575623,462
832.693909,455
832.812134,463
832.930481,441
833.048828,441
833.167114,446
833.2854,455
833.403687,449
833.521973,440
833.640259,459
833.758545,476
833.876831,453
833.995056,469
834.113281,460
834.231628,440
834.349915,439
834.468201,492
834.586426,462
834.704651,443
834.822998,446
834.941162,477
835.059448,473
835.177673,486
835.295959,458
835.414246,454
835.53241,454
835.650635,465
835.768921,463
835.887146,453
836.005371,461
836.123596,462
836.241821,446
836.360046,482
836.478271,470
836.596497,486
836.714722,464
836.832886,471
836.95105,465
837.069336,489
837.1875,483
837.305725,482
837.423889,474
837.542053,474
837.660339,470
837.778503,466
837.896667,471
838.014832,496
838.132996,449
838.25116,468
838.369385,468
838.487488,463
838.605713,444
838.723877,492
838.84198,476
838.960205,482
839.078308,477
839.196472,467
839.314636,468
839.4328,480
839.550964,468
839.669067,472
839.787231,460
839.905396,477
840.023499,459
840.141602,471
840.259766,466
840.377869,462
840.495972,453
840.614136,482
840.732239,435
840.850342,478
840.968445,455
841.086548,461
841.204651,459
841.322754,471
841.440918,451
841.55896,463
841.677002,453
841.795166,464
841.913208,462
842.031311,466
842.149353,449
842.267456,443
842.385498,441
842.503601,461
842.621643,456
842.739746,461
842.857788,458
842.97583,472
843.093933,443
843.211975,455
843.330017,452
843.44812,455
843.566101,450
843.684204,465
843.802246,453
843.920227,447
844.038269,430
844.156311,484
844.274292,445
844.392395,450
844.510376,435
844.628357,435
844.74646,437
844.864441,452
844.982422,452
845.100403,445
845.218384,456
845.336426,447
845.454468,430
845.572449,448
845.69043,438
845.808411,453
845.926453,452
846.044373,448
846.162354,454
846.280396,449
846.398315,453
846.516296,457
846.634216,447
846.752197,456
846.870178,454
846.988098,471
847.106079,440
847.22406,453
847.34198,452
847.4599,455
847.577881,444
847.695801,437
847.813782,445
847.931641,448
848.049561,447
848.167603,435
848.285461,437
848.403381,463
848.521362,448
848.639221,452
848.75708,440
848.875,468
848.99292,445
849.110901,446
849.22876,435
849.34668,450
849.464539,451
849.582458,445
849.700317,442
849.818176,460
849.936096,460
850.053955,433
850.171875,439
850.289673,458
850.407593,443
850.525452,444
850.643311,439
850.761169,457
850.878967,459
850.996887,440
851.114746,435
851.232544,459
851.350403,445
851.468262,444
851.58606,456
851.703979,452
851.821777,453
851.939636,444
852.057434,453
852.175232,447
852.293091,448
852.410889,448
852.528687,443
852.646545,448
852.764343,456
852.88208,464
852.999939,466
853.117676,452
853.235535,445
853.353271,457
853.471069,452
853.588928,440
853.706604,442
853.824402,464
853.9422,459
854.059998,461
854.177734,430
854.295532,440
854.413269,436
854.531006,442
854.648804,439
854.766541,448
854.884277,455
855.002014,478
855.119751,429
855.237549,446
855.355225,458
855.473022,444
855.590698,444
855.708435,464
855.826172,448
855.943848,451
856.061646,456
856.179321,442
856.296997,437
856.414795,467
856.53241,447
856.650085,454
856.767822,443
856.885559,455
857.003174,457
857.120911,453
857.238586,453
857.356201,463
857.473938,468
857.591614,444
857.709351,461
857.826965,442
857.944641,450
858.062317,469
858.179993,447
858.297668,443
858.415283,440
858.532959,463
858.650574,470
858.768188,462
858.885803,474
859.003479,432
859.121094,446
859.23877,456
859.356384,474
859.473999,469
859.591675,429
859.709229,463
859.826843,442
859.944458,463
860.062012,456
860.179626,453
860.297302,471
860.414856,456
860.532471,440
860.650024,468
860.767639,440
860.885193,442
861.002808,447
861.120361,465
861.237976,445
861.35553,460
861.473022,446
861.590698,460
861.708191,448
861.825745,464
861.943298,448
862.060852,457
862.178406,452
862.295959,465
862.413513,456
862.531006,440
862.64856,436
862.766113,451
862.883667,426
863.00116,439
863.118713,434
863.236206,447
863.353699,450
863.471252,440
863.588745,440
863.706177,464
863.82373,458
863.941162,468
864.058716,439
864.176208,464
864.29364,434
864.411194,459
864.528687,441
864.646118,453
864.763611,462
864.881042,433
864.998535,438
865.116028,461
865.233459,453
865.350891,460
865.468384,462
865.585754,473
865.703308,441
865.820679,470
865.938171,451
866.055542,466
866.173035,449
866.290466,466
866.407837,446
866.52533,456
866.6427,449
866.760071,469
866.877563,448
866.994934,461
867.112305,422
867.229736,457
867.347107,457
867.464539,446
867.58197,455
867.699341,457
867.81665,458
867.934082,460
868.051453,471
868.168823,469
868.286194,437
868.403564,450
868.520935,458
868.638306,463
868.755676,432
868.872986,443
868.990295,458
869.107727,460
869.225037,458
869.342346,450
869.459717,450
869.577026,454
869.694336,438
869.811707,447
869.929016,445
870.046326,438
870.163635,439
870.280945,451
870.398254,445
870.515564,444
870.632812,482
870.750183,465
870.867432,472
870.984741,450
871.102051,443
871.219299,476
871.336609,438
871.453918,457
871.571106,461
871.688416,466
871.805664,451
871.922852,448
872.040222,443
872.157471,447
872.274719,451
872.391968,452
872.509155,466
872.626465,460
872.743652,440
872.860962,435
872.978149,453
873.095337,456
873.212646,445
873.329834,457
873.44696,447
873.564209,446
873.681396,436
873.798645,471
873.915894,445
874.03302,422
874.150208,466
874.267456,461
874.384583,444
874.501831,455
874.618958,445
874.736145,470
874.853333,449
874.970459,471
875.087646,451
875.204834,442
875.32196,434
875.439148,455
875.556274,447
875.673401,456
875.790527,440
875.907715,468
876.024841,445
876.141968,470
876.259094,464
876.376282,439
876.493347,442
876.610474,450
876.7276,438
876.844727,439
876.961853,438
877.078918,442
877.195984,445
877.313171,452
877.430237,445
877.547302,475
877.664368,462
877.781433,466
877.898499,454
878.015625,454
878.13269,439
878.249695,445
878.366821,436
878.483887,464
878.600952,446
878.717957,443
878.834961,442
878.952087,481
879.069092,450
879.186157,475
879.303162,460
879.420227,465
879.537231,454
879.654236,449
879.77124,431
879.888306,450
880.005249,440
880.122314,454
880.239319,434
880.356323,455
880.473328,457
880.590271,449
880.707275,444
880.824341,468
880.941284,440
881.058228,459
881.175232,458
881.292236,441
881.40918,455
881.526123,438
881.643066,453
881.760071,443
881.877014,450
881.993958,452
882.11084,453
882.227783,453
882.344727,447
882.46167,451
882.578613,434
882.695618,438
882.812439,447
882.929382,463
883.046326,433
883.163208,446
883.280151,447
883.397034,435
883.513916,452
883.630798,470
883.747742,438
883.864563,452
883.981506,458
884.098389,460
884.21521,440
884.332153,456
884.448975,473
884.565796,454
884.682678,453
884.7995,460
884.916443,470
885.033264,464
885.150085,438
885.266968,450
885.383789,458
885.500671,466
885.617493,466
885.734314,448
885.851196,440
885.967896,444
886.084717,458
886.201599,447
886.318359,449
886.435181,460
886.552002,444
886.668762,466
886.785645,458
886.902344,467
887.019165,455
887.135925,441
887.252747,455
887.369446,456
887.486267,435
887.603027,473
887.719788,452
887.836548,444
887.953247,479
888.070068,452
888.186829,454
888.303528,462
888.420288,456
888.536987,447
888.653687,444
888.770447,455
888.887146,456
889.003967,459
889.120667,457
889.237305,450
889.354065,454
889.470703,452
889.587463,439
889.704163,458
889.820862,443
889.937561,460
890.054199,457
890.170837,446
890.287598,436
890.404236,451
890.520874,469
890.637634,453
890.754211,455
890.87085,454
890.987549,433
891.104187,456
891.220886,462
891.337463,473
891.454102,449
891.57074,470
891.687378,462
891.804077,454
891.920654,452
892.037231,463
892.15387,472
892.270447,450
892.387085,452
892.503723,476
892.6203,438
892.736877,451
892.853516,443
892.970032,471
893.08667,463
893.203186,448
893.319763,452
893.43634,445
893.552917,469
893.669556,465
893.786011,453
893.902588,462
894.019165,448
894.135681,458
894.252197,443
894.368835,459
894.485291,463
894.601868,464
894.718384,447
894.8349,455
894.951355,465
895.067932,458
895.184448,443
895.300964,471
895.417419,473
895.533936,447
895.650452,449
895.766907,472
895.883423,457
895.999878,480
896.116333,454
896.232849,470
896.349304,463
896.465759,486
896.582214,453
896.698669,477
896.815125,452
896.931641,473
897.048035,458
897.164551,460
897.280884,460
897.397339,469
897.513794,472
897.630249,452
897.746582,460
897.863098,451
897.979431,457
898.095886,458
898.212341,467
898.328674,475
898.445129,456
898.561462,463
898.677795,439
898.794312,466
898.910645,469
899.026978,447
899.143433,453
899.259766,451
899.37616,473
899.492493,469
899.608765,462
899.725159,480
899.841553,451
899.957947,473
900.07428,456
900.190552,472
900.306946,448
900.423157,476
900.53949,473
900.655884,452
900.772156,462
900.888489,466
901.004822,462
901.121033,448
901.237366,471
901.353699,464
901.46991,461
901.586304,467
901.702515,466
901.818787,464
901.93512,482
902.051331,458
902.167603,460
902.283875,466
902.400085,459
902.516418,470
902.632629,454
902.74884,472
902.865112,457
902.981384,459
903.097595,484
903.213867,452
903.330017,478
903.446289,460
903.5625,477
903.67865,465
903.794922,454
903.911072,456
904.027344,467
904.143494,479
904.259705,465
904.375916,462
904.492065,465
904.608215,464
904.724426,458
904.840576,451
904.956726,463
905.072876,467
905.189087,466
905.305176,484
905.421387,446
905.537537,461
905.653687,455
905.769775,474
905.885925,462
906.002014,455
906.118164,457
906.234314,464
906.350403,470
906.466492,469
906.582642,443
906.69873,452
906.814758,469
906.930908,458
907.046936,473
907.163086,457
907.279175,465
907.395264,453
907.511353,467
907.62738,481
907.743408,472
907.859497,475
907.975525,447
908.091553,457
908.207703,443
908.32373,482
908.439758,467
908.555786,464
908.671814,485
908.787842,467
908.90387,463
909.019775,458
909.135864,451
909.251892,480
909.367859,471
909.483826,484
909.599854,459
909.715881,465
909.831848,470
909.947815,464
910.063782,454
910.179749,471
910.295776,476
910.411743,467
910.527649,459
910.643616,468
910.759583,455
910.875488,470
910.991455,468
911.107361,465
911.223267,461
911.339294,459
911.4552,474
911.571106,472
911.687073,475
911.802979,464
911.918823,457
912.034729,471
912.150635,483
912.266602,460
912.382446,456
912.498352,473
912.614197,446
912.730103,457
912.846008,465
792.44574,619
792.56488,654
792.68396,706
792.80304,672
792.92218,615
793.041199,612
793.160339,606
793.279419,621
793.398499,605
793.517578,620
793.636658,621
793.755737,634
793.874817,619
793.993896,634
794.112976,616
794.232056,593
794.351074,601
794.470215,589
794.589233,638
794.708313,600
794.827393,593
794.946411,602
795.065552,607
795.18457,614
795.303589,603
795.422668,617
795.541687,609
795.660767,592
795.779846,588
795.898865,583
796.017883,613
796.136963,580
796.255981,593
796.375061,570
796.49408,579
796.613037,587
796.732117,572
796.851135,586
796.970154,584
797.089233,574
797.208191,588
797.327271,591
797.446228,598
797.565186,599
797.684265,596
797.803223,588
797.922241,604
798.04126,581
798.160278,579
798.279297,590
798.398315,603
798.517273,580
798.636292,573
798.75531,577
798.874268,594
798.993286,570
799.112244,549
799.231323,548
799.350281,575
799.469238,581
799.588257,595
799.707153,571
799.826111,575
799.945129,591
800.064087,599
800.183044,591
800.302063,569
800.421021,585
800.539978,590
800.658936,587
800.777893,590
800.896912,600
801.015747,574
801.134705,551
801.253723,590
801.37262,591
801.491638,581
801.610535,585
801.729492,575
801.84845,595
801.967407,594
802.086243,585
802.205261,594
802.324158,580
802.443115,589
802.562073,587
802.680969,592
802.799927,582
802.918762,591
803.037659,609
803.156677,584
803.275574,593
803.39447,602
803.513428,595
803.632263,573
803.751221,602
803.870117,587
803.989014,596
804.107971,595
804.226746,593
804.345642,617
804.4646,587
804.583496,611
804.702393,621
804.821228,596
804.940125,589
805.059021,597
805.177917,606
805.296814,595
805.415649,626
805.534546,619
805.653442,617
805.772278,600
805.891113,615
806.01001,615
806.128906,615
806.247742,608
806.366577,615
806.485413,623
806.604309,613
806.723145,621
806.84198,592
806.960876,597
807.079712,598
807.198486,608
807.317383,595
807.436218,622
807.554993,625
807.673889,626
807.792725,616
807.91156,603
808.030396,616
808.14917,610
808.268005,620
808.386841,639
808.505676,635
808.624451,651
808.743286,631
808.862122,618
808.980896,642
809.099731,629
809.218506,629
809.337341,624
809.456116,608
809.57489,614
809.693726,621
809.8125,643
809.931274,631
810.050049,619
810.168884,608
810.287659,620
810.406372,630
810.525269,651
810.643982,632
810.762756,625
810.881531,636
811.000305,633
811.11908,633
811.237854,620
811.356567,641
811.475403,631
811.594116,615
811.71283,628
811.831604,606
811.950378,626
812.069153,628
812.187927,642
812.30658,630
812.425415,627
812.544128,623
812.662781,661
812.781616,621
812.900269,660
813.019043,623
813.137756,613
813.256531,645
813.375244,655
813.493896,635
813.612671,625
813.731384,625
813.850037,631
813.96875,627
814.087524,642
814.206238,637
814.324951,657
814.443604,656
814.562256,637
814.68103,638
814.799683,645
814.918335,595
815.037109,632
815.155762,638
815.274475,607
815.393188,626
815.511841,622
815.630554,614
815.749146,611
815.867859,625
815.986572,600
816.105164,625
816.223877,597
816.342529,628
816.461182,620
816.579895,602
816.698486,626
816.817139,636
816.935791,619
817.054504,606
817.173096,620
817.291748,601
817.4104,627
817.529053,613
817.647644,617
817.766235,576
817.884949,596
818.00354,568
818.122192,553
818.240845,557
818.359436,547
818.478088,566
818.59668,543
818.715271,553
818.833923,533
818.952515,511
819.071106,516
819.189758,523
819.30835,531
819.426941,504
819.545532,517
819.664124,514
819.782715,500
819.901306,487
820.019897,515
820.138489,501
820.25708,491
820.375671,506
820.494202,500
820.612732,507
820.731384,507
820.849915,494
820.968506,505
821.087097,486
821.205627,495
821.324158,489
821.442749,511
821.561279,491
821.679871,486
821.798401,491
821.916931,485
822.035461,483
822.154053,478
822.272583,482
822.391174,490
822.509583,492
822.628174,486
822.746704,500
822.865234,494
822.983765,484
823.102295,481
823.220825,482
823.339294,479
823.457825,497
823.576355,477
823.694824,477
823.813354,495
823.931885,487
824.050354,492
824.168884,507
824.287354,492
824.405823,498
824.524353,498
824.642822,485
824.761353,486
824.879822,492
824.998291,497
825.116699,494
825.235291,499
825.353699,494
825.472168,463
825.590637,480
825.709106,495
825.827576,470
825.946045,466
826.064453,469
826.182983,493
826.301392,464
826.4198,501
826.53833,475
826.656738,471
826.775208,475
826.893677,468
827.012024,477
827.130493,472
827.248962,486
827.36731,452
827.485779,459
827.604248,468
827.722595,473
827.841064,470
827.959412,453
828.077942,482
828.196289,476
828.314636,454
828.433105,450
828.551514,480
828.669861,456
828.78833,481
828.906677,469
829.025085,455
829.143433,475
829.261841,470
829.38031,473
829.498657,456
829.617004,468
829.735413,476
829.85376,483
829.972107,463
830.090515,474
830.208862,451
830.327209,450
830.445557,471
830.563904,452
830.682312,465
830.800659,455
830.919006,466
831.037354,472
831.155701,441
831.274048,468
831.392395,461
831.51062,467
831.629028,465
831.747314,470
831.865662,464
831.984009,459
832.102356,459
832.220642,457
832.338928,459
832.457275,470
832.575623,459
832.693909,447
832.812134,477
832.930481,455
833.048828,472
833.167114,455
833.2854,446
833.403687,477
833.521973,455
833.640259,482
833.758545,465
833.876831,468
833.995056,453
834.113281,454
834.231628,457
834.349915,463
834.468201,451
834.586426,491
834.704651,465
834.822998,443
834.941162,432
835.059448,452
835.177673,465
835.295959,466
835.414246,471
835.53241,450
835.650635,465
835.768921,453
835.887146,448
836.005371,468
836.123596,468
836.241821,442
836.360046,468
836.478271,446
836.596497,487
836.714722,472
836.832886,475
836.95105,507
837.069336,476
837.1875,473
837.305725,477
837.423889,476
837.542053,485
837.660339,481
837.778503,501
837.896667,476
838.014832,490
838.132996,464
838.25116,487
838.369385,475
838.487488,475
838.605713,472
838.723877,474
838.84198,457
838.960205,472
839.078308,465
839.196472,464
839.314636,469
839.4328,484
839.550964,473
839.669067,488
839.787231,463
839.905396,494
840.023499,491
840.141602,471
840.259766,476
840.377869,463
840.495972,455
840.614136,475
840.732239,452
840.850342,457
840.968445,469
841.086548,488
841.204651,457
841.322754,476
841.440918,473
841.55896,446
841.677002,479
841.795166,457
841.913208,448
842.031311,440
842.149353,465
842.267456,449
842.385498,458
842.503601,459
842.621643,463
842.739746,443
842.857788,449
842.97583,461
843.093933,453
843.211975,453
843.330017,457
843.44812,474
843.566101,445
843.684204,457
843.802246,450
843.920227,463
844.038269,451
844.156311,455
844.274292,469
844.392395,453
844.510376,464
844.628357,471
844.74646,461
844.864441,446
844.982422,441
845.100403,443
845.218384,447
845.336426,450
845.454468,448
845.572449,467
845.69043,443
845.808411,465
845.926453,454
846.044373,447
846.162354,443
846.280396,445
846.398315,454
846.516296,465
846.634216,447
846.752197,458
846.870178,461
846.988098,464
847.106079,445
847.22406,445
847.34198,448
847.4599,446
847.577881,440
847.695801,463
847.813782,459
847.931641,460
848.049561,437
848.167603,459
848.285461,462
848.403381,449
848.521362,456
848.639221,439
848.75708,431
848.875,459
848.99292,451
849.110901,472
849.22876,432
849.34668,447
849.464539,462
849.582458,448
849.700317,438
849.818176,471
849.936096,434
850.053955,448
850.171875,461
850.289673,454
850.407593,429
850.525452,429
850.643311,456
850.761169,436
850.878967,437
850.996887,455
851.114746,438
851.232544,454
851.350403,457
851.468262,445
851.58606,444
851.703979,445
851.821777,441
851.939636,446
852.057434,453
852.175232,436
852.293091,449
852.410889,461
852.528687,448
852.646545,452
852.764343,451
852.88208,449
852.999939,434
853.117676,458
853.235535,454
853.353271,453
853.471069,455
853.588928,449
853.706604,437
853.824402,450
853.9422,456
854.059998,463
854.177734,457
854.295532,462
854.413269,456
854.531006,455
854.648804,456
854.766541,458
854.884277,442
855.002014,452
855.119751,444
855.237549,449
855.355225,449
855.473022,441
855.590698,450
855.708435,457
855.826172,434
855.943848,465
856.061646,468
856.179321,484
856.296997,445
856.414795,473
856.53241,465
856.650085,455
856.767822,464
856.885559,467
857.003174,421
857.120911,464
857.238586,473
857.356201,476
857.473938,469
857.591614,449
857.709351,475
857.826965,439
857.944641,462
858.062317,454
858.179993,467
858.297668,476
858.415283,462
858.532959,465
858.650574,463
858.768188,462
858.885803,450
859.003479,457
859.121094,456
859.23877,452
859.356384,446
859.473999,443
859.591675,449
859.709229,463
859.826843,462
859.944458,455
860.062012,439
860.179626,434
860.297302,445
860.414856,449
860.532471,456
860.650024,461
860.767639,456
860.885193,461
861.002808,451
861.120361,464
861.237976,442
861.35553,443
861.473022,460
861.590698,460
861.708191,455
861.825745,471
861.943298,420
862.060852,469
862.178406,443
862.295959,443
862.413513,456
862.531006,459
862.64856,457
862.766113,460
862.883667,462
863.00116,472
863.118713,423
863.236206,424
863.353699,422
863.471252,454
863.588745,467
863.706177,452
863.82373,434
863.941162,474
864.058716,458
864.176208,449
864.29364,450
864.411194,460
864.528687,448
864.646118,451
864.763611,448
864.881042,474
864.998535,461
865.116028,443
865.233459,453
865.350891,450
865.468384,461
865.585754,471
865.703308,449
865.820679,443
865.938171,448
866.055542,438
866.173035,431
866.290466,465
866.407837,444
866.52533,457
866.6427,448
866.760071,456
866.877563,461
866.994934,451
867.112305,448
867.229736,451
867.347107,437
867.464539,455
867.58197,433
867.699341,459
867.81665,444
867.934082,451
868.051453,444
868.168823,449
868.286194,467
868.403564,459
868.520935,436
868.638306,458
868.755676,441
868.872986,452
868.990295,459
869.107727,443
869.225037,453
869.342346,449
869.459717,470
869.577026,453
869.694336,448
869.811707,450
869.929016,457
870.046326,461
870.163635,444
870.280945,473
870.398254,437
870.515564,453
870.632812,447
870.750183,440
870.867432,457
870.984741,463
871.102051,464
871.219299,465
871.336609,450
871.453918,468
871.571106,454
871.688416,450
871.805664,447
871.922852,446
872.040222,446
872.157471,456
872.274719,456
872.391968,457
872.509155,458
872.626465,447
872.743652,441
872.860962,476
872.978149,451
873.095337,446
873.212646,453
873.329834,464
873.44696,449
873.564209,471
873.681396,458
873.798645,459
873.915894,459
874.03302,460
874.150208,448
874.267456,439
874.384583,454
874.501831,468
874.618958,456
874.736145,447
874.853333,466
874.970459,456
875.087646,446
875.204834,456
875.32196,471
875.439148,468
875.556274,454
875.673401,452
875.790527,447
875.907715,456
876.024841,449
876.141968,465
876.259094,442
876.376282,463
876.493347,450
876.610474,451
876.7276,460
876.844727,460
876.961853,460
877.078918,479
877.195984,449
877.313171,470
877.430237,447
877.547302,460
877.664368,443
877.781433,465
877.898499,464
878.015625,452
878.13269,457
878.249695,461
878.366821,452
878.483887,464
878.600952,450
878.717957,472
878.834961,466
878.952087,447
879.069092,468
879.186157,451
879.303162,437
879.420227,458
879.537231,457
879.654236,474
879.77124,445
879.888306,470
880.005249,460
880.122314,443
880.239319,472
880.356323,463
880.473328,452
880.590271,437
880.707275,448
880.824341,463
880.941284,448
881.058228,463
881.175232,451
881.292236,461
881.40918,456
881.526123,461
881.643066,457
881.760071,463
881.877014,454
881.993958,458
882.11084,464
882.227783,454
882.344727,449
882.46167,469
882.578613,456
882.695618,472
882.812439,436
882.929382,453
883.046326,459
883.163208,451
883.280151,454
883.397034,471
883.513916,463
883.630798,448
883.747742,465
883.864563,435
883.981506,477
884.098389,458
884.21521,445
884.332153,478
884.448975,458
884.565796,461
884.682678,454
884.7995,459
884.916443,446
885.033264,461
885.150085,452
885.266968,462
885.383789,442
885.500671,459
885.617493,457
885.734314,481
885.851196,452
885.967896,457
886.084717,463
886.201599,468
886.318359,464
886.435181,466
886.552002,449
886.668762,464
886.785645,449
886.902344,458
887.019165,454
887.135925,460
887.252747,448
887.369446,470
887.486267,450
887.603027,459
887.719788,460
887.836548,469
887.953247,450
888.070068,440
888.186829,454
888.303528,457
888.420288,469
888.536987,466
888.653687,449
888.770447,474
888.887146,466
889.003967,467
889.120667,462
889.237305,457
889.354065,449
889.470703,456
889.587463,438
889.704163,468
889.820862,465
889.937561,442
890.054199,449
890.170837,455
890.287598,432
890.404236,475
890.520874,451
890.637634,466
890.754211,459
890.87085,460
890.987549,470
891.104187,463
891.220886,458
891.337463,459
891.454102,444
891.57074,475
891.687378,477
891.804077,453
891.920654,456
892.037231,452
892.15387,449
892.270447,475
892.387085,463
892.503723,467
892.6203,437
892.736877,465
892.853516,459
892.970032,451
893.08667,455
893.203186,471
893.319763,466
893.43634,485
893.552917,442
893.669556,458
893.786011,444
893.902588,472
894.019165,459
894.135681,475
894.252197,473
894.368835,472
894.485291,444
894.601868,465
894.718384,459
894.8349,493
894.951355,448
895.067932,450
895.184448,458
895.300964,472
895.417419,463
895.533936,458
895.650452,464
895.766907,465
895.883423,451
895.999878,454
896.116333,460
896.232849,477
896.349304,459
896.465759,462
896.582214,460
896.698669,469
896.815125,460
896.931641,448
897.048035,453
897.164551,464
897.280884,442
897.397339,470
897.513794,478
897.630249,469
897.746582,453
897.863098,484
897.979431,453
898.095886,472
898.212341,457
898.328674,453
898.445129,449
898.561462,457
898.677795,458
898.794312,485
898.910645,451
899.026978,470
899.143433,478
899.259766,468
899.37616,448
899.492493,476
899.608765,465
899.725159,466
899.841553,464
899.957947,457
900.07428,463
900.190552,453
900.306946,461
900.423157,465
900.53949,467
900.655884,459
900.772156,464
900.888489,478
901.004822,455
901.121033,463
901.237366,462
901.353699,468
901.46991,458
901.586304,448
901.702515,470
901.818787,491
901.93512,479
902.051331,459
902.167603,459
902.283875,475
902.400085,481
902.516418,450
902.632629,462
902.74884,455
902.865112,472
902.981384,477
903.097595,476
903.213867,494
903.330017,466
903.446289,464
903.5625,468
903.67865,470
903.794922,459
903.911072,479
904.027344,458
904.143494,477
904.259705,474
904.375916,473
904.492065,467
904.608215,458
904.724426,461
904.840576,469
904.956726,472
905.072876,466
905.189087,459
905.305176,453
905.421387,482
905.537537,486
905.653687,473
905.769775,474
905.885925,466
906.002014,449
906.118164,470
906.234314,488
906.350403,466
906.466492,460
906.582642,460
906.69873,480
906.814758,481
906.930908,460
907.046936,482
907.163086,457
907.279175,462
907.395264,478
907.511353,453
907.62738,486
907.743408,473
907.859497,458
907.975525,465
908.091553,456
908.207703,465
908.32373,477
908.439758,473
908.555786,479
908.671814,464
908.787842,491
908.90387,469
909.019775,458
909.135864,449
909.251892,476
909.367859,450
909.483826,471
909.599854,463
909.715881,475
909.831848,467
909.947815,449
910.063782,484
910.179749,487
910.295776,443
910.411743,461
910.527649,454
910.643616,463
910.759583,467
910.875488,468
910.991455,467
911.107361,485
911.223267,465
911.339294,482
911.4552,472
911.571106,466
911.687073,485
911.802979,480
911.918823,455
912.034729,466
912.150635,456
912.266602,468
912.382446,472
912.498352,472
912.614197,456
912.730103,475
912.846008,462
792.44574,614
792.56488,667
792.68396,692
792.80304,679
792.92218,602
793.041199,593
793.160339,603
793.279419,623
793.398499,592
793.517578,599
793.636658,610
793.755737,621
793.874817,617
793.993896,625
794.112976,621
794.232056,598
794.351074,594
794.470215,611
794.589233,618
794.708313,607
794.827393,582
794.946411,569
795.065552,596
795.18457,597
795.303589,598
795.422668,617
795.541687,593
795.660767,595
795.779846,585
795.898865,589
796.017883,581
796.136963,577
796.255981,594
796.375061,558
796.49408,605
796.613037,564
796.732117,586
796.851135,584
796.970154,582
797.089233,596
797.208191,555
797.327271,588
797.446228,578
797.565186,581
797.684265,584
797.803223,588
797.922241,596
798.04126,570
798.160278,593
798.279297,583
798.398315,584
798.517273,576
798.636292,587
798.75531,561
798.874268,578
798.993286,578
799.112244,592
799.231323,581
799.350281,563
799.469238,561
799.588257,584
799.707153,601
799.826111,577
799.945129,580
800.064087,556
800.183044,584
800.302063,586
800.421021,596
800.539978,552
800.658936,579
800.777893,565
800.896912,605
801.015747,579
801.134705,570
801.253723,582
801.37262,567
801.491638,572
801.610535,580
801.729492,578
801.84845,588
801.967407,571
802.086243,584
802.205261,578
802.324158,584
802.443115,607
802.562073,615
802.680969,575
802.799927,578
802.918762,596
803.037659,563
803.156677,586
803.275574,595
803.39447,609
803.513428,589
803.632263,598
803.751221,601
803.870117,605
803.989014,616
804.107971,591
804.226746,613
804.345642,595
804.4646,602
804.583496,608
804.702393,625
804.821228,599
804.940125,633
805.059021,614
805.177917,626
805.296814,591
805.415649,617
805.534546,620
805.653442,606
805.772278,600
805.891113,617
806.01001,615
806.128906,620
806.247742,631
806.366577,625
806.485413,632
806.604309,606
806.723145,595
806.84198,607
806.960876,594
807.079712,611
807.198486,603
807.317383,628
807.436218,603
807.554993,627
807.673889,624
807.792725,621
807.91156,616
808.030396,624
808.14917,623
808.268005,622
808.386841,605
808.505676,603
808.624451,631
808.743286,626
808.862122,637
808.980896,611
809.099731,613
809.218506,631
809.337341,624
809.456116,633
809.57489,636
809.693726,631
809.8125,642
809.931274,644
810.050049,632
810.168884,620
810.287659,634
810.406372,619
810.525269,642
810.643982,627
810.762756,631
810.881531,622
811.000305,629
811.11908,644
811.237854,629
811.356567,638
811.475403,633
811.594116,648
811.71283,618
811.831604,633
811.950378,634
812.069153,622
812.187927,642
812.30658,641
812.425415,633
812.544128,649
812.662781,621
812.781616,624
812.900269,618
813.019043,605
813.137756,648
813.256531,646
813.375244,597
813.493896,641
813.612671,627
813.731384,640
813.850037,628
813.96875,627
814.087524,646
814.206238,637
814.324951,628
814.443604,599
814.562256,626
814.68103,631
814.799683,624
814.918335,639
815.037109,608
815.155762,630
815.274475,626
815.393188,621
815.511841,608
815.630554,623
815.749146,617
815.867859,611
815.986572,604
816.105164,615
816.223877,599
816.342529,605
816.461182,631
816.579895,596
816.698486,632
816.817139,632
816.935791,603
817.054504,617
817.173096,619
817.291748,612
817.4104,604
817.529053,611
817.647644,613
817.766235,572
817.884949,582
818.00354,571
818.122192,568
818.240845,556
818.359436,549
818.478088,561
818.59668,545
818.715271,544
818.833923,527
818.952515,530
819.071106,530
819.189758,498
819.30835,532
819.426941,533
819.545532,527
819.664124,512
819.782715,487
819.901306,518
820.019897,490
820.138489,517
820.25708,501
820.375671,509
820.494202,511
820.612732,502
820.731384,467
820.849915,481
820.968506,482
821.087097,493
821.205627,500
821.324158,490
821.442749,485
821.561279,491
821.679871,500
821.798401,492
821.916931,476
822.035461,502
822.154053,482
822.272583,480
822.391174,496
822.509583,473
822.628174,491
822.746704,469
822.865234,478
822.983765,492
823.102295,498
823.220825,485
823.339294,474
823.457825,493
823.576355,495
823.694824,489
823.813354,477
823.931885,490
824.050354,507
824.168884,478
824.287354,495
824.405823,486
824.524353,493
824.642822,489
824.761353,490
824.879822,504
824.998291,482
825.116699,513
825.235291,487
825.353699,477
825.472168,466
825.590637,496
825.709106,478
825.827576,478
825.946045,501
826.064453,457
826.182983,459
826.301392,476
826.4198,477
826.53833,469
826.656738,475
826.775208,479
826.893677,475
827.012024,489
827.130493,468
827.248962,462
827.36731,461
827.485779,473
827.604248,464
827.722595,482
827.841064,474
827.959412,489
828.077942,479
828.196289,470
828.314636,462
828.433105,469
828.551514,470
828.669861,476
828.78833,460
828.906677,467
829.025085,475
829.143433,472
829.261841,465
829.38031,487
829.498657,461
829.617004,467
829.735413,470
829.85376,461
829.972107,454
830.090515,458
830.208862,468
830.327209,476
830.445557,460
830.563904,458
830.682312,454
830.800659,454
830.919006,469
831.037354,460
831.155701,444
831.274048,473
831.392395,464
831.51062,458
831.629028,446
831.747314,459
831.865662,466
831.984009,450
832.102356,451
832.220642,476
832.338928,464
832.457275,464
832.575623,448
832.693909,448
832.812134,458
832.930481,473
833.048828,460
833.167114,457
833.2854,457
833.403687,486
833.521973,489
833.640259,466
833.758545,448
833.876831,466
833.995056,465
834.113281,474
834.231628,459
834.349915,453
834.468201,450
834.586426,459
834.704651,452
834.822998,456
834.941162,455
835.059448,470
835.177673,454
835.295959,464
835.414246,464
835.53241,476
835.650635,438
835.768921,470
835.887146,468
836.005371,472
836.123596,477
836.241821,482
836.360046,462
836.478271,472
836.596497,490
836.714722,461
836.832886,484
836.95105,470
837.069336,464
837.1875,488
837.305725,455
837.423889,472
837.542053,452
837.660339,487
837.778503,493
837.896667,473
838.014832,463
838.132996,476
838.25116,496
838.369385,483
838.487488,474
838.605713,478
838.723877,479
838.84198,473
838.960205,479
839.078308,455
839.196472,450
839.314636,486
839.4328,462
839.550964,463
839.669067,451
839.787231,480
839.905396,472
840.023499,486
840.141602,470
840.259766,475
840.377869,466
840.495972,471
840.614136,466
840.732239,455
840.850342,471
840.968445,481
841.086548,466
841.204651,482
841.322754,484
841.440918,457
841.55896,461
841.677002,476
841.795166,463
841.913208,471
842.031311,466
842.149353,466
842.267456,461
842.385498,472
842.503601,458
842.621643,464
842.739746,460
842.857788,447
842.97583,454
843.093933,460
843.211975,437
843.330017,483
843.44812,479
843.566101,457
843.684204,464
843.802246,461
843.920227,450
844.038269,473
844.156311,464
844.274292,453
844.392395,455
844.510376,460
844.628357,437
844.74646,456
844.864441,455
844.982422,455
845.100403,443
845.218384,442
845.336426,475
845.454468,445
845.572449,446
845.69043,456
845.808411,443
845.926453,464
846.044373,460
846.162354,468
846.280396,434
846.398315,471
846.516296,445
846.634216,460
846.752197,456
846.870178,487
846.988098,445
847.106079,441
847.22406,443
847.34198,466
847.4599,451
847.577881,436
847.695801,439
847.813782,444
847.931641,455
848.049561,461
848.167603,453
848.285461,453
848.403381,448
848.521362,446
848.639221,451
848.75708,451
848.875,444
848.99292,450
849.110901,449
849.22876,440
849.34668,454
849.464539,456
849.582458,457
849.700317,456
849.818176,436
849.936096,462
850.053955,473
850.171875,462
850.289673,431
850.407593,438
850.525452,447
850.643311,446
850.761169,461
850.878967,456
850.996887,466
851.114746,446
851.232544,438
851.350403,474
851.468262,446
851.58606,454
851.703979,462
851.821777,455
851.939636,451
852.057434,440
852.175232,444
852.293091,453
852.410889,445
852.528687,456
852.646545,436
852.764343,458
852.88208,436
852.999939,449
853.117676,434
853.235535,439
853.353271,440
853.471069,453
853.588928,466
853.706604,450
853.824402,457
853.9422,453
854.059998,446
854.177734,462
854.295532,461
854.413269,449
854.531006,451
854.648804,469
854.766541,456
854.884277,460
855.002014,462
855.119751,461
855.237549,456
855.355225,450
855.473022,446
855.590698,433
855.708435,471
855.826172,445
855.943848,454
856.061646,442
856.179321,467
856.296997,453
856.414795,457
856.53241,450
856.650085,460
856.767822,451
856.885559,474
857.003174,455
857.120911,460
857.238586,445
857.356201,479
857.473938,472
857.591614,441
857.709351,453
857.826965,474
857.944641,459
858.062317,443
858.179993,452
858.297668,447
858.415283,469
858.532959,464
858.650574,448
858.768188,481
858.885803,472
859.003479,463
859.121094,442
859.23877,462
859.356384,466
859.473999,453
859.591675,444
859.709229,464
859.826843,448
859.944458,454
860.062012,468
860.179626,457
860.297302,454
860.414856,466
860.532471,460
860.650024,464
860.767639,451
860.885193,449
861.002808,446
861.120361,482
861.237976,457
861.35553,471
861.473022,436
861.590698,458
861.708191,438
861.825745,458
861.943298,435
862.060852,454
862.178406,449
862.295959,442
862.413513,447
862.531006,462
862.64856,450
862.766113,445
862.883667,462
863.00116,481
863.118713,461
863.236206,441
863.353699,456
863.471252,445
863.588745,459
863.706177,462
863.82373,447
863.941162,462
864.058716,456
864.176208,443
864.29364,454
864.411194,451
864.528687,463
864.646118,471
864.763611,457
864.881042,457
864.998535,443
865.116028,441
865.233459,441
865.350891,471
865.468384,460
865.585754,439
865.703308,458
865.820679,445
865.938171,455
866.055542,472
866.173035,459
866.290466,467
866.407837,438
866.52533,448
866.6427,479
866.760071,447
866.877563,446
866.994934,450
867.112305,469
867.229736,449
867.347107,435
867.464539,448
867.58197,450
867.699341,442
867.81665,462
867.934082,443
868.051453,444
868.168823,445
868.286194,458
868.403564,446
868.520935,463
868.638306,464
868.755676,454
868.872986,455
868.990295,455
869.107727,463
869.225037,451
869.342346,463
869.459717,458
869.577026,442
869.694336,448
869.811707,444
869.929016,447
870.046326,458
870.163635,465
870.280945,437
870.398254,466
870.515564,447
870.632812,460
870.750183,450
870.867432,458
870.984741,436
871.102051,469
871.219299,447
871.336609,467
871.453918,459
871.571106,453
871.688416,446
871.805664,460
871.922852,456
872.040222,451
872.157471,470
872.274719,444
872.391968,454
872.509155,458
872.626465,456
872.743652,443
872.860962,445
872.978149,468
873.095337,454
873.212646,462
873.329834,444
873.44696,461
873.564209,447
873.681396,438
873.798645,461
873.915894,443
874.03302,443
874.150208,475
874.267456,449
874.384583,454
874.501831,473
874.618958,452
874.736145,458
874.853333,454
874.970459,447
875.087646,435
875.204834,456
875.32196,447
875.439148,444
875.556274,448
875.673401,440
875.790527,460
875.907715,460
876.024841,454
876.141968,452
876.259094,434
876.376282,444
876.493347,446
876.610474,459
876.7276,431
876.844727,434
876.961853,467
877.078918,454
877.195984,451
877.313171,461
877.430237,454
877.547302,436
877.664368,460
877.781433,453
877.898499,448
878.015625,452
878.13269,461
878.249695,442
878.366821,455
878.483887,446
878.600952,470
878.717957,456
878.834961,477
878.952087,435
879.069092,447
879.186157,455
879.303162,453
879.420227,475
879.537231,438
879.654236,447
879.77124,452
879.888306,438
880.005249,447
880.122314,453
880.239319,455
880.356323,449
880.473328,457
880.590271,453
880.707275,442
880.824341,457
880.941284,457
881.058228,444
881.175232,471
881.292236,450
881.40918,453
881.526123,461
881.643066,459
881.760071,455
881.877014,459
881.993958,459
882.11084,442
882.227783,469
882.344727,471
882.46167,461
882.578613,448
882.695618,450
882.812439,453
882.929382,442
883.046326,457
883.163208,450
883.280151,461
883.397034,456
883.513916,434
883.630798,456
883.747742,454
883.864563,443
883.981506,449
884.098389,447
884.21521,450
884.332153,447
884.448975,459
884.565796,452
884.682678,468
884.7995,456
884.916443,450
885.033264,440
885.150085,457
885.266968,433
885.383789,475
885.500671,458
885.617493,449
885.734314,448
885.851196,465
885.967896,470
886.084717,469
886.201599,455
886.318359,459
886.435181,458
886.552002,469
886.668762,458
886.785645,460
886.902344,437
887.019165,471
887.135925,443
887.252747,448
887.369446,472
887.486267,459
887.603027,455
887.719788,438
887.836548,447
887.953247,465
888.070068,446
888.186829,471
888.303528,456
888.420288,460
888.536987,460
888.653687,448
888.770447,460
888.887146,466
889.003967,464
889.120667,474
889.237305,443
889.354065,458
889.470703,461
889.587463,450
889.704163,464
889.820862,463
889.937561,468
890.054199,453
890.170837,436
890.287598,458
890.404236,460
890.520874,460
890.637634,482
890.754211,466
890.87085,451
890.987549,441
891.104187,461
891.220886,441
891.337463,467
891.454102,485
891.57074,429
891.687378,483
891.804077,436
891.920654,464
892.037231,456
892.15387,450
892.270447,465
892.387085,474
892.503723,491
892.6203,454
892.736877,462
892.853516,452
892.970032,468
893.08667,464
893.203186,455
893.319763,461
893.43634,452
893.552917,471
893.669556,445
893.786011,441
893.902588,447
894.019165,462
894.135681,464
894.252197,459
894.368835,454
894.485291,466
894.601868,461
894.718384,469
894.8349,453
894.951355,479
895.067932,467
895.184448,458
895.300964,460
895.417419,464
895.533936,462
895.650452,456
895.766907,459
895.883423,468
895.999878,460
896.116333,460
896.232849,455
896.349304,453
896.465759,470
896.582214,474
896.698669,451
896.815125,467
896.931641,453
897.048035,462
897.164551,449
897.280884,471
897.397339,457
897.513794,485
897.630249,469
897.746582,472
897.863098,471
897.979431,470
898.095886,484
898.212341,474
898.328674,459
898.445129,456
898.561462,468
898.677795,465
898.794312,462
898.910645,491
899.026978,463
899.143433,471
899.259766,478
899.37616,456
899.492493,452
899.608765,476
899.725159,467
899.841553,465
899.957947,436
900.07428,456
900.190552,473
900.306946,466
900.423157,473
900.53949,460
900.655884,488
900.772156,469
900.888489,455
901.004822,462
901.121033,477
901.237366,461
901.353699,459
901.46991,465
901.586304,461
901.702515,474
901.818787,458
901.93512,479
902.051331,449
902.167603,462
902.283875,483
902.400085,460
902.516418,452
902.632629,483
902.74884,446
902.865112,454
902.981384,467
903.097595,471
903.213867,482
903.330017,479
903.446289,469
903.5625,471
903.67865,476
903.794922,467
903.911072,444
904.027344,469
904.143494,467
904.259705,491
904.375916,458
904.492065,459
904.608215,461
904.724426,459
904.840576,484
904.956726,475
905.072876,473
905.189087,455
905.305176,459
905.421387,467
905.537537,465
905.653687,459
905.769775,460
905.885925,486
906.002014,472
906.118164,486
906.234314,478
906.350403,470
906.466492,474
906.582642,453
906.69873,487
906.814758,464
906.930908,494
907.046936,469
907.163086,451
907.279175,470
907.395264,476
907.511353,454
907.62738,456
907.743408,455
907.859497,465
907.975525,466
908.091553,460
908.207703,456
908.32373,466
908.439758,472
908.555786,441
908.671814,457
908.787842,461
908.90387,465
909.019775,472
909.135864,497
909.251892,460
909.367859,457
909.483826,458
909.599854,467
909.715881,461
909.831848,457
909.947815,472
910.063782,483
910.179749,466
910.295776,489
910.411743,457
910.527649,469
910.643616,482
910.759583,475
910.875488,491
910.991455,455
911.107361,461
911.223267,472
911.339294,465
911.4552,469
911.571106,471
911.687073,465
911.802979,470
911.918823,477
912.034729,470
912.150635,486
912.266602,459
912.382446,473
912.498352,465
912.614197,466
912.730103,469
912.846008,471
