792.44574,634
792.56488,657
792.68396,677
792.80304,666
792.92218,605
793.041199,596
793.160339,621
793.279419,625
793.398499,624
793.517578,598
793.636658,611
793.755737,610
793.874817,621
793.993896,613
794.112976,605
794.232056,588
794.351074,610
794.470215,586
794.589233,611
794.708313,574
794.827393,607
794.946411,585
795.065552,611
795.18457,589
795.303589,586
795.422668,605
795.541687,613
795.660767,584
795.779846,581
795.898865,573
796.017883,583
796.136963,586
796.255981,586
796.375061,575
796.49408,568
796.613037,578
796.732117,604
796.851135,563
796.970154,582
797.089233,598
797.208191,545
797.327271,572
797.446228,591
797.565186,566
797.684265,571
797.803223,573
797.922241,564
798.04126,570
798.160278,571
798.279297,579
798.398315,582
798.517273,577
798.636292,575
798.75531,604
798.874268,562
798.993286,560
799.112244,569
799.231323,559
799.350281,589
799.469238,578
799.588257,566
799.707153,597
799.826111,589
799.945129,566
800.064087,591
800.183044,561
800.302063,563
800.421021,577
800.539978,577
800.658936,581
800.777893,579
800.896912,565
801.015747,569
801.134705,588
801.253723,575
801.37262,560
801.491638,581
801.610535,583
801.729492,564
801.84845,580
801.967407,574
802.086243,576
802.205261,599
802.324158,566
802.443115,587
802.562073,575
802.680969,591
802.799927,589
802.918762,598
803.037659,572
803.156677,605
803.275574,592
803.39447,606
803.513428,573
803.632263,614
803.751221,588
803.870117,604
803.989014,603
804.107971,595
804.226746,616
804.345642,585
804.4646,580
804.583496,606
804.702393,593
804.821228,597
804.940125,589
805.059021,595
805.177917,603
805.296814,606
805.415649,593
805.534546,609
805.653442,583
805.772278,611
805.891113,590
806.01001,588
806.128906,589
806.247742,597
806.366577,593
806.485413,609
806.604309,595
806.723145,590
806.84198,621
806.960876,622
807.079712,612
807.198486,622
807.317383,592
807.436218,616
807.554993,623
807.673889,625
807.792725,594
807.91156,621
808.030396,604
808.14917,586
808.268005,596
808.386841,604
808.505676,607
808.624451,616
808.743286,615
808.862122,603
808.980896,606
809.099731,620
809.218506,613
809.337341,596
809.456116,606
809.57489,625
809.693726,631
809.8125,636
809.931274,622
810.050049,606
810.168884,617
810.287659,650
810.406372,631
810.525269,602
810.643982,622
810.762756,643
810.881531,628
811.000305,617
811.11908,628
811.237854,611
811.356567,613
811.475403,626
811.594116,644
811.71283,612
811.831604,659
811.950378,587
812.069153,646
812.187927,623
812.30658,592
812.425415,631
812.544128,604
812.662781,601
812.781616,611
812.900269,613
813.019043,614
813.137756,622
813.256531,603
813.375244,613
813.493896,597
813.612671,621
813.731384,628
813.850037,613
813.96875,618
814.087524,634
814.206238,623
814.324951,611
814.443604,633
814.562256,609
814.68103,606
814.799683,664
814.918335,590
815.037109,639
815.155762,616
815.274475,610
815.393188,607
815.511841,624
815.630554,612
815.749146,606
815.867859,595
815.986572,616
816.105164,590
816.223877,627
816.342529,579
816.461182,613
816.579895,615
816.698486,596
816.817139,602
816.935791,614
817.054504,625
817.173096,609
817.291748,602
817.4104,620
817.529053,596
817.647644,584
817.766235,574
817.884949,546
818.00354,566
818.122192,552
818.240845,555
818.359436,537
818.478088,550
818.59668,534
818.715271,535
818.833923,518
818.952515,513
819.071106,533
819.189758,499
819.30835,533
819.426941,479
819.545532,511
819.664124,491
819.782715,502
819.901306,507
820.019897,510
820.138489,513
820.25708,485
820.375671,491
820.494202,479
820.612732,482
820.731384,476
820.849915,481
820.968506,497
821.087097,496
821.205627,484
821.324158,491
821.442749,487
821.561279,479
821.679871,480
821.798401,469
821.916931,502
822.035461,472
822.154053,490
822.272583,469
822.391174,492
822.509583,488
822.628174,472
822.746704,478
822.865234,472
822.983765,488
823.102295,476
823.220825,482
823.339294,493
823.457825,478
823.576355,483
823.694824,478
823.813354,484
823.931885,483
824.050354,485
824.168884,490
824.287354,501
824.405823,474
824.524353,496
824.642822,499
824.761353,486
824.879822,488
824.998291,475
825.116699,494
825.235291,479
825.353699,465
825.472168,479
825.590637,473
825.709106,482
825.827576,455
825.946045,470
826.064453,473
826.182983,454
826.301392,472
826.4198,456
826.53833,475
826.656738,461
826.775208,452
826.893677,470
827.012024,466
827.130493,464
827.248962,450
827.36731,473
827.485779,454
827.604248,464
827.722595,459
827.841064,484
827.959412,474
828.077942,469
828.196289,447
828.314636,447
828.433105,462
828.551514,447
828.669861,461
828.78833,455
828.906677,452
829.025085,465
829.143433,476
829.261841,459
829.38031,457
829.498657,457
829.617004,440
829.735413,445
829.85376,450
829.972107,442
830.090515,467
830.208862,450
830.327209,454
830.445557,451
830.563904,435
830.682312,457
830.800659,460
830.919006,455
831.037354,425
831.155701,469
831.274048,450
831.392395,458
831.51062,437
831.629028,455
831.747314,461
831.865662,465
831.984009,455
832.102356,462
832.220642,459
832.338928,463
832.457275,472
832.575623,444
832.693909,441
832.812134,448
832.930481,444
833.048828,466
833.167114,460
833.2854,433
833.403687,432
833.521973,471
833.640259,461
833.758545,453
833.876831,462
833.995056,452
834.113281,446
834.231628,449
834.349915,475
834.468201,454
834.586426,449
834.704651,447
834.822998,458
834.941162,450
835.059448,443
835.177673,478
835.295959,462
835.414246,473
835.53241,445
835.650635,453
835.768921,458
835.887146,459
836.005371,439
836.123596,469
836.241821,438
836.360046,474
836.478271,462
836.596497,461
836.714722,476
836.832886,460
836.95105,466
837.069336,485
837.1875,465
837.305725,461
837.423889,458
837.542053,452
837.660339,465
837.778503,477
837.896667,479
838.014832,471
838.132996,465
838.25116,478
838.369385,460
838.487488,475
838.605713,480
838.723877,477
838.84198,479
838.960205,467
839.078308,473
839.196472,481
839.314636,472
839.4328,485
839.550964,465
839.669067,482
839.787231,484
839.905396,460
840.023499,462
840.141602,483
840.259766,465
840.377869,455
840.495972,454
840.614136,470
840.732239,480
840.850342,472
840.968445,455
841.086548,458
841.204651,443
841.322754,469
841.440918,456
841.55896,468
841.677002,462
841.795166,467
841.913208,458
842.031311,434
842.149353,454
842.267456,460
842.385498,447
842.503601,437
842.621643,441
842.739746,466
842.857788,458
842.97583,465
843.093933,457
843.211975,467
843.330017,459
843.44812,466
843.566101,465
843.684204,457
843.802246,449
843.920227,449
844.038269,428
844.156311,472
844.274292,435
844.392395,433
844.510376,446
844.628357,448
844.74646,443
844.864441,459
844.982422,434
845.100403,455
845.218384,437
845.336426,444
845.454468,440
845.572449,430
845.69043,432
845.808411,461
845.926453,454
846.044373,446
846.162354,464
846.280396,451
846.398315,440
846.516296,450
846.634216,447
846.752197,446
846.870178,440
846.988098,434
847.106079,448
847.22406,464
847.34198,434
847.4599,447
847.577881,424
847.695801,454
847.813782,448
847.931641,451
848.049561,443
848.167603,451
848.285461,442
848.403381,435
848.521362,447
848.639221,443
848.75708,432
848.875,443
848.99292,445
849.110901,452
849.22876,434
849.34668,446
849.464539,431
849.582458,450
849.700317,443
849.818176,438
849.936096,441
850.053955,453
850.171875,430
850.289673,448
850.407593,458
850.525452,465
850.643311,443
850.761169,415
850.878967,429
850.996887,456
851.114746,428
851.232544,466
851.350403,430
851.468262,453
851.58606,419
851.703979,444
851.821777,451
851.939636,439
852.057434,443
852.175232,458
852.293091,438
852.410889,443
852.528687,435
852.646545,466
852.764343,449
852.88208,437
852.999939,457
853.117676,454
853.235535,474
853.353271,441
853.471069,448
853.588928,463
853.706604,435
853.824402,450
853.9422,462
854.059998,449
854.177734,449
854.295532,461
854.413269,433
854.531006,452
854.648804,435
854.766541,441
854.884277,439
855.002014,438
855.119751,457
855.237549,457
855.355225,427
855.473022,456
855.590698,452
855.708435,442
855.826172,449
855.943848,459
856.061646,446
856.179321,466
856.296997,443
856.414795,467
856.53241,456
856.650085,466
856.767822,440
856.885559,456
857.003174,487
857.120911,441
857.238586,452
857.356201,440
857.473938,455
857.591614,452
857.709351,436
857.826965,459
857.944641,459
858.062317,456
858.179993,455
858.297668,445
858.415283,441
858.532959,449
858.650574,439
858.768188,454
858.885803,457
859.003479,434
859.121094,464
859.23877,456
859.356384,479
859.473999,479
859.591675,439
859.709229,432
859.826843,431
859.944458,441
860.062012,434
860.179626,452
860.297302,438
860.414856,440
860.532471,447
860.650024,441
860.767639,446
860.885193,459
861.002808,457
861.120361,459
861.237976,448
861.35553,455
861.473022,428
861.590698,461
861.708191,464
861.825745,458
861.943298,443
862.060852,464
862.178406,439
862.295959,441
862.413513,435
862.531006,461
862.64856,448
862.766113,454
862.883667,442
863.00116,432
863.118713,457
863.236206,460
863.353699,451
863.471252,438
863.588745,454
863.706177,452
863.82373,446
863.941162,452
864.058716,434
864.176208,444
864.29364,441
864.411194,439
864.528687,450
864.646118,451
864.763611,443
864.881042,449
864.998535,443
865.116028,442
865.233459,434
865.350891,444
865.468384,442
865.585754,462
865.703308,440
865.820679,456
865.938171,439
866.055542,445
866.173035,455
866.290466,455
866.407837,470
866.52533,460
866.6427,457
866.760071,448
866.877563,440
866.994934,463
867.112305,447
867.229736,455
867.347107,458
867.464539,465
867.58197,446
867.699341,444
867.81665,462
867.934082,465
868.051453,427
868.168823,456
868.286194,450
868.403564,462
868.520935,441
868.638306,453
868.755676,444
868.872986,444
868.990295,434
869.107727,428
869.225037,455
869.342346,461
869.459717,450
869.577026,453
869.694336,453
869.811707,471
869.929016,439
870.046326,438
870.163635,440
870.280945,458
870.398254,433
870.515564,432
870.632812,463
870.750183,439
870.867432,452
870.984741,448
871.102051,457
871.219299,458
871.336609,448
871.453918,447
871.571106,439
871.688416,444
871.805664,458
871.922852,447
872.040222,433
872.157471,449
872.274719,457
872.391968,454
872.509155,459
872.626465,456
872.743652,449
872.860962,458
872.978149,439
873.095337,429
873.212646,458
873.329834,455
873.44696,437
873.564209,465
873.681396,462
873.798645,458
873.915894,461
874.03302,447
874.150208,445
874.267456,445
874.384583,449
874.501831,454
874.618958,458
874.736145,449
874.853333,439
874.970459,441
875.087646,454
875.204834,461
875.32196,444
875.439148,463
875.556274,448
875.673401,461
875.790527,443
875.907715,464
876.024841,446
876.141968,451
876.259094,449
876.376282,456
876.493347,440
876.610474,456
876.7276,436
876.844727,464
876.961853,450
877.078918,449
877.195984,444
877.313171,436
877.430237,470
877.547302,446
877.664368,440
877.781433,459
877.898499,447
878.015625,466
878.13269,447
878.249695,448
878.366821,453
878.483887,464
878.600952,453
878.717957,449
878.834961,456
878.952087,454
879.069092,454
879.186157,447
879.303162,456
879.420227,452
879.537231,452
879.654236,432
879.77124,447
879.888306,467
880.005249,440
880.122314,455
880.239319,434
880.356323,454
880.473328,442
880.590271,468
880.707275,416
880.824341,467
880.941284,451
881.058228,446
881.175232,453
881.292236,448
881.40918,448
881.526123,447
881.643066,442
881.760071,453
881.877014,455
881.993958,444
882.11084,445
882.227783,461
882.344727,443
882.46167,456
882.578613,442
882.695618,451
882.812439,452
882.929382,452
883.046326,463
883.163208,465
883.280151,438
883.397034,455
883.513916,465
883.630798,457
883.747742,447
883.864563,445
883.981506,437
884.098389,462
884.21521,456
884.332153,450
884.448975,453
884.565796,455
884.682678,448
884.7995,458
884.916443,459
885.033264,456
885.150085,450
885.266968,458
885.383789,439
885.500671,451
885.617493,449
885.734314,473
885.851196,441
885.967896,460
886.084717,457
886.201599,454
886.318359,442
886.435181,472
886.552002,457
886.668762,465
886.785645,471
886.902344,446
887.019165,450
887.135925,447
887.252747,474
887.369446,447
887.486267,454
887.603027,444
887.719788,455
887.836548,452
887.953247,448
888.070068,467
888.186829,458
888.303528,452
888.420288,450
888.536987,463
888.653687,455
888.770447,450
888.887146,462
889.003967,455
889.120667,440
889.237305,468
889.354065,443
889.470703,458
889.587463,448
889.704163,454
889.820862,446
889.937561,446
890.054199,436
890.170837,465
890.287598,471
890.404236,461
890.520874,444
890.637634,466
890.754211,472
890.87085,449
890.987549,452
891.104187,464
891.220886,449
891.337463,465
891.454102,445
891.57074,459
891.687378,453
891.804077,457
891.920654,450
892.037231,452
892.15387,450
892.270447,474
892.387085,457
892.503723,465
892.6203,459
892.736877,465
892.853516,450
892.970032,462
893.08667,452
893.203186,477
893.319763,448
893.43634,439
893.552917,466
893.669556,459
893.786011,450
893.902588,470
894.019165,460
894.135681,466
894.252197,448
894.368835,453
894.485291,448
894.601868,481
894.718384,455
894.8349,480
894.951355,457
895.067932,471
895.184448,463
895.300964,455
895.417419,457
895.533936,446
895.650452,445
895.766907,458
895.883423,447
895.999878,464
896.116333,442
896.232849,444
896.349304,433
896.465759,462
896.582214,451
896.698669,451
896.815125,464
896.931641,451
897.048035,440
897.164551,454
897.280884,453
897.397339,467
897.513794,468
897.630249,452
897.746582,455
897.863098,454
897.979431,472
898.095886,446
898.212341,452
898.328674,463
898.445129,453
898.561462,464
898.677795,427
898.794312,449
898.910645,464
899.026978,452
899.143433,456
899.259766,455
899.37616,444
899.492493,471
899.608765,425
899.725159,462
899.841553,460
899.957947,467
900.07428,471
900.190552,461
900.306946,476
900.423157,493
900.53949,468
900.655884,448
900.772156,459
900.888489,450
901.004822,443
901.121033,475
901.237366,445
901.353699,454
901.46991,460
901.586304,468
901.702515,460
901.818787,441
901.93512,468
902.051331,480
902.167603,469
902.283875,467
902.400085,466
902.516418,476
902.632629,457
902.74884,452
902.865112,438
902.981384,476
903.097595,448
903.213867,474
903.330017,470
903.446289,471
903.5625,488
903.67865,473
903.794922,475
903.911072,481
904.027344,452
904.143494,465
904.259705,465
904.375916,459
904.492065,464
904.608215,467
904.724426,459
904.840576,456
904.956726,448
905.072876,479
905.189087,443
905.305176,472
905.421387,451
905.537537,473
905.653687,455
905.769775,470
905.885925,454
906.002014,462
906.118164,464
906.234314,459
906.350403,455
906.466492,461
906.582642,463
906.69873,451
906.814758,445
906.930908,460
907.046936,455
907.163086,448
907.279175,464
907.395264,465
907.511353,453
907.62738,464
907.743408,467
907.859497,468
907.975525,443
908.091553,460
908.207703,447
908.32373,453
908.439758,462
908.555786,471
908.671814,482
908.787842,481
908.90387,462
909.019775,478
909.135864,451
909.251892,464
909.367859,455
909.483826,463
909.599854,463
909.715881,481
909.831848,457
909.947815,448
910.063782,484
910.179749,463
910.295776,466
910.411743,450
910.527649,474
910.643616,446
910.759583,442
910.875488,458
910.991455,459
911.107361,466
911.223267,455
911.339294,469
911.4552,457
911.571106,454
911.687073,444
911.802979,490
911.918823,468
912.034729,482
912.150635,474
912.266602,469
912.382446,466
912.498352,504
912.614197,446
912.730103,485
912.846008,458
792.44574,626
792.56488,647
792.68396,679
792.80304,686
792.92218,642
793.041199,595
793.160339,629
793.279419,619
793.398499,641
793.517578,602
793.636658,621
793.755737,636
793.874817,639
793.993896,648
794.112976,605
794.232056,599
794.351074,588
794.470215,620
794.589233,594
794.708313,580
794.827393,599
794.946411,619
795.065552,615
795.18457,607
795.303589,603
795.422668,597
795.541687,617
795.660767,600
795.779846,560
795.898865,583
796.017883,580
796.136963,583
796.255981,585
796.375061,596
796.49408,591
796.613037,570
796.732117,597
796.851135,566
796.970154,578
797.089233,586
797.208191,603
797.327271,552
797.446228,577
797.565186,579
797.684265,594
797.803223,573
797.922241,596
798.04126,597
798.160278,576
798.279297,581
798.398315,580
798.517273,614
798.636292,578
798.75531,573
798.874268,590
798.993286,582
799.112244,576
799.231323,569
799.350281,601
799.469238,598
799.588257,558
799.707153,595
799.826111,596
799.945129,576
800.064087,581
800.183044,567
800.302063,592
800.421021,594
800.539978,576
800.658936,593
800.777893,586
800.896912,582
801.015747,577
801.134705,567
801.253723,573
801.37262,560
801.491638,582
801.610535,577
801.729492,584
801.84845,579
801.967407,571
802.086243,574
802.205261,602
802.324158,588
802.443115,584
802.562073,587
802.680969,580
802.799927,616
802.918762,610
803.037659,592
803.156677,570
803.275574,600
803.39447,590
803.513428,605
803.632263,596
803.751221,604
803.870117,611
803.989014,604
804.107971,582
804.226746,602
804.345642,603
804.4646,614
804.583496,607
804.702393,605
804.821228,607
804.940125,601
805.059021,615
805.177917,589
805.296814,607
805.415649,611
805.534546,591
805.653442,630
805.772278,627
805.891113,615
806.01001,627
806.128906,590
806.247742,635
806.366577,616
806.485413,609
806.604309,633
806.723145,627
806.84198,592
806.960876,595
807.079712,629
807.198486,620
807.317383,631
807.436218,618
807.554993,616
807.673889,617
807.792725,632
807.91156,629
808.030396,604
808.14917,610
808.268005,623
808.386841,629
808.505676,592
808.624451,621
808.743286,633
808.862122,610
808.980896,605
809.099731,634
809.218506,618
809.337341,610
809.456116,633
809.57489,625
809.693726,620
809.8125,634
809.931274,654
810.050049,643
810.168884,633
810.287659,621
810.406372,634
810.525269,624
810.643982,641
810.762756,631
810.881531,617
811.000305,605
811.11908,634
811.237854,641
811.356567,623
811.475403,628
811.594116,631
811.71283,623
811.831604,633
811.950378,642
812.069153,629
812.187927,645
812.30658,609
812.425415,620
812.544128,630
812.662781,636
812.781616,633
812.900269,619
813.019043,609
813.137756,623
813.256531,618
813.375244,626
813.493896,644
813.612671,665
813.731384,624
813.850037,636
813.96875,602
814.087524,643
814.206238,651
814.324951,636
814.443604,628
814.562256,621
814.68103,622
814.799683,647
814.918335,631
815.037109,605
815.155762,631
815.274475,623
815.393188,632
815.511841,615
815.630554,623
815.749146,625
815.867859,600
815.986572,608
816.105164,611
816.223877,603
816.342529,611
816.461182,605
816.579895,617
816.698486,630
816.817139,625
816.935791,605
817.054504,619
817.173096,628
817.291748,611
817.4104,621
817.529053,585
817.647644,593
817.766235,586
817.884949,574
818.00354,583
818.122192,571
818.240845,544
818.359436,543
818.478088,530
818.59668,548
818.715271,539
818.833923,536
818.952515,532
819.071106,513
819.189758,536
819.30835,515
819.426941,518
819.545532,501
819.664124,525
819.782715,506
819.901306,506
820.019897,500
820.138489,507
820.25708,509
820.375671,513
820.494202,498
820.612732,502
820.731384,491
820.849915,515
820.968506,494
821.087097,502
821.205627,506
821.324158,474
821.442749,483
821.561279,494
821.679871,497
821.798401,484
821.916931,491
822.035461,480
822.154053,464
822.272583,489
822.391174,461
822.509583,489
822.628174,471
822.746704,481
822.865234,485
822.983765,470
823.102295,478
823.220825,489
823.339294,489
823.457825,484
823.576355,479
823.694824,470
823.813354,466
823.931885,467
824.050354,504
824.168884,480
824.287354,480
824.405823,496
824.524353,476
824.642822,491
824.761353,501
824.879822,500
824.998291,488
825.116699,487
825.235291,471
825.353699,488
825.472168,470
825.590637,469
825.709106,479
825.827576,472
825.946045,454
826.064453,485
826.182983,477
826.301392,485
826.4198,474
826.53833,475
826.656738,474
826.775208,475
826.893677,459
827.012024,454
827.130493,474
827.248962,475
827.36731,459
827.485779,484
827.604248,479
827.722595,471
827.841064,458
827.959412,470
828.077942,467
828.196289,451
828.314636,472
828.433105,470
828.551514,474
828.669861,457
828.78833,457
828.906677,475
829.025085,452
829.143433,463
829.261841,462
829.38031,453
829.498657,456
829.617004,457
829.735413,458
829.85376,460
829.972107,463
830.090515,469
830.208862,463
830.327209,469
830.445557,468
830.563904,466
830.682312,464
830.800659,459
830.919006,474
831.037354,479
831.155701,453
831.274048,463
831.392395,461
831.51062,466
831.629028,449
831.747314,456
831.865662,462
831.984009,452
832.102356,481
832.220642,454
832.338928,467
832.457275,459
832.575623,461
832.693909,468
832.812134,459
832.930481,472
833.048828,450
833.167114,474
833.2854,475
833.403687,475
833.521973,461
833.640259,441
833.758545,467
833.876831,458
833.995056,461
834.113281,445
834.231628,480
834.349915,484
834.468201,473
834.586426,457
834.704651,460
834.822998,468
834.941162,455
835.059448,468
835.177673,459
835.295959,464
835.414246,458
835.53241,460
835.650635,466
835.768921,470
835.887146,467
836.005371,461
836.123596,470
836.241821,484
836.360046,451
836.478271,479
836.596497,457
836.714722,463
836.832886,478
836.95105,461
837.069336,478
837.1875,472
837.305725,459
837.423889,494
837.542053,461
837.660339,470
837.778503,477
837.896667,481
838.014832,479
838.132996,468
838.25116,486
838.369385,476
838.487488,460
838.605713,462
838.723877,460
838.84198,484
838.960205,469
839.078308,479
839.196472,474
839.314636,465
839.4328,475
839.550964,457
839.669067,494
839.787231,475
839.905396,470
840.023499,454
840.141602,468
840.259766,471
840.377869,455
840.495972,455
840.614136,459
840.732239,474
840.850342,448
840.968445,450
841.086548,473
841.204651,449
841.322754,484
841.440918,476
841.55896,486
841.677002,470
841.795166,456
841.913208,480
842.031311,468
842.149353,449
842.267456,439
842.385498,455
842.503601,446
842.621643,466
842.739746,456
842.857788,469
842.97583,439
843.093933,454
843.211975,454
843.330017,449
843.44812,460
843.566101,449
843.684204,448
843.802246,450
843.920227,447
844.038269,471
844.156311,452
844.274292,463
844.392395,445
844.510376,449
844.628357,452
844.74646,468
844.864441,443
844.982422,446
845.100403,438
845.218384,447
845.336426,444
845.454468,454
845.572449,466
845.69043,463
845.808411,434
845.926453,453
846.044373,444
846.162354,449
846.280396,433
846.398315,450
846.516296,446
846.634216,438
846.752197,453
846.870178,458
846.988098,449
847.106079,455
847.22406,443
847.34198,446
847.4599,440
847.577881,443
847.695801,434
847.813782,449
847.931641,443
848.049561,452
848.167603,446
848.285461,442
848.403381,457
848.521362,459
848.639221,469
848.75708,447
848.875,461
848.99292,451
849.110901,434
849.22876,454
849.34668,437
849.464539,430
849.582458,446
849.700317,458
849.818176,465
849.936096,439
850.053955,440
850.171875,440
850.289673,450
850.407593,452
850.525452,448
850.643311,444
850.761169,441
850.878967,467
850.996887,447
851.114746,454
851.232544,470
851.350403,464
851.468262,447
851.58606,436
851.703979,446
851.821777,451
851.939636,462
852.057434,452
852.175232,448
852.293091,446
852.410889,444
852.528687,440
852.646545,445
852.764343,457
852.88208,444
852.999939,439
853.117676,454
853.235535,458
853.353271,475
853.471069,470
853.588928,456
853.706604,462
853.824402,460
853.9422,449
854.059998,444
854.177734,441
854.295532,446
854.413269,459
854.531006,461
854.648804,438
854.766541,467
854.884277,464
855.002014,466
855.119751,453
855.237549,444
855.355225,455
855.473022,453
855.590698,460
855.708435,448
855.826172,454
855.943848,454
856.061646,454
856.179321,459
856.296997,450
856.414795,467
856.53241,459
856.650085,443
856.767822,471
856.885559,469
857.003174,447
857.120911,447
857.238586,462
857.356201,467
857.473938,464
857.591614,451
857.709351,449
857.826965,467
857.944641,454
858.062317,447
858.179993,470
858.297668,458
858.415283,448
858.532959,463
858.650574,454
858.768188,454
858.885803,464
859.003479,461
859.121094,462
859.23877,457
859.356384,453
859.473999,473
859.591675,452
859.709229,453
859.826843,443
859.944458,447
860.062012,449
860.179626,455
860.297302,457
860.414856,425
860.532471,477
860.650024,456
860.767639,450
860.885193,460
861.002808,450
861.120361,443
861.237976,464
861.35553,472
861.473022,446
861.590698,464
861.708191,432
861.825745,430
861.943298,445
862.060852,442
862.178406,450
862.295959,447
862.413513,440
862.531006,456
862.64856,463
862.766113,474
862.883667,457
863.00116,457
863.118713,448
863.236206,439
863.353699,448
863.471252,444
863.588745,466
863.706177,446
863.82373,448
863.941162,454
864.058716,455
864.176208,449
864.29364,437
864.411194,445
864.528687,439
864.646118,471
864.763611,449
864.881042,449
864.998535,464
865.116028,453
865.233459,420
865.350891,462
865.468384,434
865.585754,446
865.703308,447
865.820679,459
865.938171,434
866.055542,451
866.173035,463
866.290466,448
866.407837,463
866.52533,438
866.6427,468
866.760071,446
866.877563,463
866.994934,449
867.112305,439
867.229736,456
867.347107,459
867.464539,460
867.58197,453
867.699341,455
867.81665,448
867.934082,449
868.051453,432
868.168823,448
868.286194,462
868.403564,435
868.520935,447
868.638306,453
868.755676,469
868.872986,458
868.990295,477
869.107727,461
869.225037,459
869.342346,441
869.459717,456
869.577026,458
869.694336,447
869.811707,462
869.929016,460
870.046326,446
870.163635,455
870.280945,450
870.398254,454
870.515564,461
870.632812,460
870.750183,452
870.867432,442
870.984741,435
871.102051,464
871.219299,460
871.336609,460
871.453918,450
871.571106,455
871.688416,458
871.805664,468
871.922852,442
872.040222,450
872.157471,447
872.274719,432
872.391968,438
872.509155,472
872.626465,466
872.743652,464
872.860962,459
872.978149,460
873.095337,443
873.212646,447
873.329834,456
873.44696,453
873.564209,451
873.681396,455
873.798645,451
873.915894,456
874.03302,448
874.150208,449
874.267456,447
874.384583,463
874.501831,453
874.618958,442
874.736145,463
874.853333,450
874.970459,465
875.087646,468
875.204834,463
875.32196,463
875.439148,441
875.556274,467
875.673401,455
875.790527,442
875.907715,455
876.024841,452
876.141968,455
876.259094,460
876.376282,446
876.493347,446
876.610474,453
876.7276,441
876.844727,463
876.961853,443
877.078918,442
877.195984,442
877.313171,460
877.430237,441
877.547302,448
877.664368,447
877.781433,462
877.898499,455
878.015625,466
878.13269,455
878.249695,454
878.366821,460
878.483887,460
878.600952,451
878.717957,444
878.834961,454
878.952087,449
879.069092,461
879.186157,455
879.303162,453
879.420227,453
879.537231,447
879.654236,440
879.77124,443
879.888306,452
880.005249,465
880.122314,446
880.239319,462
880.356323,434
880.473328,442
880.590271,445
880.707275,444
880.824341,448
880.941284,452
881.058228,444
881.175232,459
881.292236,457
881.40918,453
881.526123,462
881.643066,459
881.760071,455
881.877014,457
881.993958,459
882.11084,453
882.227783,423
882.344727,455
882.46167,437
882.578613,467
882.695618,454
882.812439,468
882.929382,471
883.046326,473
883.163208,451
883.280151,468
883.397034,441
883.513916,462
883.630798,471
883.747742,472
883.864563,440
883.981506,453
884.098389,456
884.21521,464
884.332153,454
884.448975,463
884.565796,462
884.682678,449
884.7995,432
884.916443,462
885.033264,461
885.150085,449
885.266968,473
885.383789,449
885.500671,474
885.617493,453
885.734314,469
885.851196,447
885.967896,462
886.084717,469
886.201599,456
886.318359,457
886.435181,444
886.552002,461
886.668762,462
886.785645,461
886.902344,442
887.019165,481
887.135925,464
887.252747,461
887.369446,444
887.486267,466
887.603027,466
887.719788,458
887.836548,447
887.953247,459
888.070068,467
888.186829,456
888.303528,448
888.420288,453
888.536987,471
888.653687,459
888.770447,448
888.887146,450
889.003967,452
889.120667,471
889.237305,458
889.354065,457
889.470703,470
889.587463,456
889.704163,442
889.820862,462
889.937561,451
890.054199,457
890.170837,451
890.287598,452
890.404236,450
890.520874,464
890.637634,442
890.754211,455
890.87085,462
890.987549,457
891.104187,464
891.220886,473
891.337463,444
891.454102,448
891.57074,449
891.687378,456
891.804077,462
891.920654,463
892.037231,450
892.15387,451
892.270447,458
892.387085,468
892.503723,456
892.6203,466
892.736877,468
892.853516,474
892.970032,448
893.08667,487
893.203186,470
893.319763,436
893.43634,469
893.552917,456
893.669556,465
893.786011,463
893.902588,441
894.019165,463
894.135681,457
894.252197,461
894.368835,479
894.485291,482
894.601868,462
894.718384,463
894.8349,446
894.951355,462
895.067932,467
895.184448,469
895.300964,453
895.417419,471
895.533936,460
895.650452,473
895.766907,438
895.883423,457
895.999878,461
896.116333,465
896.232849,454
896.349304,473
896.465759,452
896.582214,474
896.698669,452
896.815125,486
896.931641,460
897.048035,462
897.164551,450
897.280884,478
897.397339,465
897.513794,470
897.630249,465
897.746582,468
897.863098,459
897.979431,454
898.095886,460
898.212341,468
898.328674,471
898.445129,447
898.561462,446
898.677795,442
898.794312,469
898.910645,456
899.026978,465
899.143433,469
899.259766,474
899.37616,463
899.492493,458
899.608765,462
899.725159,455
899.841553,471
899.957947,458
900.07428,472
900.190552,460
900.306946,472
900.423157,446
900.53949,457
900.655884,468
900.772156,489
900.888489,448
901.004822,481
901.121033,476
901.237366,451
901.353699,467
901.46991,448
901.586304,468
901.702515,468
901.818787,455
901.93512,460
902.051331,455
902.167603,475
902.283875,450
902.400085,468
902.516418,463
902.632629,468
902.74884,474
902.865112,497
902.981384,444
903.097595,447
903.213867,470
903.330017,478
903.446289,454
903.5625,466
903.67865,471
903.794922,459
903.911072,466
904.027344,468
904.143494,468
904.259705,465
904.375916,461
904.492065,453
904.608215,481
904.724426,465
904.840576,469
904.956726,467
905.072876,472
905.189087,467
905.305176,482
905.421387,489
905.537537,464
905.653687,474
905.769775,465
905.885925,467
906.002014,461
906.118164,460
906.234314,471
906.350403,474
906.466492,488
906.582642,483
906.69873,449
906.814758,481
906.930908,465
907.046936,480
907.163086,468
907.279175,482
907.395264,483
907.511353,462
907.62738,459
907.743408,491
907.859497,472
907.975525,468
908.091553,471
908.207703,458
908.32373,466
908.439758,462
908.555786,456
908.671814,477
908.787842,456
908.90387,487
909.019775,481
909.135864,464
909.251892,479
909.367859,475
909.483826,472
909.599854,490
909.715881,486
909.831848,455
909.947815,476
910.063782,477
910.179749,460
910.295776,481
910.411743,437
910.527649,483
910.643616,473
910.759583,458
910.875488,446
910.991455,473
911.107361,450
911.223267,478
911.339294,475
911.4552,468
911.571106,459
911.687073,490
911.802979,484
911.918823,482
912.034729,476
912.150635,471
912.266602,461
912.382446,465
912.498352,469
912.614197,463
912.730103,471
912.846008,478
792.44574,623
792.56488,654
792.68396,688
792.80304,682
792.92218,648
793.041199,605
793.160339,598
793.279419,632
793.398499,635
793.517578,601
793.636658,585
793.755737,607
793.874817,641
793.993896,613
794.112976,601
794.232056,601
794.351074,595
794.470215,624
794.589233,605
794.708313,603
794.827393,578
794.946411,605
795.065552,604
795.18457,613
795.303589,595
795.422668,597
795.541687,600
795.660767,570
795.779846,588
795.898865,605
796.017883,592
796.136963,594
796.255981,566
796.375061,584
796.49408,584
796.613037,597
796.732117,588
796.851135,564
796.970154,595
797.089233,566
797.208191,580
797.327271,573
797.446228,579
797.565186,571
797.684265,587
797.803223,579
797.922241,551
798.04126,572
798.160278,578
798.279297,605
798.398315,561
798.517273,575
798.636292,590
798.75531,567
798.874268,576
798.993286,586
799.112244,588
799.231323,584
799.350281,580
799.469238,582
799.588257,589
799.707153,590
799.826111,583
799.945129,584
800.064087,597
800.183044,562
800.302063,539
800.421021,570
800.539978,579
800.658936,586
800.777893,589
800.896912,572
801.015747,600
801.134705,591
801.253723,578
801.37262,590
801.491638,578
801.610535,610
801.729492,600
801.84845,600
801.967407,583
802.086243,593
802.205261,584
802.324158,592
802.443115,601
802.562073,599
802.680969,575
802.799927,603
802.918762,570
803.037659,585
803.156677,594
803.275574,590
803.39447,591
803.513428,599
803.632263,595
803.751221,601
803.870117,598
803.989014,580
804.107971,604
804.226746,607
804.345642,595
804.4646,610
804.583496,600
804.702393,610
804.821228,606
804.940125,601
805.059021,623
805.177917,599
805.296814,599
805.415649,605
805.534546,618
805.653442,597
805.772278,614
805.891113,617
806.01001,609
806.128906,594
806.247742,596
806.366577,613
806.485413,607
806.604309,604
806.723145,593
806.84198,591
806.960876,610
807.079712,599
807.198486,610
807.317383,609
807.436218,624
807.554993,606
807.673889,595
807.792725,612
807.91156,649
808.030396,593
808.14917,611
808.268005,620
808.386841,604
808.505676,624
808.624451,621
808.743286,582
808.862122,627
808.980896,640
809.099731,603
809.218506,615
809.337341,589
809.456116,644
809.57489,622
809.693726,631
809.8125,635
809.931274,639
810.050049,611
810.168884,642
810.287659,614
810.406372,609
810.525269,638
810.643982,622
810.762756,621
810.881531,628
811.000305,626
811.11908,637
811.237854,620
811.356567,634
811.475403,634
811.594116,611
811.71283,619
811.831604,642
811.950378,618
812.069153,652
812.187927,622
812.30658,629
812.425415,617
812.544128,625
812.662781,627
812.781616,628
812.900269,649
813.019043,627
813.137756,630
813.256531,624
813.375244,637
813.493896,649
813.612671,644
813.731384,641
813.850037,622
813.96875,629
814.087524,615
814.206238,621
814.324951,648
814.443604,602
814.562256,618
814.68103,626
814.799683,625
814.918335,640
815.037109,600
815.155762,637
815.274475,618
815.393188,619
815.511841,636
815.630554,625
815.749146,596
815.867859,623
815.986572,628
816.105164,599
816.223877,620
816.342529,609
816.461182,617
816.579895,619
816.698486,616
816.817139,614
816.935791,642
817.054504,599
817.173096,627
817.291748,622
817.4104,609
817.529053,610
817.647644,567
817.766235,576
817.884949,557
818.00354,557
818.122192,564
818.240845,562
818.359436,551
818.478088,541
818.59668,518
818.715271,533
818.833923,542
818.952515,528
819.071106,520
819.189758,521
819.30835,536
819.426941,525
819.545532,500
819.664124,515
819.782715,504
819.901306,501
820.019897,519
820.138489,506
820.25708,505
820.375671,523
820.494202,491
820.612732,494
820.731384,518
820.849915,484
820.968506,480
821.087097,503
821.205627,504
821.324158,490
821.442749,498
821.561279,494
821.679871,494
821.798401,495
821.916931,494
822.035461,489
822.154053,504
822.272583,474
822.391174,502
822.509583,483
822.628174,483
822.746704,500
822.865234,482
822.983765,469
823.102295,480
823.220825,479
823.339294,475
823.457825,486
823.576355,478
823.694824,487
823.813354,481
823.931885,482
824.050354,470
824.168884,485
824.287354,479
824.405823,493
824.524353,495
824.642822,491
824.761353,491
824.879822,484
824.998291,499
825.116699,493
825.235291,492
825.353699,479
825.472168,485
825.590637,473
825.709106,490
825.827576,464
825.946045,484
826.064453,477
826.182983,484
826.301392,478
826.4198,463
826.53833,461
826.656738,475
826.775208,470
826.893677,478
827.012024,471
827.130493,458
827.248962,458
827.36731,469
827.485779,473
827.604248,469
827.722595,478
827.841064,472
827.959412,466
828.077942,459
828.196289,475
828.314636,443
828.433105,475
828.551514,477
828.669861,457
828.78833,454
828.906677,473
829.025085,452
829.143433,435
829.261841,472
829.38031,454
829.498657,469
829.617004,453
829.735413,481
829.85376,475
829.972107,445
830.090515,448
830.208862,449
830.327209,473
830.445557,463
830.563904,442
830.682312,448
830.800659,457
830.919006,473
831.037354,478
831.155701,466
831.274048,447
831.392395,466
831.51062,453
831.629028,454
831.747314,472
831.865662,480
831.984009,481
832.102356,446
832.220642,468
832.338928,461
832.457275,470
832.575623,464
832.693909,469
832.812134,461
832.930481,465
833.048828,475
833.167114,463
833.2854,451
833.403687,458
833.521973,449
833.640259,448
833.758545,459
833.876831,484
833.995056,460
834.113281,459
834.231628,474
834.349915,467
834.468201,439
834.586426,475
834.704651,463
834.822998,453
834.941162,469
835.059448,454
835.177673,475
835.295959,451
835.414246,452
835.53241,475
835.650635,468
835.768921,456
835.887146,467
836.005371,467
836.123596,463
836.241821,472
836.360046,438
836.478271,470
836.596497,464
836.714722,461
836.832886,478
836.95105,487
837.069336,457
837.1875,498
837.305725,476
837.423889,487
837.542053,480
837.660339,476
837.778503,475
837.896667,485
838.014832,489
838.132996,457
838.25116,469
838.369385,470
838.487488,474
838.605713,486
838.723877,473
838.84198,478
838.960205,462
839.078308,466
839.196472,476
839.314636,480
839.4328,475
839.550964,488
839.669067,479
839.787231,464
839.905396,472
840.023499,469
840.141602,462
840.259766,470
840.377869,478
840.495972,447
840.614136,459
840.732239,464
840.850342,482
840.968445,475
841.086548,470
841.204651,479
841.322754,488
841.440918,444
841.55896,466
841.677002,468
841.795166,453
841.913208,471
842.031311,447
842.149353,480
842.267456,467
842.385498,458
842.503601,455
842.621643,453
842.739746,452
842.857788,458
842.97583,460
843.093933,453
843.211975,455
843.330017,458
843.44812,456
843.566101,449
843.684204,446
843.802246,453
843.920227,461
844.038269,467
844.156311,467
844.274292,431
844.392395,457
844.510376,460
844.628357,489
844.74646,444
844.864441,455
844.982422,465
845.100403,456
845.218384,465
845.336426,451
845.454468,467
845.572449,431
845.69043,434
845.808411,460
845.926453,459
846.044373,450
846.162354,461
846.280396,443
846.398315,456
846.516296,448
846.634216,463
846.752197,426
846.870178,444
846.988098,472
847.106079,459
847.22406,439
847.34198,462
847.4599,472
847.577881,450
847.695801,436
847.813782,440
847.931641,448
848.049561,463
848.167603,470
848.285461,452
848.403381,446
848.521362,450
848.639221,442
848.75708,457
848.875,430
848.99292,463
849.110901,442
849.22876,467
849.34668,443
849.464539,441
849.582458,442
849.700317,455
849.818176,453
849.936096,449
850.053955,453
850.171875,438
850.289673,437
850.407593,460
850.525452,452
850.643311,461
850.761169,423
850.878967,454
850.996887,451
851.114746,454
851.232544,431
851.350403,466
851.468262,449
851.58606,453
851.703979,453
851.821777,440
851.939636,460
852.057434,456
852.175232,461
852.293091,458
852.410889,462
852.528687,457
852.646545,448
852.764343,464
852.88208,449
852.999939,456
853.117676,451
853.235535,458
853.353271,447
853.471069,460
853.588928,456
853.706604,451
853.824402,460
853.9422,468
854.059998,442
854.177734,453
854.295532,432
854.413269,445
854.531006,464
854.648804,453
854.766541,453
854.884277,452
855.002014,452
855.119751,455
855.237549,476
855.355225,470
855.473022,442
855.590698,479
855.708435,447
855.826172,456
855.943848,457
856.061646,472
856.179321,458
856.296997,471
856.414795,461
856.53241,470
856.650085,455
856.767822,446
856.885559,455
857.003174,460
857.120911,448
857.238586,453
857.356201,467
857.473938,431
857.591614,473
857.709351,472
857.826965,454
857.944641,434
858.062317,470
858.179993,461
858.297668,446
858.415283,450
858.532959,429
858.650574,465
858.768188,451
858.885803,452
859.003479,435
859.121094,465
859.23877,458
859.356384,446
859.473999,458
859.591675,464
859.709229,469
859.826843,449
859.944458,457
860.062012,454
860.179626,452
860.297302,454
860.414856,453
860.532471,451
860.650024,456
860.767639,462
860.885193,445
861.002808,464
861.120361,452
861.237976,432
861.35553,460
861.473022,442
861.590698,446
861.708191,448
861.825745,461
861.943298,473
862.060852,450
862.178406,476
862.295959,473
862.413513,454
862.531006,451
862.64856,430
862.766113,457
862.883667,479
863.00116,443
863.118713,461
863.236206,444
863.353699,453
863.471252,457
863.588745,440
863.706177,451
863.82373,465
863.941162,464
864.058716,460
864.176208,448
864.29364,470
864.411194,467
864.528687,456
864.646118,444
864.763611,449
864.881042,463
864.998535,438
865.116028,464
865.233459,467
865.350891,458
865.468384,447
865.585754,460
865.703308,449
865.820679,455
865.938171,461
866.055542,453
866.173035,452
866.290466,452
866.407837,449
866.52533,458
866.6427,453
866.760071,452
866.877563,447
866.994934,481
867.112305,453
867.229736,456
867.347107,476
867.464539,444
867.58197,442
867.699341,444
867.81665,452
867.934082,474
868.051453,467
868.168823,461
868.286194,471
868.403564,441
868.520935,462
868.638306,450
868.755676,443
868.872986,461
868.990295,444
869.107727,447
869.225037,442
869.342346,471
869.459717,441
869.577026,467
869.694336,456
869.811707,432
869.929016,446
870.046326,440
870.163635,457
870.280945,458
870.398254,455
870.515564,432
870.632812,466
870.750183,458
870.867432,478
870.984741,440
871.102051,460
871.219299,450
871.336609,450
871.453918,451
871.571106,477
871.688416,465
871.805664,450
871.922852,441
872.040222,456
872.157471,450
872.274719,456
872.391968,446
872.509155,435
872.626465,449
872.743652,450
872.860962,457
872.978149,462
873.095337,446
873.212646,451
873.329834,453
873.44696,479
873.564209,448
873.681396,442
873.798645,441
873.915894,468
874.03302,458
874.150208,456
874.267456,467
874.384583,440
874.501831,460
874.618958,434
874.736145,461
874.853333,452
874.970459,439
875.087646,450
875.204834,428
875.32196,452
875.439148,445
875.556274,444
875.673401,459
875.790527,454
875.907715,453
876.024841,467
876.141968,459
876.259094,479
876.376282,452
876.493347,429
876.610474,444
876.7276,435
876.844727,465
876.961853,441
877.078918,461
877.195984,466
877.313171,450
877.430237,468
877.547302,463
877.664368,452
877.781433,465
877.898499,448
878.015625,465
878.13269,446
878.249695,451
878.366821,467
878.483887,449
878.600952,457
878.717957,440
878.834961,450
878.952087,434
879.069092,448
879.186157,453
879.303162,450
879.420227,450
879.537231,469
879.654236,439
879.77124,456
879.888306,444
880.005249,459
880.122314,475
880.239319,441
880.356323,454
880.473328,465
880.590271,440
880.707275,463
880.824341,454
880.941284,447
881.058228,450
881.175232,470
881.292236,452
881.40918,440
881.526123,446
881.643066,440
881.760071,451
881.877014,458
881.993958,457
882.11084,464
882.227783,447
882.344727,453
882.46167,439
882.578613,449
882.695618,463
882.812439,451
882.929382,446
883.046326,452
883.163208,453
883.280151,448
883.397034,447
883.513916,450
883.630798,438
883.747742,442
883.864563,452
883.981506,447
884.098389,451
884.21521,453
884.332153,467
884.448975,458
884.565796,467
884.682678,462
884.7995,444
884.916443,462
885.033264,467
885.150085,452
885.266968,459
885.383789,467
885.500671,441
885.617493,475
885.734314,461
885.851196,456
885.967896,470
886.084717,458
886.201599,474
886.318359,478
886.435181,463
886.552002,454
886.668762,455
886.785645,459
886.902344,477
887.019165,446
887.135925,466
887.252747,449
887.369446,456
887.486267,461
887.603027,458
887.719788,473
887.836548,456
887.953247,461
888.070068,467
888.186829,436
888.303528,460
888.420288,477
888.536987,444
888.653687,460
888.770447,445
888.887146,448
889.003967,469
889.120667,457
889.237305,447
889.354065,472
889.470703,478
889.587463,450
889.704163,467
889.820862,444
889.937561,464
890.054199,473
890.170837,473
890.287598,436
890.404236,454
890.520874,481
890.637634,454
890.754211,470
890.87085,465
890.987549,467
891.104187,460
891.220886,438
891.337463,476
891.454102,470
891.57074,462
891.687378,474
891.804077,453
891.920654,449
892.037231,461
892.15387,446
892.270447,456
892.387085,467
892.503723,456
892.6203,475
892.736877,454
892.853516,442
892.970032,471
893.08667,477
893.203186,465
893.319763,463
893.43634,458
893.552917,467
893.669556,451
893.786011,458
893.902588,464
894.019165,469
894.135681,467
894.252197,478
894.368835,468
894.485291,458
894.601868,458
894.718384,475
894.8349,453
894.951355,474
895.067932,461
895.184448,455
895.300964,468
895.417419,459
895.533936,450
895.650452,449
895.766907,453
895.883423,468
895.999878,448
896.116333,452
896.232849,482
896.349304,462
896.465759,455
896.582214,486
896.698669,447
896.815125,454
896.931641,448
897.048035,467
897.164551,474
897.280884,474
897.397339,454
897.513794,464
897.630249,480
897.746582,449
897.863098,469
897.979431,451
898.095886,454
898.212341,456
898.328674,463
898.445129,454
898.561462,474
898.677795,447
898.794312,451
898.910645,482
899.026978,469
899.143433,456
899.259766,454
899.37616,456
899.492493,453
899.608765,462
899.725159,463
899.841553,472
899.957947,468
900.07428,486
900.190552,478
900.306946,453
900.423157,456
900.53949,446
900.655884,465
900.772156,459
900.888489,467
901.004822,485
901.121033,447
901.237366,475
901.353699,459
901.46991,474
901.586304,464
901.702515,442
901.818787,453
901.93512,470
902.051331,490
902.167603,452
902.283875,457
902.400085,464
902.516418,457
902.632629,474
902.74884,467
902.865112,461
902.981384,464
903.097595,453
903.213867,462
903.330017,465
903.446289,461
903.5625,458
903.67865,480
903.794922,475
903.911072,469
904.027344,471
904.143494,478
904.259705,467
904.375916,465
904.492065,471
904.608215,463
904.724426,466
904.840576,441
904.956726,457
905.072876,475
905.189087,455
905.305176,474
905.421387,456
905.537537,458
905.653687,452
905.769775,474
905.885925,481
906.002014,450
906.118164,480
906.234314,446
906.350403,469
906.466492,456
906.582642,489
906.69873,476
906.814758,483
906.930908,461
907.046936,474
907.163086,468
907.279175,476
907.395264,456
907.511353,478
907.62738,469
907.743408,463
907.859497,475
907.975525,473
908.091553,473
908.207703,474
908.32373,455
908.439758,458
908.555786,462
908.671814,477
908.787842,476
908.90387,465
909.019775,457
909.135864,460
909.251892,474
909.367859,469
909.483826,463
909.599854,481
909.715881,458
909.831848,483
909.947815,458
910.063782,469
910.179749,453
910.295776,469
910.411743,497
910.527649,475
910.643616,473
910.759583,449
910.875488,471
910.991455,483
911.107361,487
911.223267,479
911.339294,475
911.4552,475
911.571106,469
911.687073,459
911.802979,478
911.918823,476
912.034729,463
912.150635,462
912.266602,471
912.382446,491
912.498352,471
912.614197,454
912.730103,462
912.846008,458
