792.44574,673
792.56488,692
792.68396,725
792.80304,701
792.92218,661
793.041199,647
793.160339,624
793.279419,636
793.398499,636
793.517578,622
793.636658,621
793.755737,647
793.874817,637
793.993896,621
794.112976,598
794.232056,627
794.351074,603
794.470215,607
794.589233,606
794.708313,609
794.827393,599
794.946411,595
795.065552,617
795.18457,608
795.303589,595
795.422668,583
795.541687,600
795.660767,591
795.779846,583
795.898865,607
796.017883,604
796.136963,582
796.255981,602
796.375061,596
796.49408,606
796.613037,606
796.732117,562
796.851135,573
796.970154,582
797.089233,579
797.208191,589
797.327271,579
797.446228,570
797.565186,574
797.684265,578
797.803223,593
797.922241,568
798.04126,574
798.160278,565
798.279297,569
798.398315,567
798.517273,565
798.636292,567
798.75531,572
798.874268,569
798.993286,572
799.112244,556
799.231323,558
799.350281,545
799.469238,568
799.588257,585
799.707153,576
799.826111,594
799.945129,576
800.064087,575
800.183044,594
800.302063,577
800.421021,578
800.539978,555
800.658936,588
800.777893,557
800.896912,539
801.015747,558
801.134705,574
801.253723,571
801.37262,579
801.491638,551
801.610535,583
801.729492,584
801.84845,575
801.967407,591
802.086243,567
802.205261,568
802.324158,561
802.443115,575
802.562073,571
802.680969,554
802.799927,590
802.918762,569
803.037659,569
803.156677,586
803.275574,604
803.39447,588
803.513428,576
803.632263,571
803.751221,588
803.870117,581
803.989014,579
804.107971,602
804.226746,586
804.345642,583
804.4646,570
804.583496,576
804.702393,578
804.821228,575
804.940125,613
805.059021,593
805.177917,584
805.296814,592
805.415649,583
805.534546,613
805.653442,606
805.772278,592
805.891113,594
806.01001,615
806.128906,589
806.247742,585
806.366577,599
806.485413,591
806.604309,584
806.723145,609
806.84198,604
806.960876,610
807.079712,605
807.198486,607
807.317383,571
807.436218,596
807.554993,615
807.673889,581
807.792725,613
807.91156,607
808.030396,611
808.14917,598
808.268005,592
808.386841,610
808.505676,622
808.624451,617
808.743286,605
808.862122,586
808.980896,608
809.099731,588
809.218506,622
809.337341,590
809.456116,621
809.57489,608
809.693726,605
809.8125,606
809.931274,603
810.050049,607
810.168884,616
810.287659,602
810.406372,612
810.525269,595
810.643982,605
810.762756,596
810.881531,608
811.000305,615
811.11908,598
811.237854,592
811.356567,590
811.475403,609
811.594116,606
811.71283,623
811.831604,595
811.950378,620
812.069153,608
812.187927,625
812.30658,614
812.425415,586
812.544128,621
812.662781,610
812.781616,608
812.900269,607
813.019043,594
813.137756,628
813.256531,605
813.375244,594
813.493896,626
813.612671,599
813.731384,623
813.850037,590
813.96875,625
814.087524,598
814.206238,622
814.324951,625
814.443604,607
814.562256,595
814.68103,603
814.799683,578
814.918335,615
815.037109,614
815.155762,625
815.274475,607
815.393188,613
815.511841,615
815.630554,589
815.749146,579
815.867859,572
815.986572,599
816.105164,612
816.223877,585
816.342529,573
816.461182,598
816.579895,588
816.698486,591
816.817139,593
816.935791,600
817.054504,603
817.173096,613
817.291748,579
817.4104,603
817.529053,594
817.647644,582
817.766235,554
817.884949,549
818.00354,566
818.122192,541
818.240845,544
818.359436,526
818.478088,531
818.59668,512
818.715271,510
818.833923,522
818.952515,545
819.071106,532
819.189758,506
819.30835,513
819.426941,504
819.545532,479
819.664124,502
819.782715,499
819.901306,504
820.019897,506
820.138489,494
820.25708,497
820.375671,514
820.494202,492
820.612732,504
820.731384,496
820.849915,497
820.968506,507
821.087097,491
821.205627,476
821.324158,480
821.442749,454
821.561279,478
821.679871,496
821.798401,477
821.916931,476
822.035461,488
822.154053,466
822.272583,494
822.391174,492
822.509583,470
822.628174,481
822.746704,462
822.865234,470
822.983765,475
823.102295,460
823.220825,478
823.339294,463
823.457825,466
823.576355,491
823.694824,469
823.813354,492
823.931885,489
824.050354,474
824.168884,480
824.287354,485
824.405823,474
824.524353,476
824.642822,488
824.761353,475
824.879822,465
824.998291,481
825.116699,485
825.235291,482
825.353699,491
825.472168,490
825.590637,466
825.709106,493
825.827576,490
825.946045,473
826.064453,469
826.182983,468
826.301392,467
826.4198,466
826.53833,461
826.656738,442
826.775208,473
826.893677,452
827.012024,469
827.130493,472
827.248962,468
827.36731,479
827.485779,487
827.604248,449
827.722595,453
827.841064,458
827.959412,485
828.077942,461
828.196289,463
828.314636,444
828.433105,453
828.551514,449
828.669861,469
828.78833,448
828.906677,452
829.025085,442
829.143433,458
829.261841,451
829.38031,464
829.498657,459
829.617004,465
829.735413,470
829.85376,464
829.972107,467
830.090515,470
830.208862,446
830.327209,469
830.445557,450
830.563904,463
830.682312,445
830.800659,447
830.919006,479
831.037354,471
831.155701,460
831.274048,467
831.392395,448
831.51062,451
831.629028,438
831.747314,459
831.865662,458
831.984009,466
832.102356,457
832.220642,463
832.338928,474
832.457275,453
832.575623,447
832.693909,464
832.812134,462
832.930481,465
833.048828,461
833.167114,473
833.2854,464
833.403687,461
833.521973,451
833.640259,443
833.758545,464
833.876831,457
833.995056,476
834.113281,449
834.231628,478
834.349915,460
834.468201,432
834.586426,474
834.704651,457
834.822998,454
834.941162,454
835.059448,472
835.177673,456
835.295959,452
835.414246,463
835.53241,452
835.650635,469
835.768921,476
835.887146,442
836.005371,463
836.123596,461
836.241821,454
836.360046,470
836.478271,480
836.596497,458
836.714722,456
836.832886,462
836.95105,479
837.069336,444
837.1875,477
837.305725,484
837.423889,475
837.542053,467
837.660339,485
837.778503,467
837.896667,486
838.014832,466
838.132996,465
838.25116,471
838.369385,476
838.487488,485
838.605713,468
838.723877,450
838.84198,466
838.960205,472
839.078308,462
839.196472,451
839.314636,449
839.4328,483
839.550964,475
839.669067,456
839.787231,459
839.905396,461
840.023499,473
840.141602,467
840.259766,482
840.377869,463
840.495972,479
840.614136,454
840.732239,451
840.850342,466
840.968445,470
841.086548,477
841.204651,459
841.322754,455
841.440918,457
841.55896,460
841.677002,464
841.795166,466
841.913208,468
842.031311,474
842.149353,459
842.267456,461
842.385498,462
842.503601,464
842.621643,468
842.739746,451
842.857788,456
842.97583,438
843.093933,464
843.211975,458
843.330017,463
843.44812,456
843.566101,460
843.684204,456
843.802246,468
843.920227,455
844.038269,480
844.156311,444
844.274292,449
844.392395,447
844.510376,466
844.628357,443
844.74646,446
844.864441,448
844.982422,467
845.100403,461
845.218384,462
845.336426,439
845.454468,454
845.572449,437
845.69043,445
845.808411,468
845.926453,443
846.044373,454
846.162354,450
846.280396,446
846.398315,443
846.516296,455
846.634216,443
846.752197,454
846.870178,459
846.988098,472
847.106079,449
847.22406,449
847.34198,464
847.4599,457
847.577881,453
847.695801,443
847.813782,448
847.931641,432
848.049561,445
848.167603,463
848.285461,457
848.403381,464
848.521362,455
848.639221,449
848.75708,446
848.875,451
848.99292,458
849.110901,445
849.22876,440
849.34668,437
849.464539,457
849.582458,433
849.700317,457
849.818176,441
849.936096,450
850.053955,446
850.171875,451
850.289673,452
850.407593,456
850.525452,442
850.643311,460
850.761169,446
850.878967,460
850.996887,452
851.114746,461
851.232544,444
851.350403,465
851.468262,444
851.58606,463
851.703979,439
851.821777,455
851.939636,459
852.057434,438
852.175232,468
852.293091,441
852.410889,460
852.528687,457
852.646545,472
852.764343,459
852.88208,441
852.999939,458
853.117676,467
853.235535,471
853.353271,462
853.471069,454
853.588928,465
853.706604,453
853.824402,457
853.9422,464
854.059998,438
854.177734,445
854.295532,455
854.413269,459
854.531006,450
854.648804,464
854.766541,445
854.884277,452
855.002014,443
855.119751,460
855.237549,466
855.355225,431
855.473022,478
855.590698,469
855.708435,471
855.826172,453
855.943848,446
856.061646,465
856.179321,464
856.296997,472
856.414795,459
856.53241,470
856.650085,441
856.767822,457
856.885559,452
857.003174,462
857.120911,470
857.238586,443
857.356201,448
857.473938,457
857.591614,456
857.709351,482
857.826965,474
857.944641,466
858.062317,461
858.179993,473
858.297668,466
858.415283,464
858.532959,473
858.650574,449
858.768188,456
858.885803,460
859.003479,450
859.121094,441
859.23877,462
859.356384,454
859.473999,436
859.591675,454
859.709229,457
859.826843,443
859.944458,458
860.062012,464
860.179626,473
860.297302,444
860.414856,478
860.532471,454
860.650024,454
860.767639,448
860.885193,452
861.002808,455
861.120361,453
861.237976,457
861.35553,444
861.473022,459
861.590698,451
861.708191,468
861.825745,462
861.943298,450
862.060852,438
862.178406,451
862.295959,453
862.413513,442
862.531006,466
862.64856,459
862.766113,448
862.883667,461
863.00116,445
863.118713,453
863.236206,465
863.353699,472
863.471252,441
863.588745,448
863.706177,454
863.82373,455
863.941162,446
864.058716,445
864.176208,452
864.29364,458
864.411194,452
864.528687,449
864.646118,473
864.763611,456
864.881042,451
864.998535,447
865.116028,450
865.233459,452
865.350891,451
865.468384,462
865.585754,454
865.703308,455
865.820679,441
865.938171,467
866.055542,440
866.173035,435
866.290466,452
866.407837,469
866.52533,450
866.6427,466
866.760071,448
866.877563,475
866.994934,453
867.112305,433
867.229736,456
867.347107,441
867.464539,463
867.58197,450
867.699341,448
867.81665,444
867.934082,465
868.051453,450
868.168823,456
868.286194,465
868.403564,451
868.520935,436
868.638306,463
868.755676,430
868.872986,446
868.990295,432
869.107727,450
869.225037,467
869.342346,465
869.459717,461
869.577026,439
869.694336,453
869.811707,460
869.929016,475
870.046326,460
870.163635,460
870.280945,446
870.398254,452
870.515564,453
870.632812,459
870.750183,469
870.867432,470
870.984741,469
871.102051,454
871.219299,452
871.336609,451
871.453918,453
871.571106,442
871.688416,473
871.805664,444
871.922852,452
872.040222,468
872.157471,464
872.274719,450
872.391968,466
872.509155,444
872.626465,460
872.743652,472
872.860962,454
872.978149,468
873.095337,445
873.212646,462
873.329834,437
873.44696,469
873.564209,438
873.681396,476
873.798645,447
873.915894,457
874.03302,440
874.150208,471
874.267456,449
874.384583,453
874.501831,445
874.618958,458
874.736145,453
874.853333,450
874.970459,470
875.087646,434
875.204834,455
875.32196,459
875.439148,427
875.556274,461
875.673401,463
875.790527,450
875.907715,454
876.024841,443
876.141968,447
876.259094,466
876.376282,458
876.493347,475
876.610474,454
876.7276,447
876.844727,459
876.961853,433
877.078918,452
877.195984,460
877.313171,450
877.430237,451
877.547302,453
877.664368,447
877.781433,466
877.898499,460
878.015625,461
878.13269,452
878.249695,458
878.366821,459
878.483887,454
878.600952,462
878.717957,464
878.834961,437
878.952087,443
879.069092,465
879.186157,463
879.303162,453
879.420227,450
879.537231,459
879.654236,460
879.77124,462
879.888306,434
880.005249,457
880.122314,461
880.239319,455
880.356323,439
880.473328,452
880.590271,449
880.707275,465
880.824341,451
880.941284,458
881.058228,452
881.175232,448
881.292236,453
881.40918,443
881.526123,465
881.643066,434
881.760071,450
881.877014,464
881.993958,438
882.11084,469
882.227783,441
882.344727,444
882.46167,456
882.578613,448
882.695618,454
882.812439,461
882.929382,453
883.046326,466
883.163208,453
883.280151,463
883.397034,437
883.513916,469
883.630798,442
883.747742,456
883.864563,461
883.981506,472
884.098389,445
884.21521,451
884.332153,457
884.448975,465
884.565796,468
884.682678,446
884.7995,458
884.916443,467
885.033264,457
885.150085,464
885.266968,445
885.383789,495
885.500671,477
885.617493,490
885.734314,455
885.851196,462
885.967896,475
886.084717,466
886.201599,466
886.318359,462
886.435181,471
886.552002,458
886.668762,468
886.785645,464
886.902344,455
887.019165,468
887.135925,458
887.252747,468
887.369446,454
887.486267,486
887.603027,439
887.719788,467
887.836548,463
887.953247,458
888.070068,458
888.186829,451
888.303528,461
888.420288,468
888.536987,442
888.653687,444
888.770447,436
888.887146,457
889.003967,461
889.120667,455
889.237305,443
889.354065,460
889.470703,443
889.587463,450
889.704163,452
889.820862,450
889.937561,438
890.054199,447
890.170837,447
890.287598,453
890.404236,451
890.520874,459
890.637634,447
890.754211,450
890.87085,461
890.987549,474
891.104187,438
891.220886,462
891.337463,469
891.454102,452
891.57074,452
891.687378,455
891.804077,469
891.920654,440
892.037231,462
892.15387,451
892.270447,464
892.387085,446
892.503723,451
892.6203,459
892.736877,444
892.853516,462
892.970032,457
893.08667,456
893.203186,459
893.319763,439
893.43634,444
893.552917,462
893.669556,465
893.786011,483
893.902588,474
894.019165,453
894.135681,452
894.252197,461
894.368835,466
894.485291,476
894.601868,464
894.718384,461
894.8349,441
894.951355,443
895.067932,470
895.184448,474
895.300964,451
895.417419,466
895.533936,456
895.650452,463
895.766907,458
895.883423,454
895.999878,455
896.116333,471
896.232849,448
896.349304,453
896.465759,455
896.582214,449
896.698669,456
896.815125,453
896.931641,449
897.048035,468
897.164551,458
897.280884,484
897.397339,456
897.513794,450
897.630249,449
897.746582,467
897.863098,448
897.979431,462
898.095886,441
898.212341,476
898.328674,436
898.445129,470
898.561462,447
898.677795,461
898.794312,460
898.910645,460
899.026978,446
899.143433,452
899.259766,458
899.37616,445
899.492493,444
899.608765,457
899.725159,447
899.841553,458
899.957947,466
900.07428,472
900.190552,459
900.306946,438
900.423157,450
900.53949,477
900.655884,462
900.772156,467
900.888489,437
901.004822,482
901.121033,452
901.237366,451
901.353699,462
901.46991,485
901.586304,450
901.702515,468
901.818787,472
901.93512,472
902.051331,464
902.167603,456
902.283875,463
902.400085,483
902.516418,453
902.632629,466
902.74884,480
902.865112,463
902.981384,487
903.097595,465
903.213867,459
903.330017,475
903.446289,452
903.5625,456
903.67865,469
903.794922,478
903.911072,462
904.027344,488
904.143494,453
904.259705,481
904.375916,455
904.492065,456
904.608215,481
904.724426,469
904.840576,464
904.956726,462
905.072876,453
905.189087,469
905.305176,459
905.421387,478
905.537537,454
905.653687,453
905.769775,458
905.885925,467
906.002014,452
906.118164,452
906.234314,465
906.350403,464
906.466492,443
906.582642,463
906.69873,463
906.814758,454
906.930908,467
907.046936,467
907.163086,470
907.279175,457
907.395264,460
907.511353,459
907.62738,433
907.743408,457
907.859497,459
907.975525,470
908.091553,460
908.207703,469
908.32373,475
908.439758,454
908.555786,454
908.671814,465
908.787842,478
908.90387,479
909.019775,464
909.135864,468
909.251892,466
909.367859,452
909.483826,446
909.599854,474
909.715881,458
909.831848,472
909.947815,456
910.063782,455
910.179749,467
910.295776,470
910.411743,454
910.527649,478
910.643616,477
910.759583,461
910.875488,464
910.991455,450
911.107361,460
911.223267,477
911.339294,451
911.4552,475
911.571106,460
911.687073,451
911.802979,475
911.918823,461
912.034729,454
912.150635,471
912.266602,487
912.382446,446
912.498352,457
912.614197,447
912.730103,454
912.846008,479
792.44574,670
792.56488,696
792.68396,732
792.80304,683
792.92218,639
793.041199,634
793.160339,623
793.279419,629
793.398499,627
793.517578,625
793.636658,639
793.755737,622
793.874817,643
793.993896,644
794.112976,628
794.232056,620
794.351074,585
794.470215,622
794.589233,641
794.708313,598
794.827393,611
794.946411,599
795.065552,629
795.18457,648
795.303589,577
795.422668,600
795.541687,606
795.660767,605
795.779846,600
795.898865,580
796.017883,588
796.136963,591
796.255981,603
796.375061,583
796.49408,585
796.613037,594
796.732117,603
796.851135,588
796.970154,602
797.089233,567
797.208191,576
797.327271,592
797.446228,582
797.565186,599
797.684265,593
797.803223,586
797.922241,587
798.04126,561
798.160278,563
798.279297,585
798.398315,574
798.517273,579
798.636292,591
798.75531,578
798.874268,576
798.993286,583
799.112244,556
799.231323,583
799.350281,604
799.469238,590
799.588257,556
799.707153,578
799.826111,571
799.945129,586
800.064087,562
800.183044,589
800.302063,568
800.421021,584
800.539978,577
800.658936,563
800.777893,553
800.896912,592
801.015747,568
801.134705,567
801.253723,579
801.37262,574
801.491638,590
801.610535,581
801.729492,601
801.84845,565
801.967407,552
802.086243,580
802.205261,565
802.324158,577
802.443115,572
802.562073,569
802.680969,577
802.799927,578
802.918762,589
803.037659,580
803.156677,598
803.275574,565
803.39447,580
803.513428,569
803.632263,572
803.751221,582
803.870117,595
803.989014,583
804.107971,589
804.226746,598
804.345642,590
804.4646,607
804.583496,581
804.702393,599
804.821228,592
804.940125,620
805.059021,604
805.177917,602
805.296814,603
805.415649,594
805.534546,589
805.653442,561
805.772278,602
805.891113,594
806.01001,590
806.128906,593
806.247742,618
806.366577,593
806.485413,599
806.604309,630
806.723145,586
806.84198,598
806.960876,587
807.079712,599
807.198486,582
807.317383,599
807.436218,605
807.554993,591
807.673889,594
807.792725,607
807.91156,611
808.030396,599
808.14917,609
808.268005,605
808.386841,594
808.505676,604
808.624451,600
808.743286,602
808.862122,607
808.980896,589
809.099731,625
809.218506,612
809.337341,615
809.456116,624
809.57489,584
809.693726,604
809.8125,595
809.931274,605
810.050049,593
810.168884,615
810.287659,611
810.406372,619
810.525269,613
810.643982,618
810.762756,613
810.881531,613
811.000305,622
811.11908,611
811.237854,594
811.356567,620
811.475403,606
811.594116,607
811.71283,631
811.831604,612
811.950378,591
812.069153,613
812.187927,605
812.30658,609
812.425415,614
812.544128,585
812.662781,607
812.781616,598
812.900269,611
813.019043,601
813.137756,609
813.256531,611
813.375244,597
813.493896,606
813.612671,640
813.731384,618
813.850037,632
813.96875,598
814.087524,631
814.206238,612
814.324951,599
814.443604,583
814.562256,629
814.68103,596
814.799683,596
814.918335,600
815.037109,578
815.155762,612
815.274475,617
815.393188,620
815.511841,596
815.630554,614
815.749146,603
815.867859,574
815.986572,588
816.105164,588
816.223877,586
816.342529,623
816.461182,586
816.579895,602
816.698486,600
816.817139,579
816.935791,565
817.054504,594
817.173096,614
817.291748,601
817.4104,570
817.529053,593
817.647644,572
817.766235,568
817.884949,581
818.00354,575
818.122192,558
818.240845,557
818.359436,534
818.478088,543
818.59668,548
818.715271,510
818.833923,508
818.952515,526
819.071106,520
819.189758,501
819.30835,486
819.426941,504
819.545532,505
819.664124,496
819.782715,497
819.901306,500
820.019897,489
820.138489,497
820.25708,498
820.375671,509
820.494202,500
820.612732,497
820.731384,493
820.849915,503
820.968506,483
821.087097,474
821.205627,485
821.324158,491
821.442749,489
821.561279,480
821.679871,478
821.798401,501
821.916931,511
822.035461,511
822.154053,493
822.272583,476
822.391174,480
822.509583,488
822.628174,501
822.746704,460
822.865234,477
822.983765,486
823.102295,485
823.220825,460
823.339294,478
823.457825,490
823.576355,489
823.694824,481
823.813354,470
823.931885,491
824.050354,471
824.168884,482
824.287354,471
824.405823,455
824.524353,475
824.642822,469
824.761353,474
824.879822,475
824.998291,487
825.116699,488
825.235291,489
825.353699,471
825.472168,490
825.590637,489
825.709106,458
825.827576,479
825.946045,460
826.064453,477
826.182983,464
826.301392,450
826.4198,472
826.53833,469
826.656738,460
826.775208,475
826.893677,449
827.012024,474
827.130493,468
827.248962,477
827.36731,463
827.485779,462
827.604248,484
827.722595,458
827.841064,479
827.959412,459
828.077942,468
828.196289,460
828.314636,457
828.433105,456
828.551514,464
828.669861,468
828.78833,472
828.906677,450
829.025085,455
829.143433,456
829.261841,454
829.38031,482
829.498657,470
829.617004,467
829.735413,475
829.85376,450
829.972107,465
830.090515,471
830.208862,466
830.327209,466
830.445557,458
830.563904,490
830.682312,455
830.800659,461
830.919006,446
831.037354,460
831.155701,469
831.274048,456
831.392395,475
831.51062,462
831.629028,449
831.747314,470
831.865662,445
831.984009,469
832.102356,465
832.220642,465
832.338928,447
832.457275,461
832.575623,470
832.693909,468
832.812134,435
832.930481,475
833.048828,490
833.167114,455
833.2854,455
833.403687,451
833.521973,471
833.640259,458
833.758545,451
833.876831,453
833.995056,456
834.113281,478
834.231628,457
834.349915,480
834.468201,470
834.586426,495
834.704651,452
834.822998,454
834.941162,473
835.059448,460
835.177673,461
835.295959,463
835.414246,479
835.53241,468
835.650635,468
835.768921,450
835.887146,465
836.005371,475
836.123596,469
836.241821,480
836.360046,465
836.478271,447
836.596497,488
836.714722,469
836.832886,475
836.95105,477
837.069336,462
837.1875,490
837.305725,486
837.423889,481
837.542053,465
837.660339,478
837.778503,468
837.896667,491
838.014832,495
838.132996,482
838.25116,459
838.369385,469
838.487488,452
838.605713,470
838.723877,463
838.84198,453
838.960205,455
839.078308,477
839.196472,480
839.314636,470
839.4328,455
839.550964,462
839.669067,475
839.787231,457
839.905396,478
840.023499,472
840.141602,470
840.259766,472
840.377869,460
840.495972,458
840.614136,466
840.732239,474
840.850342,475
840.968445,467
841.086548,475
841.204651,460
841.322754,468
841.440918,452
841.55896,479
841.677002,468
841.795166,480
841.913208,467
842.031311,461
842.149353,463
842.267456,448
842.385498,466
842.503601,458
842.621643,435
842.739746,467
842.857788,449
842.97583,462
843.093933,460
843.211975,453
843.330017,463
843.44812,450
843.566101,441
843.684204,457
843.802246,448
843.920227,481
844.038269,439
844.156311,453
844.274292,443
844.392395,449
844.510376,465
844.628357,454
844.74646,460
844.864441,443
844.982422,475
845.100403,464
845.218384,448
845.336426,447
845.454468,461
845.572449,467
845.69043,463
845.808411,436
845.926453,461
846.044373,466
846.162354,448
846.280396,453
846.398315,441
846.516296,476
846.634216,460
846.752197,456
846.870178,436
846.988098,455
847.106079,447
847.22406,460
847.34198,454
847.4599,479
847.577881,446
847.695801,465
847.813782,476
847.931641,454
848.049561,432
848.167603,446
848.285461,469
848.403381,461
848.521362,450
848.639221,450
848.75708,451
848.875,450
848.99292,449
849.110901,440
849.22876,448
849.34668,443
849.464539,445
849.582458,444
849.700317,461
849.818176,447
849.936096,441
850.053955,448
850.171875,456
850.289673,460
850.407593,453
850.525452,454
850.643311,459
850.761169,449
850.878967,441
850.996887,466
851.114746,436
851.232544,461
851.350403,448
851.468262,471
851.58606,423
851.703979,448
851.821777,438
851.939636,452
852.057434,449
852.175232,445
852.293091,445
852.410889,450
852.528687,456
852.646545,454
852.764343,468
852.88208,466
852.999939,465
853.117676,483
853.235535,449
853.353271,474
853.471069,443
853.588928,460
853.706604,456
853.824402,446
853.9422,477
854.059998,474
854.177734,452
854.295532,451
854.413269,461
854.531006,466
854.648804,449
854.766541,466
854.884277,463
855.002014,475
855.119751,447
855.237549,452
855.355225,450
855.473022,457
855.590698,464
855.708435,449
855.826172,444
855.943848,461
856.061646,463
856.179321,470
856.296997,443
856.414795,468
856.53241,456
856.650085,450
856.767822,470
856.885559,470
857.003174,480
857.120911,451
857.238586,460
857.356201,467
857.473938,462
857.591614,455
857.709351,442
857.826965,449
857.944641,464
858.062317,474
858.179993,459
858.297668,447
858.415283,460
858.532959,448
858.650574,482
858.768188,463
858.885803,450
859.003479,456
859.121094,474
859.23877,452
859.356384,468
859.473999,458
859.591675,461
859.709229,462
859.826843,459
859.944458,432
860.062012,469
860.179626,465
860.297302,461
860.414856,440
860.532471,475
860.650024,466
860.767639,454
860.885193,448
861.002808,474
861.120361,436
861.237976,448
861.35553,465
861.473022,449
861.590698,466
861.708191,440
861.825745,457
861.943298,455
862.060852,463
862.178406,440
862.295959,452
862.413513,466
862.531006,433
862.64856,481
862.766113,467
862.883667,462
863.00116,457
863.118713,481
863.236206,449
863.353699,436
863.471252,451
863.588745,438
863.706177,460
863.82373,461
863.941162,457
864.058716,452
864.176208,448
864.29364,467
864.411194,449
864.528687,479
864.646118,459
864.763611,454
864.881042,468
864.998535,453
865.116028,459
865.233459,460
865.350891,453
865.468384,457
865.585754,467
865.703308,459
865.820679,464
865.938171,471
866.055542,444
866.173035,468
866.290466,471
866.407837,445
866.52533,464
866.6427,463
866.760071,443
866.877563,449
866.994934,443
867.112305,438
867.229736,444
867.347107,472
867.464539,469
867.58197,442
867.699341,450
867.81665,453
867.934082,456
868.051453,459
868.168823,448
868.286194,480
868.403564,464
868.520935,463
868.638306,462
868.755676,442
868.872986,463
868.990295,462
869.107727,435
869.225037,459
869.342346,459
869.459717,465
869.577026,462
869.694336,446
869.811707,456
869.929016,466
870.046326,466
870.163635,463
870.280945,462
870.398254,481
870.515564,455
870.632812,458
870.750183,462
870.867432,465
870.984741,473
871.102051,451
871.219299,460
871.336609,469
871.453918,447
871.571106,463
871.688416,464
871.805664,464
871.922852,444
872.040222,464
872.157471,460
872.274719,461
872.391968,466
872.509155,458
872.626465,450
872.743652,458
872.860962,448
872.978149,458
873.095337,455
873.212646,469
873.329834,460
873.44696,439
873.564209,468
873.681396,450
873.798645,449
873.915894,459
874.03302,474
874.150208,488
874.267456,456
874.384583,461
874.501831,454
874.618958,468
874.736145,474
874.853333,439
874.970459,460
875.087646,468
875.204834,445
875.32196,453
875.439148,466
875.556274,485
875.673401,466
875.790527,466
875.907715,459
876.024841,456
876.141968,454
876.259094,463
876.376282,457
876.493347,459
876.610474,470
876.7276,456
876.844727,466
876.961853,461
877.078918,460
877.195984,462
877.313171,436
877.430237,468
877.547302,431
877.664368,480
877.781433,470
877.898499,454
878.015625,447
878.13269,444
878.249695,462
878.366821,445
878.483887,454
878.600952,463
878.717957,433
878.834961,444
878.952087,447
879.069092,465
879.186157,435
879.303162,451
879.420227,467
879.537231,448
879.654236,442
879.77124,458
879.888306,435
880.005249,454
880.122314,451
880.239319,475
880.356323,451
880.473328,451
880.590271,452
880.707275,474
880.824341,460
880.941284,455
881.058228,469
881.175232,461
881.292236,447
881.40918,467
881.526123,446
881.643066,456
881.760071,440
881.877014,463
881.993958,465
882.11084,476
882.227783,449
882.344727,461
882.46167,460
882.578613,462
882.695618,453
882.812439,455
882.929382,465
883.046326,460
883.163208,460
883.280151,457
883.397034,457
883.513916,442
883.630798,468
883.747742,444
883.864563,455
883.981506,436
884.098389,478
884.21521,457
884.332153,444
884.448975,451
884.565796,454
884.682678,475
884.7995,448
884.916443,490
885.033264,475
885.150085,453
885.266968,475
885.383789,462
885.500671,466
885.617493,474
885.734314,446
885.851196,485
885.967896,468
886.084717,473
886.201599,466
886.318359,490
886.435181,479
886.552002,463
886.668762,461
886.785645,487
886.902344,443
887.019165,467
887.135925,468
887.252747,501
887.369446,461
887.486267,478
887.603027,463
887.719788,461
887.836548,455
887.953247,457
888.070068,455
888.186829,459
888.303528,470
888.420288,483
888.536987,473
888.653687,465
888.770447,467
888.887146,461
889.003967,456
889.120667,449
889.237305,468
889.354065,480
889.470703,461
889.587463,456
889.704163,466
889.820862,452
889.937561,472
890.054199,430
890.170837,462
890.287598,455
890.404236,459
890.520874,467
890.637634,462
890.754211,462
890.87085,447
890.987549,461
891.104187,469
891.220886,458
891.337463,466
891.454102,461
891.57074,472
891.687378,470
891.804077,451
891.920654,451
892.037231,450
892.15387,474
892.270447,456
892.387085,467
892.503723,466
892.6203,461
892.736877,457
892.853516,474
892.970032,474
893.08667,483
893.203186,470
893.319763,461
893.43634,461
893.552917,441
893.669556,456
893.786011,472
893.902588,481
894.019165,459
894.135681,446
894.252197,461
894.368835,473
894.485291,443
894.601868,466
894.718384,475
894.8349,449
894.951355,459
895.067932,461
895.184448,438
895.300964,458
895.417419,465
895.533936,461
895.650452,444
895.766907,452
895.883423,482
895.999878,457
896.116333,463
896.232849,464
896.349304,461
896.465759,476
896.582214,468
896.698669,464
896.815125,446
896.931641,453
897.048035,483
897.164551,462
897.280884,477
897.397339,451
897.513794,458
897.630249,457
897.746582,467
897.863098,467
897.979431,479
898.095886,470
898.212341,483
898.328674,454
898.445129,461
898.561462,441
898.677795,472
898.794312,450
898.910645,458
899.026978,467
899.143433,439
899.259766,458
899.37616,451
899.492493,458
899.608765,458
899.725159,467
899.841553,481
899.957947,480
900.07428,475
900.190552,450
900.306946,477
900.423157,462
900.53949,466
900.655884,461
900.772156,461
900.888489,451
901.004822,448
901.121033,459
901.237366,450
901.353699,466
901.46991,461
901.586304,467
901.702515,458
901.818787,468
901.93512,460
902.051331,468
902.167603,472
902.283875,482
902.400085,476
902.516418,485
902.632629,464
902.74884,479
902.865112,472
902.981384,464
903.097595,478
903.213867,476
903.330017,464
903.446289,473
903.5625,476
903.67865,483
903.794922,468
903.911072,475
904.027344,474
904.143494,465
904.259705,470
904.375916,467
904.492065,496
904.608215,472
904.724426,471
904.840576,458
904.956726,483
905.072876,465
905.189087,470
905.305176,464
905.421387,470
905.537537,473
905.653687,461
905.769775,466
905.885925,470
906.002014,471
906.118164,463
906.234314,467
906.350403,465
906.466492,468
906.582642,471
906.69873,448
906.814758,474
906.930908,442
907.046936,488
907.163086,463
907.279175,464
907.395264,452
907.511353,460
907.62738,467
907.743408,463
907.859497,461
907.975525,474
908.091553,469
908.207703,453
908.32373,468
908.439758,483
908.555786,469
908.671814,455
908.787842,474
908.90387,477
909.019775,478
909.135864,475
909.251892,480
909.367859,465
909.483826,461
909.599854,471
909.715881,456
909.831848,473
909.947815,454
910.063782,456
910.179749,482
910.295776,467
910.411743,459
910.527649,477
910.643616,506
910.759583,470
910.875488,470
910.991455,467
911.107361,469
911.223267,468
911.339294,462
911.4552,471
911.571106,462
911.687073,456
911.802979,472
911.918823,463
912.034729,463
912.150635,491
912.266602,453
912.382446,462
912.498352,454
912.614197,467
912.730103,455
912.846008,464
792.44574,668
792.56488,701
792.68396,749
792.80304,713
792.92218,650
793.041199,639
793.160339,619
793.279419,656
793.398499,649
793.517578,644
793.636658,612
793.755737,646
793.874817,640
793.993896,635
794.112976,608
794.232056,613
794.351074,616
794.470215,614
794.589233,605
794.708313,585
794.827393,621
794.946411,603
795.065552,613
795.18457,630
795.303589,613
795.422668,611
795.541687,598
795.660767,614
795.779846,619
795.898865,592
796.017883,602
796.136963,582
796.255981,585
796.375061,590
796.49408,573
796.613037,592
796.732117,622
796.851135,592
796.970154,581
797.089233,593
797.208191,577
797.327271,580
797.446228,563
797.565186,611
797.684265,586
797.803223,574
797.922241,585
798.04126,557
798.160278,602
798.279297,590
798.398315,604
798.517273,601
798.636292,577
798.75531,587
798.874268,567
798.993286,574
799.112244,582
799.231323,572
799.350281,580
799.469238,568
799.588257,575
799.707153,589
799.826111,589
799.945129,570
800.064087,586
800.183044,579
800.302063,579
800.421021,570
800.539978,597
800.658936,574
800.777893,592
800.896912,557
801.015747,577
801.134705,580
801.253723,583
801.37262,587
801.491638,576
801.610535,583
801.729492,576
801.84845,587
801.967407,594
802.086243,567
802.205261,577
802.324158,564
802.443115,590
802.562073,595
802.680969,591
802.799927,590
802.918762,578
803.037659,574
803.156677,578
803.275574,568
803.39447,600
803.513428,590
803.632263,584
803.751221,593
803.870117,578
803.989014,573
804.107971,585
804.226746,573
804.345642,588
804.4646,596
804.583496,605
804.702393,585
804.821228,585
804.940125,583
805.059021,597
805.177917,598
805.296814,581
805.415649,624
805.534546,616
805.653442,615
805.772278,593
805.891113,587
806.01001,613
806.128906,596
806.247742,599
806.366577,603
806.485413,605
806.604309,593
806.723145,603
806.84198,589
806.960876,597
807.079712,599
807.198486,615
807.317383,582
807.436218,603
807.554993,618
807.673889,608
807.792725,585
807.91156,627
808.030396,640
808.14917,593
808.268005,591
808.386841,594
808.505676,585
808.624451,617
808.743286,597
808.862122,591
808.980896,612
809.099731,613
809.218506,626
809.337341,599
809.456116,615
809.57489,605
809.693726,604
809.8125,601
809.931274,603
810.050049,633
810.168884,618
810.287659,597
810.406372,618
810.525269,608
810.643982,597
810.762756,635
810.881531,595
811.000305,609
811.11908,612
811.237854,596
811.356567,623
811.475403,611
811.594116,627
811.71283,619
811.831604,593
811.950378,613
812.069153,607
812.187927,610
812.30658,615
812.425415,621
812.544128,604
812.662781,619
812.781616,613
812.900269,610
813.019043,623
813.137756,631
813.256531,614
813.375244,622
813.493896,624
813.612671,610
813.731384,607
813.850037,625
813.96875,596
814.087524,605
814.206238,588
814.324951,618
814.443604,608
814.562256,613
814.68103,636
814.799683,632
814.918335,578
815.037109,619
815.155762,591
815.274475,589
815.393188,598
815.511841,615
815.630554,596
815.749146,610
815.867859,587
815.986572,591
816.105164,585
816.223877,595
816.342529,612
816.461182,607
816.579895,579
816.698486,616
816.817139,625
816.935791,629
817.054504,581
817.173096,612
817.291748,604
817.4104,609
817.529053,570
817.647644,581
817.766235,580
817.884949,579
818.00354,555
818.122192,563
818.240845,573
818.359436,547
818.478088,550
818.59668,520
818.715271,530
818.833923,522
818.952515,522
819.071106,497
819.189758,512
819.30835,508
819.426941,530
819.545532,510
819.664124,479
819.782715,492
819.901306,483
820.019897,494
820.138489,493
820.25708,500
820.375671,494
820.494202,503
820.612732,501
820.731384,486
820.849915,512
820.968506,496
821.087097,468
821.205627,469
821.324158,497
821.442749,512
821.561279,476
821.679871,476
821.798401,483
821.916931,480
822.035461,481
822.154053,487
822.272583,479
822.391174,475
822.509583,489
822.628174,471
822.746704,484
822.865234,471
822.983765,470
823.102295,492
823.220825,480
823.339294,480
823.457825,488
823.576355,501
823.694824,482
823.813354,482
823.931885,483
824.050354,495
824.168884,477
824.287354,490
824.405823,490
824.524353,482
824.642822,476
824.761353,496
824.879822,481
824.998291,492
825.116699,472
825.235291,467
825.353699,488
825.472168,467
825.590637,488
825.709106,480
825.827576,478
825.946045,471
826.064453,472
826.182983,458
826.301392,470
826.4198,475
826.53833,465
826.656738,472
826.775208,476
826.893677,460
827.012024,473
827.130493,444
827.248962,467
827.36731,451
827.485779,478
827.604248,447
827.722595,476
827.841064,455
827.959412,468
828.077942,463
828.196289,456
828.314636,482
828.433105,447
828.551514,485
828.669861,447
828.78833,467
828.906677,457
829.025085,461
829.143433,440
829.261841,465
829.38031,435
829.498657,487
829.617004,463
829.735413,454
829.85376,476
829.972107,451
830.090515,466
830.208862,466
830.327209,462
830.445557,458
830.563904,447
830.682312,467
830.800659,472
830.919006,475
831.037354,463
831.155701,467
831.274048,437
831.392395,460
831.51062,464
831.629028,483
831.747314,480
831.865662,464
831.984009,439
832.102356,474
832.220642,450
832.338928,476
832.457275,457
832.575623,465
832.693909,444
832.812134,451
832.930481,443
833.048828,464
833.167114,450
833.2854,465
833.403687,442
833.521973,442
833.640259,440
833.758545,472
833.876831,464
833.995056,468
834.113281,454
834.231628,453
834.349915,470
834.468201,461
834.586426,452
834.704651,449
834.822998,465
834.941162,472
835.059448,447
835.177673,473
835.295959,457
835.414246,454
835.53241,448
835.650635,488
835.768921,459
835.887146,486
836.005371,457
836.123596,484
836.241821,474
836.360046,450
836.478271,461
836.596497,461
836.714722,484
836.832886,482
836.95105,477
837.069336,483
837.1875,478
837.305725,459
837.423889,470
837.542053,467
837.660339,477
837.778503,475
837.896667,476
838.014832,497
838.132996,475
838.25116,469
838.369385,458
838.487488,477
838.605713,457
838.723877,469
838.84198,475
838.960205,479
839.078308,470
839.196472,467
839.314636,477
839.4328,459
839.550964,486
839.669067,472
839.787231,459
839.905396,470
840.023499,465
840.141602,474
840.259766,461
840.377869,474
840.495972,459
840.614136,467
840.732239,471
840.850342,482
840.968445,466
841.086548,481
841.204651,459
841.322754,482
841.440918,452
841.55896,457
841.677002,466
841.795166,463
841.913208,473
842.031311,454
842.149353,474
842.267456,459
842.385498,459
842.503601,464
842.621643,465
842.739746,468
842.857788,472
842.97583,447
843.093933,429
843.211975,449
843.330017,456
843.44812,480
843.566101,451
843.684204,474
843.802246,447
843.920227,461
844.038269,454
844.156311,474
844.274292,471
844.392395,450
844.510376,473
844.628357,461
844.74646,445
844.864441,460
844.982422,439
845.100403,440
845.218384,460
845.336426,463
845.454468,466
845.572449,448
845.69043,472
845.808411,449
845.926453,441
846.044373,459
846.162354,469
846.280396,460
846.398315,449
846.516296,441
846.634216,462
846.752197,453
846.870178,453
846.988098,462
847.106079,442
847.22406,481
847.34198,454
847.4599,466
847.577881,462
847.695801,451
847.813782,461
847.931641,450
848.049561,457
848.167603,468
848.285461,449
848.403381,456
848.521362,449
848.639221,447
848.75708,467
848.875,468
848.99292,439
849.110901,451
849.22876,478
849.34668,446
849.464539,444
849.582458,452
849.700317,453
849.818176,446
849.936096,471
850.053955,445
850.171875,451
850.289673,456
850.407593,438
850.525452,446
850.643311,435
850.761169,445
850.878967,464
850.996887,454
851.114746,445
851.232544,455
851.350403,459
851.468262,455
851.58606,453
851.703979,462
851.821777,469
851.939636,460
852.057434,440
852.175232,454
852.293091,456
852.410889,447
852.528687,474
852.646545,450
852.764343,465
852.88208,459
852.999939,448
853.117676,465
853.235535,465
853.353271,452
853.471069,449
853.588928,455
853.706604,439
853.824402,464
853.9422,456
854.059998,450
854.177734,463
854.295532,476
854.413269,458
854.531006,453
854.648804,448
854.766541,473
854.884277,439
855.002014,478
855.119751,467
855.237549,457
855.355225,455
855.473022,456
855.590698,476
855.708435,475
855.826172,454
855.943848,476
856.061646,443
856.179321,462
856.296997,461
856.414795,484
856.53241,454
856.650085,447
856.767822,468
856.885559,474
857.003174,446
857.120911,453
857.238586,466
857.356201,433
857.473938,463
857.591614,476
857.709351,444
857.826965,472
857.944641,454
858.062317,444
858.179993,454
858.297668,467
858.415283,465
858.532959,476
858.650574,443
858.768188,476
858.885803,462
859.003479,461
859.121094,461
859.23877,472
859.356384,440
859.473999,460
859.591675,467
859.709229,470
859.826843,476
859.944458,470
860.062012,434
860.179626,473
860.297302,452
860.414856,456
860.532471,455
860.650024,463
860.767639,463
860.885193,462
861.002808,463
861.120361,471
861.237976,441
861.35553,454
861.473022,461
861.590698,461
861.708191,443
861.825745,456
861.943298,436
862.060852,465
862.178406,449
862.295959,473
862.413513,454
862.531006,447
862.64856,443
862.766113,460
862.883667,448
863.00116,469
863.118713,449
863.236206,455
863.353699,455
863.471252,466
863.588745,452
863.706177,479
863.82373,455
863.941162,458
864.058716,448
864.176208,461
864.29364,461
864.411194,462
864.528687,456
864.646118,433
864.763611,447
864.881042,468
864.998535,448
865.116028,470
865.233459,462
865.350891,477
865.468384,457
865.585754,453
865.703308,454
865.820679,456
865.938171,462
866.055542,448
866.173035,464
866.290466,454
866.407837,451
866.52533,464
866.6427,443
866.760071,457
866.877563,461
866.994934,457
867.112305,448
867.229736,468
867.347107,452
867.464539,475
867.58197,486
867.699341,463
867.81665,445
867.934082,454
868.051453,464
868.168823,448
868.286194,463
868.403564,442
868.520935,440
868.638306,466
868.755676,454
868.872986,448
868.990295,440
869.107727,478
869.225037,450
869.342346,451
869.459717,439
869.577026,454
869.694336,469
869.811707,452
869.929016,437
870.046326,465
870.163635,463
870.280945,450
870.398254,447
870.515564,453
870.632812,449
870.750183,463
870.867432,457
870.984741,446
871.102051,457
871.219299,454
871.336609,458
871.453918,472
871.571106,443
871.688416,454
871.805664,439
871.922852,471
872.040222,460
872.157471,465
872.274719,451
872.391968,469
872.509155,445
872.626465,475
872.743652,474
872.860962,462
872.978149,470
873.095337,461
873.212646,466
873.329834,480
873.44696,462
873.564209,458
873.681396,455
873.798645,435
873.915894,440
874.03302,443
874.150208,461
874.267456,457
874.384583,459
874.501831,464
874.618958,456
874.736145,455
874.853333,465
874.970459,457
875.087646,453
875.204834,459
875.32196,465
875.439148,441
875.556274,461
875.673401,466
875.790527,443
875.907715,457
876.024841,457
876.141968,463
876.259094,450
876.376282,457
876.493347,443
876.610474,463
876.7276,452
876.844727,473
876.961853,459
877.078918,450
877.195984,460
877.313171,462
877.430237,449
877.547302,479
877.664368,443
877.781433,452
877.898499,448
878.015625,472
878.13269,472
878.249695,452
878.366821,445
878.483887,443
878.600952,456
878.717957,462
878.834961,453
878.952087,462
879.069092,454
879.186157,466
879.303162,448
879.420227,466
879.537231,439
879.654236,439
879.77124,456
879.888306,424
880.005249,454
880.122314,441
880.239319,454
880.356323,448
880.473328,465
880.590271,445
880.707275,464
880.824341,469
880.941284,434
881.058228,464
881.175232,457
881.292236,471
881.40918,433
881.526123,441
881.643066,450
881.760071,455
881.877014,458
881.993958,467
882.11084,456
882.227783,444
882.344727,461
882.46167,466
882.578613,468
882.695618,466
882.812439,441
882.929382,468
883.046326,464
883.163208,465
883.280151,474
883.397034,465
883.513916,459
883.630798,463
883.747742,450
883.864563,466
883.981506,457
884.098389,464
884.21521,454
884.332153,456
884.448975,476
884.565796,456
884.682678,470
884.7995,458
884.916443,463
885.033264,476
885.150085,471
885.266968,474
885.383789,459
885.500671,488
885.617493,468
885.734314,491
885.851196,481
885.967896,468
886.084717,489
886.201599,481
886.318359,484
886.435181,470
886.552002,479
886.668762,476
886.785645,482
886.902344,455
887.019165,468
887.135925,481
887.252747,456
887.369446,479
887.486267,460
887.603027,484
887.719788,456
887.836548,452
887.953247,474
888.070068,487
888.186829,454
888.303528,458
888.420288,462
888.536987,444
888.653687,445
888.770447,456
888.887146,428
889.003967,461
889.120667,461
889.237305,472
889.354065,456
889.470703,467
889.587463,460
889.704163,454
889.820862,454
889.937561,466
890.054199,455
890.170837,444
890.287598,468
890.404236,464
890.520874,464
890.637634,471
890.754211,442
890.87085,469
890.987549,448
891.104187,473
891.220886,455
891.337463,449
891.454102,462
891.57074,461
891.687378,445
891.804077,473
891.920654,459
892.037231,451
892.15387,466
892.270447,467
892.387085,449
892.503723,461
892.6203,466
892.736877,474
892.853516,475
892.970032,452
893.08667,468
893.203186,473
893.319763,465
893.43634,463
893.552917,462
893.669556,486
893.786011,479
893.902588,459
894.019165,448
894.135681,463
894.252197,473
894.368835,454
894.485291,474
894.601868,477
894.718384,457
894.8349,479
894.951355,467
895.067932,441
895.184448,459
895.300964,465
895.417419,455
895.533936,484
895.650452,468
895.766907,439
895.883423,478
895.999878,466
896.116333,471
896.232849,473
896.349304,471
896.465759,462
896.582214,467
896.698669,453
896.815125,463
896.931641,475
897.048035,467
897.164551,451
897.280884,461
897.397339,452
897.513794,452
897.630249,466
897.746582,441
897.863098,456
897.979431,439
898.095886,453
898.212341,453
898.328674,452
898.445129,467
898.561462,460
898.677795,453
898.794312,476
898.910645,439
899.026978,474
899.143433,472
899.259766,455
899.37616,455
899.492493,467
899.608765,461
899.725159,481
899.841553,443
899.957947,446
900.07428,469
900.190552,473
900.306946,472
900.423157,467
900.53949,466
900.655884,464
900.772156,460
900.888489,455
901.004822,454
901.121033,474
901.237366,463
901.353699,470
901.46991,462
901.586304,480
901.702515,455
901.818787,471
901.93512,466
902.051331,471
902.167603,463
902.283875,489
902.400085,492
902.516418,462
902.632629,462
902.74884,464
902.865112,462
902.981384,474
903.097595,494
903.213867,480
903.330017,465
903.446289,477
903.5625,469
903.67865,483
903.794922,468
903.911072,470
904.027344,472
904.143494,463
904.259705,457
904.375916,486
904.492065,462
904.608215,464
904.724426,467
904.840576,485
904.956726,467
905.072876,459
905.189087,477
905.305176,484
905.421387,476
905.537537,471
905.653687,452
905.769775,469
905.885925,461
906.002014,463
906.118164,457
906.234314,463
906.350403,461
906.466492,477
906.582642,476
906.69873,466
906.814758,470
906.930908,456
907.046936,465
907.163086,467
907.279175,479
907.395264,471
907.511353,464
907.62738,452
907.743408,479
907.859497,469
907.975525,453
908.091553,474
908.207703,462
908.32373,472
908.439758,477
908.555786,481
908.671814,446
908.787842,461
908.90387,473
909.019775,450
909.135864,463
909.251892,478
909.367859,479
909.483826,460
909.599854,462
909.715881,454
909.831848,490
909.947815,457
910.063782,474
910.179749,463
910.295776,466
910.411743,482
910.527649,461
910.643616,484
910.759583,486
910.875488,486
910.991455,465
911.107361,476
911.223267,472
911.339294,472
911.4552,467
911.571106,475
911.687073,460
911.802979,474
911.918823,459
912.034729,465
912.150635,492
912.266602,478
912.382446,440
912.498352,475
912.614197,463
912.730103,472
912.846008,465
