792.44574,622
792.56488,666
792.68396,700
792.80304,670
792.92218,623
793.041199,609
793.160339,626
793.279419,621
793.398499,632
793.517578,593
793.636658,600
793.755737,616
793.874817,661
793.993896,616
794.112976,597
794.232056,593
794.351074,625
794.470215,598
794.589233,604
794.708313,604
794.827393,599
794.946411,605
795.065552,608
795.18457,630
795.303589,581
795.422668,590
795.541687,579
795.660767,620
795.779846,598
795.898865,585
796.017883,602
796.136963,575
796.255981,586
796.375061,589
796.49408,594
796.613037,599
796.732117,592
796.851135,569
796.970154,585
797.089233,595
797.208191,587
797.327271,567
797.446228,585
797.565186,581
797.684265,567
797.803223,606
797.922241,588
798.04126,579
798.160278,583
798.279297,577
798.398315,607
798.517273,582
798.636292,546
798.75531,580
798.874268,581
798.993286,554
799.112244,533
799.231323,602
799.350281,598
799.469238,574
799.588257,575
799.707153,571
799.826111,599
799.945129,583
800.064087,555
800.183044,569
800.302063,597
800.421021,575
800.539978,615
800.658936,594
800.777893,602
800.896912,587
801.015747,615
801.134705,576
801.253723,579
801.37262,598
801.491638,585
801.610535,580
801.729492,590
801.84845,579
801.967407,557
802.086243,578
802.205261,589
802.324158,587
802.443115,593
802.562073,579
802.680969,609
802.799927,579
802.918762,588
803.037659,573
803.156677,584
803.275574,609
803.39447,592
803.513428,598
803.632263,598
803.751221,599
803.870117,591
803.989014,587
804.107971,595
804.226746,574
804.345642,604
804.4646,575
804.583496,613
804.702393,609
804.821228,582
804.940125,585
805.059021,609
805.177917,613
805.296814,598
805.415649,602
805.534546,600
805.653442,583
805.772278,596
805.891113,606
806.01001,612
806.128906,612
806.247742,623
806.366577,616
806.485413,588
806.604309,613
806.723145,623
806.84198,593
806.960876,610
807.079712,609
807.198486,605
807.317383,606
807.436218,625
807.554993,607
807.673889,602
807.792725,607
807.91156,621
808.030396,600
808.14917,608
808.268005,622
808.386841,610
808.505676,620
808.624451,624
808.743286,581
808.862122,608
808.980896,613
809.099731,644
809.218506,623
809.337341,614
809.456116,628
809.57489,617
809.693726,618
809.8125,642
809.931274,643
810.050049,619
810.168884,645
810.287659,618
810.406372,621
810.525269,651
810.643982,616
810.762756,648
810.881531,620
811.000305,628
811.11908,622
811.237854,616
811.356567,595
811.475403,607
811.594116,595
811.71283,631
811.831604,623
811.950378,618
812.069153,625
812.187927,646
812.30658,599
812.425415,615
812.544128,614
812.662781,601
812.781616,620
812.900269,648
813.019043,617
813.137756,625
813.256531,638
813.375244,622
813.493896,641
813.612671,629
813.731384,611
813.850037,619
813.96875,628
814.087524,631
814.206238,622
814.324951,617
814.443604,623
814.562256,630
814.68103,636
814.799683,609
814.918335,601
815.037109,618
815.155762,607
815.274475,611
815.393188,606
815.511841,587
815.630554,624
815.749146,610
815.867859,583
815.986572,600
816.105164,603
816.223877,613
816.342529,603
816.461182,605
816.579895,591
816.698486,600
816.817139,604
816.935791,627
817.054504,650
817.173096,615
817.291748,597
817.4104,605
817.529053,590
817.647644,601
817.766235,580
817.884949,603
818.00354,569
818.122192,562
818.240845,561
818.359436,546
818.478088,545
818.59668,550
818.715271,532
818.833923,547
818.952515,516
819.071106,530
819.189758,510
819.30835,506
819.426941,492
819.545532,494
819.664124,526
819.782715,513
819.901306,495
820.019897,525
820.138489,466
820.25708,487
820.375671,504
820.494202,497
820.612732,519
820.731384,498
820.849915,489
820.968506,466
821.087097,501
821.205627,513
821.324158,506
821.442749,479
821.561279,481
821.679871,478
821.798401,553
821.916931,471
822.035461,472
822.154053,496
822.272583,465
822.391174,496
822.509583,495
822.628174,483
822.746704,477
822.865234,475
822.983765,467
823.102295,506
823.220825,506
823.339294,497
823.457825,461
823.576355,478
823.694824,486
823.813354,488
823.931885,462
824.050354,471
824.168884,503
824.287354,486
824.405823,496
824.524353,472
824.642822,470
824.761353,483
824.879822,492
824.998291,481
825.116699,488
825.235291,475
825.353699,488
825.472168,487
825.590637,461
825.709106,495
825.827576,483
825.946045,481
826.064453,478
826.182983,461
826.301392,445
826.4198,456
826.53833,485
826.656738,491
826.775208,471
826.893677,469
827.012024,461
827.130493,468
827.248962,455
827.36731,462
827.485779,473
827.604248,485
827.722595,457
827.841064,448
827.959412,453
828.077942,453
828.196289,443
828.314636,465
828.433105,462
828.551514,464
828.669861,457
828.78833,456
828.906677,451
829.025085,472
829.143433,472
829.261841,464
829.38031,453
829.498657,489
829.617004,443
829.735413,454
829.85376,454
829.972107,455
830.090515,477
830.208862,469
830.327209,450
830.445557,450
830.563904,456
830.682312,447
830.800659,440
830.919006,474
831.037354,450
831.155701,448
831.274048,451
831.392395,457
831.51062,450
831.629028,446
831.747314,442
831.865662,448
831.984009,475
832.102356,450
832.220642,449
832.338928,473
832.457275,462
832.575623,470
832.693909,454
832.812134,452
832.930481,470
833.048828,466
833.167114,449
833.2854,452
833.403687,469
833.521973,453
833.640259,466
833.758545,461
833.876831,447
833.995056,444
834.113281,455
834.231628,470
834.349915,448
834.468201,450
834.586426,445
834.704651,459
834.822998,465
834.941162,467
835.059448,477
835.177673,466
835.295959,447
835.414246,448
835.53241,471
835.650635,458
835.768921,453
835.887146,445
836.005371,456
836.123596,457
836.241821,446
836.360046,456
836.478271,469
836.596497,477
836.714722,480
836.832886,478
836.95105,463
837.069336,471
837.1875,473
837.305725,470
837.423889,480
837.542053,453
837.660339,464
837.778503,481
837.896667,481
838.014832,499
838.132996,466
838.25116,466
838.369385,483
838.487488,477
838.605713,462
838.723877,475
838.84198,465
838.960205,458
839.078308,465
839.196472,462
839.314636,485
839.4328,481
839.550964,471
839.669067,467
839.787231,466
839.905396,465
840.023499,480
840.141602,453
840.259766,459
840.377869,484
840.495972,466
840.614136,471
840.732239,475
840.850342,490
840.968445,464
841.086548,472
841.204651,459
841.322754,477
841.440918,470
841.55896,464
841.677002,468
841.795166,472
841.913208,454
842.031311,462
842.149353,467
842.267456,457
842.385498,452
842.503601,452
842.621643,443
842.739746,475
842.857788,458
842.97583,455
843.093933,466
843.211975,452
843.330017,450
843.44812,451
843.566101,450
843.684204,453
843.802246,444
843.920227,457
844.038269,440
844.156311,449
844.274292,441
844.392395,455
844.510376,448
844.628357,451
844.74646,432
844.864441,464
844.982422,458
845.100403,452
845.218384,444
845.336426,451
845.454468,439
845.572449,442
845.69043,436
845.808411,443
845.926453,467
846.044373,465
846.162354,453
846.280396,462
846.398315,445
846.516296,460
846.634216,447
846.752197,453
846.870178,439
846.988098,426
847.106079,448
847.22406,442
847.34198,457
847.4599,454
847.577881,455
847.695801,435
847.813782,439
847.931641,451
848.049561,455
848.167603,450
848.285461,443
848.403381,444
848.521362,455
848.639221,457
848.75708,447
848.875,463
848.99292,435
849.110901,449
849.22876,447
849.34668,462
849.464539,436
849.582458,453
849.700317,448
849.818176,458
849.936096,445
850.053955,444
850.171875,463
850.289673,450
850.407593,453
850.525452,442
850.643311,446
850.761169,460
850.878967,451
850.996887,444
851.114746,435
851.232544,446
851.350403,447
851.468262,450
851.58606,441
851.703979,441
851.821777,446
851.939636,449
852.057434,428
852.175232,476
852.293091,434
852.410889,448
852.528687,460
852.646545,447
852.764343,451
852.88208,466
852.999939,452
853.117676,448
853.235535,451
853.353271,457
853.471069,471
853.588928,444
853.706604,457
853.824402,456
853.9422,439
854.059998,453
854.177734,452
854.295532,431
854.413269,444
854.531006,454
854.648804,445
854.766541,451
854.884277,465
855.002014,465
855.119751,428
855.237549,469
855.355225,454
855.473022,430
855.590698,440
855.708435,455
855.826172,456
855.943848,460
856.061646,447
856.179321,438
856.296997,453
856.414795,470
856.53241,460
856.650085,455
856.767822,437
856.885559,456
857.003174,458
857.120911,448
857.238586,450
857.356201,455
857.473938,450
857.591614,467
857.709351,452
857.826965,495
857.944641,442
858.062317,453
858.179993,461
858.297668,455
858.415283,451
858.532959,466
858.650574,451
858.768188,452
858.885803,455
859.003479,459
859.121094,459
859.23877,426
859.356384,440
859.473999,442
859.591675,445
859.709229,457
859.826843,458
859.944458,442
860.062012,452
860.179626,455
860.297302,451
860.414856,471
860.532471,454
860.650024,466
860.767639,445
860.885193,454
861.002808,449
861.120361,441
861.237976,449
861.35553,461
861.473022,442
861.590698,452
861.708191,451
861.825745,463
861.943298,450
862.060852,449
862.178406,454
862.295959,457
862.413513,437
862.531006,437
862.64856,451
862.766113,438
862.883667,436
863.00116,462
863.118713,449
863.236206,464
863.353699,437
863.471252,456
863.588745,431
863.706177,435
863.82373,446
863.941162,464
864.058716,457
864.176208,457
864.29364,451
864.411194,453
864.528687,448
864.646118,460
864.763611,452
864.881042,445
864.998535,459
865.116028,453
865.233459,430
865.350891,439
865.468384,464
865.585754,461
865.703308,452
865.820679,465
865.938171,450
866.055542,450
866.173035,447
866.290466,447
866.407837,462
866.52533,459
866.6427,458
866.760071,467
866.877563,442
866.994934,449
867.112305,455
867.229736,466
867.347107,447
867.464539,447
867.58197,434
867.699341,471
867.81665,443
867.934082,452
868.051453,466
868.168823,430
868.286194,451
868.403564,474
868.520935,454
868.638306,454
868.755676,453
868.872986,462
868.990295,443
869.107727,473
869.225037,447
869.342346,436
869.459717,453
869.577026,457
869.694336,463
869.811707,463
869.929016,456
870.046326,454
870.163635,458
870.280945,432
870.398254,465
870.515564,453
870.632812,454
870.750183,463
870.867432,451
870.984741,455
871.102051,449
871.219299,437
871.336609,458
871.453918,450
871.571106,425
871.688416,462
871.805664,441
871.922852,449
872.040222,452
872.157471,461
872.274719,448
872.391968,461
872.509155,447
872.626465,454
872.743652,456
872.860962,455
872.978149,451
873.095337,464
873.212646,447
873.329834,456
873.44696,450
873.564209,449
873.681396,466
873.798645,446
873.915894,458
874.03302,454
874.150208,458
874.267456,458
874.384583,451
874.501831,455
874.618958,456
874.736145,454
874.853333,454
874.970459,460
875.087646,457
875.204834,457
875.32196,448
875.439148,443
875.556274,428
875.673401,476
875.790527,449
875.907715,446
876.024841,442
876.141968,452
876.259094,447
876.376282,453
876.493347,449
876.610474,454
876.7276,456
876.844727,458
876.961853,464
877.078918,461
877.195984,466
877.313171,446
877.430237,445
877.547302,458
877.664368,446
877.781433,455
877.898499,449
878.015625,451
878.13269,458
878.249695,466
878.366821,451
878.483887,454
878.600952,432
878.717957,441
878.834961,441
878.952087,476
879.069092,454
879.186157,467
879.303162,462
879.420227,452
879.537231,431
879.654236,461
879.77124,445
879.888306,450
880.005249,458
880.122314,464
880.239319,468
880.356323,442
880.473328,473
880.590271,446
880.707275,453
880.824341,440
880.941284,444
881.058228,479
881.175232,432
881.292236,465
881.40918,460
881.526123,456
881.643066,447
881.760071,461
881.877014,455
881.993958,451
882.11084,431
882.227783,469
882.344727,424
882.46167,457
882.578613,453
882.695618,438
882.812439,459
882.929382,463
883.046326,460
883.163208,454
883.280151,447
883.397034,457
883.513916,460
883.630798,443
883.747742,460
883.864563,447
883.981506,441
884.098389,445
884.21521,436
884.332153,476
884.448975,463
884.565796,446
884.682678,437
884.7995,458
884.916443,475
885.033264,452
885.150085,452
885.266968,475
885.383789,449
885.500671,497
885.617493,469
885.734314,476
885.851196,452
885.967896,465
886.084717,446
886.201599,472
886.318359,458
886.435181,453
886.552002,452
886.668762,476
886.785645,456
886.902344,441
887.019165,454
887.135925,472
887.252747,458
887.369446,459
887.486267,458
887.603027,462
887.719788,446
887.836548,450
887.953247,457
888.070068,463
888.186829,457
888.303528,451
888.420288,452
888.536987,460
888.653687,444
888.770447,469
888.887146,440
889.003967,440
889.120667,441
889.237305,456
889.354065,441
889.470703,457
889.587463,466
889.704163,455
889.820862,441
889.937561,464
890.054199,466
890.170837,465
890.287598,460
890.404236,452
890.520874,443
890.637634,459
890.754211,462
890.87085,454
890.987549,454
891.104187,453
891.220886,444
891.337463,443
891.454102,464
891.57074,478
891.687378,436
891.804077,472
891.920654,452
892.037231,457
892.15387,442
892.270447,456
892.387085,470
892.503723,445
892.6203,444
892.736877,471
892.853516,453
892.970032,456
893.08667,431
893.203186,442
893.319763,443
893.43634,467
893.552917,457
893.669556,464
893.786011,447
893.902588,466
894.019165,448
894.135681,466
894.252197,442
894.368835,443
894.485291,457
894.601868,463
894.718384,451
894.8349,466
894.951355,457
895.067932,465
895.184448,442
895.300964,473
895.417419,459
895.533936,449
895.650452,446
895.766907,449
895.883423,447
895.999878,442
896.116333,448
896.232849,460
896.349304,452
896.465759,472
896.582214,481
896.698669,451
896.815125,445
896.931641,464
897.048035,441
897.164551,456
897.280884,465
897.397339,457
897.513794,466
897.630249,475
897.746582,460
897.863098,480
897.979431,438
898.095886,493
898.212341,448
898.328674,466
898.445129,439
898.561462,478
898.677795,455
898.794312,451
898.910645,442
899.026978,478
899.143433,455
899.259766,450
899.37616,460
899.492493,455
899.608765,458
899.725159,451
899.841553,453
899.957947,452
900.07428,457
900.190552,458
900.306946,446
900.423157,458
900.53949,482
900.655884,473
900.772156,451
900.888489,472
901.004822,465
901.121033,451
901.237366,461
901.353699,467
901.46991,462
901.586304,460
901.702515,467
901.818787,473
901.93512,453
902.051331,467
902.167603,464
902.283875,475
902.400085,463
902.516418,483
902.632629,470
902.74884,461
902.865112,459
902.981384,451
903.097595,449
903.213867,472
903.330017,477
903.446289,474
903.5625,467
903.67865,474
903.794922,466
903.911072,473
904.027344,475
904.143494,460
904.259705,457
904.375916,477
904.492065,446
904.608215,442
904.724426,482
904.840576,471
904.956726,459
905.072876,460
905.189087,478
905.305176,460
905.421387,482
905.537537,461
905.653687,452
905.769775,472
905.885925,458
906.002014,459
906.118164,467
906.234314,471
906.350403,488
906.466492,465
906.582642,471
906.69873,458
906.814758,474
906.930908,473
907.046936,445
907.163086,457
907.279175,455
907.395264,468
907.511353,466
907.62738,482
907.743408,446
907.859497,458
907.975525,448
908.091553,459
908.207703,450
908.32373,451
908.439758,458
908.555786,481
908.671814,459
908.787842,459
908.90387,460
909.019775,461
909.135864,462
909.251892,465
909.367859,442
909.483826,467
909.599854,466
909.715881,448
909.831848,453
909.947815,457
910.063782,447
910.179749,468
910.295776,447
910.411743,474
910.527649,462
910.643616,477
910.759583,441
910.875488,463
910.991455,463
911.107361,462
911.223267,465
911.339294,473
911.4552,465
911.571106,469
911.687073,455
911.802979,462
911.918823,463
912.034729,470
912.150635,480
912.266602,469
912.382446,451
912.498352,462
912.614197,461
912.730103,468
912.846008,468
792.44574,627
792.56488,681
792.68396,720
792.80304,681
792.92218,618
793.041199,617
793.160339,599
793.279419,630
793.398499,636
793.517578,624
793.636658,609
793.755737,614
793.874817,646
793.993896,633
794.112976,588
794.232056,597
794.351074,610
794.470215,617
794.589233,576
794.708313,581
794.827393,584
794.946411,609
795.065552,581
795.18457,619
795.303589,590
795.422668,613
795.541687,599
795.660767,601
795.779846,577
795.898865,563
796.017883,600
796.136963,585
796.255981,627
796.375061,610
796.49408,598
796.613037,599
796.732117,571
796.851135,622
796.970154,582
797.089233,585
797.208191,582
797.327271,561
797.446228,574
797.565186,580
797.684265,585
797.803223,557
797.922241,586
798.04126,601
798.160278,570
798.279297,586
798.398315,603
798.517273,599
798.636292,566
798.75531,577
798.874268,571
798.993286,595
799.112244,571
799.231323,579
799.350281,558
799.469238,587
799.588257,580
799.707153,585
799.826111,595
799.945129,561
800.064087,600
800.183044,591
800.302063,576
800.421021,577
800.539978,578
800.658936,593
800.777893,595
800.896912,591
801.015747,597
801.134705,568
801.253723,577
801.37262,590
801.491638,560
801.610535,585
801.729492,596
801.84845,582
801.967407,606
802.086243,606
802.205261,593
802.324158,596
802.443115,586
802.562073,589
802.680969,598
802.799927,611
802.918762,604
803.037659,591
803.156677,605
803.275574,585
803.39447,598
803.513428,608
803.632263,621
803.751221,597
803.870117,611
803.989014,583
804.107971,591
804.226746,587
804.345642,562
804.4646,591
804.583496,594
804.702393,611
804.821228,604
804.940125,588
805.059021,570
805.177917,612
805.296814,587
805.415649,605
805.534546,592
805.653442,597
805.772278,610
805.891113,594
806.01001,617
806.128906,621
806.247742,589
806.366577,615
806.485413,600
806.604309,611
806.723145,607
806.84198,599
806.960876,611
807.079712,602
807.198486,620
807.317383,609
807.436218,603
807.554993,601
807.673889,615
807.792725,612
807.91156,610
808.030396,613
808.14917,602
808.268005,590
808.386841,614
808.505676,635
808.624451,617
808.743286,623
808.862122,610
808.980896,597
809.099731,609
809.218506,619
809.337341,641
809.456116,611
809.57489,638
809.693726,616
809.8125,616
809.931274,639
810.050049,630
810.168884,639
810.287659,615
810.406372,639
810.525269,626
810.643982,630
810.762756,616
810.881531,621
811.000305,620
811.11908,655
811.237854,625
811.356567,620
811.475403,642
811.594116,647
811.71283,629
811.831604,646
811.950378,646
812.069153,620
812.187927,618
812.30658,630
812.425415,617
812.544128,638
812.662781,644
812.781616,614
812.900269,627
813.019043,631
813.137756,641
813.256531,629
813.375244,631
813.493896,624
813.612671,616
813.731384,640
813.850037,617
813.96875,618
814.087524,636
814.206238,630
814.324951,607
814.443604,630
814.562256,608
814.68103,639
814.799683,624
814.918335,619
815.037109,618
815.155762,622
815.274475,647
815.393188,636
815.511841,626
815.630554,601
815.749146,611
815.867859,630
815.986572,595
816.105164,610
816.223877,603
816.342529,590
816.461182,606
816.579895,599
816.698486,591
816.817139,614
816.935791,611
817.054504,629
817.173096,598
817.291748,612
817.4104,626
817.529053,616
817.647644,573
817.766235,587
817.884949,584
818.00354,571
818.122192,556
818.240845,566
818.359436,544
818.478088,569
818.59668,537
818.715271,559
818.833923,540
818.952515,542
819.071106,528
819.189758,526
819.30835,512
819.426941,499
819.545532,521
819.664124,516
819.782715,518
819.901306,507
820.019897,519
820.138489,502
820.25708,474
820.375671,511
820.494202,475
820.612732,503
820.731384,490
820.849915,497
820.968506,489
821.087097,490
821.205627,496
821.324158,521
821.442749,479
821.561279,479
821.679871,505
821.798401,491
821.916931,473
822.035461,507
822.154053,487
822.272583,485
822.391174,478
822.509583,476
822.628174,477
822.746704,511
822.865234,479
822.983765,476
823.102295,483
823.220825,499
823.339294,480
823.457825,486
823.576355,499
823.694824,486
823.813354,487
823.931885,502
824.050354,469
824.168884,491
824.287354,487
824.405823,494
824.524353,487
824.642822,504
824.761353,481
824.879822,469
824.998291,486
825.116699,476
825.235291,502
825.353699,484
825.472168,483
825.590637,487
825.709106,473
825.827576,483
825.946045,459
826.064453,457
826.182983,483
826.301392,495
826.4198,472
826.53833,471
826.656738,491
826.775208,462
826.893677,453
827.012024,472
827.130493,461
827.248962,455
827.36731,465
827.485779,461
827.604248,471
827.722595,456
827.841064,448
827.959412,457
828.077942,465
828.196289,470
828.314636,467
828.433105,465
828.551514,453
828.669861,463
828.78833,465
828.906677,460
829.025085,452
829.143433,459
829.261841,470
829.38031,455
829.498657,478
829.617004,452
829.735413,470
829.85376,482
829.972107,448
830.090515,466
830.208862,454
830.327209,469
830.445557,454
830.563904,469
830.682312,457
830.800659,467
830.919006,476
831.037354,463
831.155701,452
831.274048,466
831.392395,442
831.51062,450
831.629028,456
831.747314,474
831.865662,465
831.984009,446
832.102356,468
832.220642,456
832.338928,455
832.457275,470
832.575623,465
832.693909,484
832.812134,455
832.930481,463
833.048828,450
833.167114,468
833.2854,461
833.403687,478
833.521973,453
833.640259,472
833.758545,466
833.876831,487
833.995056,454
834.113281,461
834.231628,448
834.349915,476
834.468201,443
834.586426,450
834.704651,456
834.822998,450
834.941162,470
835.059448,488
835.177673,454
835.295959,464
835.414246,462
835.53241,465
835.650635,450
835.768921,453
835.887146,462
836.005371,439
836.123596,478
836.241821,467
836.360046,456
836.478271,458
836.596497,478
836.714722,473
836.832886,493
836.95105,483
837.069336,469
837.1875,475
837.305725,488
837.423889,490
837.542053,465
837.660339,473
837.778503,480
837.896667,472
838.014832,486
838.132996,470
838.25116,462
838.369385,482
838.487488,470
838.605713,462
838.723877,468
838.84198,467
838.960205,475
839.078308,476
839.196472,487
839.314636,474
839.4328,455
839.550964,477
839.669067,474
839.787231,478
839.905396,471
840.023499,475
840.141602,484
840.259766,490
840.377869,465
840.495972,468
840.614136,471
840.732239,468
840.850342,479
840.968445,465
841.086548,472
841.204651,462
841.322754,468
841.440918,479
841.55896,450
841.677002,446
841.795166,456
841.913208,454
842.031311,467
842.149353,472
842.267456,474
842.385498,452
842.503601,481
842.621643,467
842.739746,443
842.857788,445
842.97583,439
843.093933,459
843.211975,460
843.330017,452
843.44812,455
843.566101,458
843.684204,456
843.802246,455
843.920227,441
844.038269,468
844.156311,457
844.274292,459
844.392395,459
844.510376,464
844.628357,454
844.74646,447
844.864441,443
844.982422,458
845.100403,455
845.218384,461
845.336426,441
845.454468,448
845.572449,445
845.69043,459
845.808411,473
845.926453,444
846.044373,458
846.162354,455
846.280396,447
846.398315,442
846.516296,440
846.634216,441
846.752197,447
846.870178,448
846.988098,476
847.106079,444
847.22406,450
847.34198,463
847.4599,454
847.577881,448
847.695801,447
847.813782,457
847.931641,450
848.049561,447
848.167603,438
848.285461,430
848.403381,456
848.521362,441
848.639221,466
848.75708,447
848.875,451
848.99292,454
849.110901,449
849.22876,447
849.34668,428
849.464539,458
849.582458,456
849.700317,455
849.818176,441
849.936096,458
850.053955,441
850.171875,471
850.289673,454
850.407593,440
850.525452,437
850.643311,452
850.761169,463
850.878967,448
850.996887,447
851.114746,451
851.232544,440
851.350403,464
851.468262,468
851.58606,454
851.703979,454
851.821777,443
851.939636,450
852.057434,458
852.175232,464
852.293091,463
852.410889,451
852.528687,458
852.646545,446
852.764343,475
852.88208,453
852.999939,456
853.117676,455
853.235535,455
853.353271,453
853.471069,449
853.588928,435
853.706604,447
853.824402,452
853.9422,449
854.059998,461
854.177734,449
854.295532,454
854.413269,439
854.531006,461
854.648804,459
854.766541,448
854.884277,465
855.002014,446
855.119751,463
855.237549,456
855.355225,468
855.473022,472
855.590698,457
855.708435,457
855.826172,471
855.943848,458
856.061646,459
856.179321,467
856.296997,454
856.414795,465
856.53241,445
856.650085,468
856.767822,467
856.885559,467
857.003174,447
857.120911,441
857.238586,468
857.356201,442
857.473938,458
857.591614,449
857.709351,467
857.826965,450
857.944641,451
858.062317,445
858.179993,451
858.297668,455
858.415283,469
858.532959,449
858.650574,438
858.768188,461
858.885803,455
859.003479,465
859.121094,447
859.23877,463
859.356384,440
859.473999,427
859.591675,435
859.709229,454
859.826843,448
859.944458,447
860.062012,452
860.179626,455
860.297302,445
860.414856,435
860.532471,440
860.650024,447
860.767639,445
860.885193,444
861.002808,453
861.120361,461
861.237976,455
861.35553,452
861.473022,450
861.590698,453
861.708191,434
861.825745,462
861.943298,464
862.060852,481
862.178406,463
862.295959,463
862.413513,463
862.531006,428
862.64856,444
862.766113,455
862.883667,435
863.00116,436
863.118713,443
863.236206,450
863.353699,448
863.471252,429
863.588745,454
863.706177,430
863.82373,452
863.941162,467
864.058716,422
864.176208,440
864.29364,455
864.411194,463
864.528687,459
864.646118,440
864.763611,458
864.881042,446
864.998535,458
865.116028,449
865.233459,457
865.350891,435
865.468384,468
865.585754,446
865.703308,440
865.820679,462
865.938171,449
866.055542,440
866.173035,459
866.290466,445
866.407837,447
866.52533,452
866.6427,472
866.760071,453
866.877563,473
866.994934,434
867.112305,436
867.229736,445
867.347107,451
867.464539,471
867.58197,446
867.699341,445
867.81665,447
867.934082,451
868.051453,450
868.168823,457
868.286194,469
868.403564,447
868.520935,442
868.638306,469
868.755676,458
868.872986,439
868.990295,445
869.107727,453
869.225037,449
869.342346,466
869.459717,442
869.577026,442
869.694336,475
869.811707,449
869.929016,464
870.046326,455
870.163635,471
870.280945,454
870.398254,452
870.515564,456
870.632812,457
870.750183,442
870.867432,451
870.984741,465
871.102051,461
871.219299,460
871.336609,457
871.453918,473
871.571106,454
871.688416,467
871.805664,442
871.922852,454
872.040222,461
872.157471,443
872.274719,450
872.391968,438
872.509155,457
872.626465,459
872.743652,458
872.860962,442
872.978149,440
873.095337,473
873.212646,466
873.329834,463
873.44696,454
873.564209,459
873.681396,466
873.798645,454
873.915894,474
874.03302,462
874.150208,443
874.267456,445
874.384583,458
874.501831,455
874.618958,451
874.736145,461
874.853333,450
874.970459,432
875.087646,449
875.204834,459
875.32196,443
875.439148,466
875.556274,439
875.673401,454
875.790527,441
875.907715,461
876.024841,443
876.141968,440
876.259094,462
876.376282,453
876.493347,445
876.610474,454
876.7276,455
876.844727,446
876.961853,464
877.078918,449
877.195984,459
877.313171,469
877.430237,476
877.547302,467
877.664368,454
877.781433,449
877.898499,448
878.015625,455
878.13269,463
878.249695,452
878.366821,438
878.483887,440
878.600952,455
878.717957,440
878.834961,444
878.952087,464
879.069092,462
879.186157,432
879.303162,458
879.420227,431
879.537231,442
879.654236,436
879.77124,463
879.888306,457
880.005249,462
880.122314,456
880.239319,472
880.356323,457
880.473328,463
880.590271,454
880.707275,468
880.824341,448
880.941284,462
881.058228,466
881.175232,466
881.292236,455
881.40918,448
881.526123,453
881.643066,457
881.760071,437
881.877014,454
881.993958,448
882.11084,447
882.227783,448
882.344727,453
882.46167,450
882.578613,455
882.695618,446
882.812439,453
882.929382,465
883.046326,476
883.163208,458
883.280151,435
883.397034,440
883.513916,449
883.630798,465
883.747742,478
883.864563,441
883.981506,444
884.098389,444
884.21521,464
884.332153,455
884.448975,471
884.565796,461
884.682678,461
884.7995,453
884.916443,445
885.033264,437
885.150085,459
885.266968,457
885.383789,478
885.500671,459
885.617493,463
885.734314,449
885.851196,456
885.967896,448
886.084717,477
886.201599,455
886.318359,461
886.435181,464
886.552002,474
886.668762,469
886.785645,476
886.902344,457
887.019165,458
887.135925,441
887.252747,483
887.369446,480
887.486267,474
887.603027,471
887.719788,469
887.836548,459
887.953247,439
888.070068,448
888.186829,467
888.303528,468
888.420288,457
888.536987,447
888.653687,459
888.770447,455
888.887146,451
889.003967,473
889.120667,472
889.237305,445
889.354065,463
889.470703,459
889.587463,464
889.704163,466
889.820862,482
889.937561,452
890.054199,457
890.170837,448
890.287598,464
890.404236,460
890.520874,448
890.637634,465
890.754211,462
890.87085,455
890.987549,461
891.104187,453
891.220886,450
891.337463,465
891.454102,465
891.57074,440
891.687378,453
891.804077,472
891.920654,454
892.037231,446
892.15387,470
892.270447,443
892.387085,464
892.503723,466
892.6203,477
892.736877,457
892.853516,457
892.970032,459
893.08667,464
893.203186,456
893.319763,461
893.43634,431
893.552917,466
893.669556,448
893.786011,449
893.902588,458
894.019165,461
894.135681,454
894.252197,450
894.368835,457
894.485291,456
894.601868,440
894.718384,460
894.8349,452
894.951355,476
895.067932,464
895.184448,455
895.300964,483
895.417419,476
895.533936,454
895.650452,474
895.766907,464
895.883423,463
895.999878,474
896.116333,468
896.232849,445
896.349304,463
896.465759,458
896.582214,477
896.698669,475
896.815125,457
896.931641,462
897.048035,481
897.164551,455
897.280884,449
897.397339,467
897.513794,458
897.630249,479
897.746582,470
897.863098,469
897.979431,453
898.095886,461
898.212341,475
898.328674,462
898.445129,451
898.561462,458
898.677795,474
898.794312,474
898.910645,449
899.026978,465
899.143433,458
899.259766,460
899.37616,469
899.492493,448
899.608765,475
899.725159,479
899.841553,456
899.957947,474
900.07428,467
900.190552,447
900.306946,449
900.423157,451
900.53949,453
900.655884,456
900.772156,469
900.888489,468
901.004822,461
901.121033,480
901.237366,467
901.353699,455
901.46991,477
901.586304,471
901.702515,447
901.818787,460
901.93512,462
902.051331,450
902.167603,475
902.283875,464
902.400085,462
902.516418,467
902.632629,477
902.74884,465
902.865112,466
902.981384,479
903.097595,477
903.213867,462
903.330017,461
903.446289,474
903.5625,461
903.67865,456
903.794922,475
903.911072,467
904.027344,478
904.143494,477
904.259705,480
904.375916,472
904.492065,463
904.608215,457
904.724426,480
904.840576,455
904.956726,454
905.072876,482
905.189087,467
905.305176,457
905.421387,462
905.537537,475
905.653687,487
905.769775,466
905.885925,455
906.002014,453
906.118164,470
906.234314,472
906.350403,476
906.466492,482
906.582642,450
906.69873,455
906.814758,463
906.930908,469
907.046936,480
907.163086,469
907.279175,476
907.395264,470
907.511353,475
907.62738,472
907.743408,463
907.859497,469
907.975525,477
908.091553,459
908.207703,458
908.32373,451
908.439758,479
908.555786,455
908.671814,471
908.787842,485
908.90387,486
909.019775,466
909.135864,470
909.251892,479
909.367859,456
909.483826,464
909.599854,468
909.715881,474
909.831848,474
909.947815,468
910.063782,482
910.179749,461
910.295776,468
910.411743,462
910.527649,456
910.643616,476
910.759583,445
910.875488,470
910.991455,469
911.107361,471
911.223267,473
911.339294,464
911.4552,456
911.571106,462
911.687073,456
911.802979,475
911.918823,435
912.034729,451
912.150635,477
912.266602,473
912.382446,457
912.498352,467
912.614197,481
912.730103,471
912.846008,463
792.44574,631
792.56488,656
792.68396,734
792.80304,699
792.92218,616
793.041199,629
793.160339,596
793.279419,634
793.398499,636
793.517578,613
793.636658,624
793.755737,626
793.874817,637
793.993896,631
794.112976,632
794.232056,592
794.351074,609
794.470215,610
794.589233,618
794.708313,607
794.827393,605
794.946411,598
795.065552,577
795.18457,599
795.303589,610
795.422668,583
795.541687,608
795.660767,568
795.779846,598
795.898865,563
796.017883,612
796.136963,589
796.255981,570
796.375061,597
796.49408,597
796.613037,589
796.732117,597
796.851135,589
796.970154,583
797.089233,592
797.208191,583
797.327271,586
797.446228,582
797.565186,586
797.684265,608
797.803223,583
797.922241,601
798.04126,593
798.160278,582
798.279297,577
798.398315,583
798.517273,559
798.636292,578
798.75531,575
798.874268,605
798.993286,578
799.112244,581
799.231323,563
799.350281,584
799.469238,581
799.588257,582
799.707153,597
799.826111,614
799.945129,575
800.064087,575
800.183044,586
800.302063,591
800.421021,582
800.539978,597
800.658936,574
800.777893,570
800.896912,569
801.015747,602
801.134705,591
801.253723,611
801.37262,580
801.491638,616
801.610535,591
801.729492,599
801.84845,578
801.967407,584
802.086243,587
802.205261,600
802.324158,601
802.443115,612
802.562073,619
802.680969,579
802.799927,565
802.918762,589
803.037659,626
803.156677,612
803.275574,605
803.39447,604
803.513428,601
803.632263,584
803.751221,589
803.870117,600
803.989014,587
804.107971,602
804.226746,625
804.345642,597
804.4646,593
804.583496,597
804.702393,604
804.821228,599
804.940125,602
805.059021,610
805.177917,612
805.296814,614
805.415649,605
805.534546,623
805.653442,622
805.772278,622
805.891113,593
806.01001,598
806.128906,606
806.247742,610
806.366577,613
806.485413,629
806.604309,615
806.723145,623
806.84198,632
806.960876,594
807.079712,626
807.198486,604
807.317383,614
807.436218,618
807.554993,602
807.673889,628
807.792725,621
807.91156,634
808.030396,609
808.14917,613
808.268005,606
808.386841,620
808.505676,622
808.624451,624
808.743286,617
808.862122,618
808.980896,616
809.099731,632
809.218506,633
809.337341,626
809.456116,620
809.57489,610
809.693726,623
809.8125,637
809.931274,619
810.050049,609
810.168884,648
810.287659,621
810.406372,627
810.525269,613
810.643982,639
810.762756,664
810.881531,640
811.000305,645
811.11908,633
811.237854,638
811.356567,616
811.475403,649
811.594116,612
811.71283,619
811.831604,616
811.950378,638
812.069153,625
812.187927,629
812.30658,624
812.425415,642
812.544128,612
812.662781,632
812.781616,645
812.900269,645
813.019043,618
813.137756,645
813.256531,642
813.375244,626
813.493896,643
813.612671,643
813.731384,643
813.850037,634
813.96875,627
814.087524,615
814.206238,612
814.324951,611
814.443604,627
814.562256,601
814.68103,601
814.799683,630
814.918335,634
815.037109,648
815.155762,620
815.274475,605
815.393188,592
815.511841,623
815.630554,625
815.749146,599
815.867859,610
815.986572,590
816.105164,617
816.223877,625
816.342529,596
816.461182,585
816.579895,614
816.698486,605
816.817139,605
816.935791,614
817.054504,607
817.173096,622
817.291748,617
817.4104,613
817.529053,593
817.647644,591
817.766235,572
817.884949,563
818.00354,577
818.122192,587
818.240845,574
818.359436,549
818.478088,551
818.59668,556
818.715271,514
818.833923,523
818.952515,532
819.071106,528
819.189758,528
819.30835,531
819.426941,515
819.545532,511
819.664124,525
819.782715,512
819.901306,482
820.019897,505
820.138489,518
820.25708,506
820.375671,491
820.494202,513
820.612732,493
820.731384,510
820.849915,482
820.968506,498
821.087097,502
821.205627,505
821.324158,509
821.442749,491
821.561279,476
821.679871,501
821.798401,492
821.916931,481
822.035461,480
822.154053,478
822.272583,495
822.391174,486
822.509583,491
822.628174,476
822.746704,506
822.865234,507
822.983765,459
823.102295,480
823.220825,494
823.339294,492
823.457825,489
823.576355,467
823.694824,497
823.813354,488
823.931885,481
824.050354,521
824.168884,479
824.287354,494
824.405823,492
824.524353,471
824.642822,482
824.761353,490
824.879822,495
824.998291,500
825.116699,510
825.235291,487
825.353699,478
825.472168,481
825.590637,482
825.709106,481
825.827576,473
825.946045,476
826.064453,482
826.182983,489
826.301392,491
826.4198,483
826.53833,460
826.656738,476
826.775208,470
826.893677,479
827.012024,460
827.130493,473
827.248962,470
827.36731,466
827.485779,465
827.604248,449
827.722595,466
827.841064,476
827.959412,462
828.077942,465
828.196289,471
828.314636,460
828.433105,470
828.551514,470
828.669861,450
828.78833,468
828.906677,456
829.025085,452
829.143433,480
829.261841,457
829.38031,478
829.498657,466
829.617004,452
829.735413,472
829.85376,474
829.972107,464
830.090515,476
830.208862,459
830.327209,470
830.445557,468
830.563904,463
830.682312,449
830.800659,473
830.919006,461
831.037354,456
831.155701,457
831.274048,475
831.392395,459
831.51062,464
831.629028,461
831.747314,465
831.865662,459
831.984009,464
832.102356,457
832.220642,450
832.338928,459
832.457275,464
832.575623,474
832.693909,459
832.812134,448
832.930481,459
833.048828,466
833.167114,455
833.2854,464
833.403687,468
833.521973,445
833.640259,445
833.758545,470
833.876831,459
833.995056,470
834.113281,445
834.231628,474
834.349915,457
834.468201,484
834.586426,462
834.704651,463
834.822998,449
834.941162,482
835.059448,450
835.177673,456
835.295959,472
835.414246,467
835.53241,447
835.650635,462
835.768921,472
835.887146,482
836.005371,445
836.123596,490
836.241821,461
836.360046,460
836.478271,474
836.596497,460
836.714722,466
836.832886,489
836.95105,467
837.069336,497
837.1875,473
837.305725,500
837.423889,493
837.542053,486
837.660339,453
837.778503,468
837.896667,491
838.014832,475
838.132996,473
838.25116,471
838.369385,474
838.487488,476
838.605713,479
838.723877,492
838.84198,484
838.960205,488
839.078308,459
839.196472,496
839.314636,455
839.4328,484
839.550964,471
839.669067,461
839.787231,477
839.905396,467
840.023499,464
840.141602,484
840.259766,483
840.377869,457
840.495972,465
840.614136,476
840.732239,467
840.850342,443
840.968445,472
841.086548,475
841.204651,452
841.322754,457
841.440918,466
841.55896,451
841.677002,460
841.795166,467
841.913208,449
842.031311,465
842.149353,469
842.267456,477
842.385498,446
842.503601,461
842.621643,454
842.739746,465
842.857788,442
842.97583,455
843.093933,465
843.211975,450
843.330017,468
843.44812,467
843.566101,426
843.684204,457
843.802246,449
843.920227,463
844.038269,492
844.156311,470
844.274292,451
844.392395,483
844.510376,439
844.628357,423
844.74646,462
844.864441,453
844.982422,452
845.100403,472
845.218384,456
845.336426,439
845.454468,468
845.572449,446
845.69043,457
845.808411,449
845.926453,455
846.044373,463
846.162354,431
846.280396,468
846.398315,426
846.516296,460
846.634216,440
846.752197,445
846.870178,454
846.988098,451
847.106079,475
847.22406,454
847.34198,458
847.4599,443
847.577881,457
847.695801,452
847.813782,437
847.931641,449
848.049561,444
848.167603,444
848.285461,462
848.403381,463
848.521362,444
848.639221,453
848.75708,445
848.875,447
848.99292,439
849.110901,472
849.22876,464
849.34668,455
849.464539,464
849.582458,452
849.700317,460
849.818176,441
849.936096,456
850.053955,458
850.171875,426
850.289673,452
850.407593,453
850.525452,433
850.643311,439
850.761169,444
850.878967,436
850.996887,466
851.114746,445
851.232544,466
851.350403,445
851.468262,461
851.58606,455
851.703979,458
851.821777,437
851.939636,453
852.057434,439
852.175232,440
852.293091,465
852.410889,438
852.528687,445
852.646545,461
852.764343,451
852.88208,445
852.999939,458
853.117676,446
853.235535,456
853.353271,446
853.471069,447
853.588928,464
853.706604,457
853.824402,466
853.9422,446
854.059998,451
854.177734,451
854.295532,462
854.413269,450
854.531006,445
854.648804,441
854.766541,473
854.884277,446
855.002014,445
855.119751,481
855.237549,449
855.355225,457
855.473022,470
855.590698,469
855.708435,448
855.826172,455
855.943848,466
856.061646,459
856.179321,463
856.296997,456
856.414795,469
856.53241,469
856.650085,452
856.767822,448
856.885559,483
857.003174,442
857.120911,452
857.238586,461
857.356201,477
857.473938,453
857.591614,458
857.709351,464
857.826965,472
857.944641,463
858.062317,462
858.179993,440
858.297668,459
858.415283,467
858.532959,470
858.650574,469
858.768188,471
858.885803,452
859.003479,447
859.121094,445
859.23877,456
859.356384,462
859.473999,451
859.591675,459
859.709229,464
859.826843,445
859.944458,454
860.062012,434
860.179626,479
860.297302,453
860.414856,453
860.532471,467
860.650024,474
860.767639,450
860.885193,458
861.002808,473
861.120361,459
861.237976,456
861.35553,455
861.473022,446
861.590698,455
861.708191,450
861.825745,459
861.943298,470
862.060852,460
862.178406,464
862.295959,444
862.413513,454
862.531006,453
862.64856,450
862.766113,465
862.883667,471
863.00116,458
863.118713,454
863.236206,445
863.353699,451
863.471252,456
863.588745,444
863.706177,455
863.82373,454
863.941162,462
864.058716,452
864.176208,451
864.29364,465
864.411194,454
864.528687,454
864.646118,480
864.763611,439
864.881042,457
864.998535,449
865.116028,447
865.233459,453
865.350891,451
865.468384,451
865.585754,462
865.703308,450
865.820679,475
865.938171,437
866.055542,457
866.173035,460
866.290466,467
866.407837,458
866.52533,438
866.6427,457
866.760071,461
866.877563,425
866.994934,456
867.112305,462
867.229736,456
867.347107,439
867.464539,450
867.58197,445
867.699341,449
867.81665,472
867.934082,462
868.051453,454
868.168823,489
868.286194,445
868.403564,454
868.520935,465
868.638306,436
868.755676,476
868.872986,466
868.990295,457
869.107727,483
869.225037,453
869.342346,457
869.459717,448
869.577026,446
869.694336,439
869.811707,449
869.929016,444
870.046326,470
870.163635,450
870.280945,451
870.398254,452
870.515564,464
870.632812,458
870.750183,455
870.867432,467
870.984741,452
871.102051,458
871.219299,456
871.336609,463
871.453918,480
871.571106,453
871.688416,471
871.805664,479
871.922852,449
872.040222,449
872.157471,465
872.274719,450
872.391968,455
872.509155,455
872.626465,443
872.743652,454
872.860962,464
872.978149,435
873.095337,449
873.212646,463
873.329834,477
873.44696,451
873.564209,475
873.681396,454
873.798645,443
873.915894,450
874.03302,437
874.150208,463
874.267456,448
874.384583,453
874.501831,462
874.618958,454
874.736145,461
874.853333,438
874.970459,443
875.087646,462
875.204834,470
875.32196,455
875.439148,456
875.556274,461
875.673401,458
875.790527,434
875.907715,455
876.024841,475
876.141968,444
876.259094,457
876.376282,450
876.493347,457
876.610474,456
876.7276,452
876.844727,465
876.961853,464
877.078918,458
877.195984,462
877.313171,453
877.430237,472
877.547302,450
877.664368,454
877.781433,465
877.898499,443
878.015625,462
878.13269,447
878.249695,456
878.366821,447
878.483887,456
878.600952,456
878.717957,457
878.834961,447
878.952087,444
879.069092,435
879.186157,465
879.303162,439
879.420227,461
879.537231,460
879.654236,450
879.77124,462
879.888306,455
880.005249,450
880.122314,444
880.239319,461
880.356323,462
880.473328,454
880.590271,458
880.707275,445
880.824341,458
880.941284,447
881.058228,459
881.175232,427
881.292236,444
881.40918,440
881.526123,463
881.643066,451
881.760071,448
881.877014,442
881.993958,454
882.11084,452
882.227783,462
882.344727,451
882.46167,451
882.578613,451
882.695618,471
882.812439,458
882.929382,438
883.046326,442
883.163208,457
883.280151,459
883.397034,451
883.513916,448
883.630798,465
883.747742,458
883.864563,470
883.981506,468
884.098389,452
884.21521,446
884.332153,449
884.448975,452
884.565796,459
884.682678,461
884.7995,453
884.916443,467
885.033264,467
885.150085,469
885.266968,464
885.383789,463
885.500671,463
885.617493,483
885.734314,459
885.851196,466
885.967896,470
886.084717,450
886.201599,466
886.318359,449
886.435181,483
886.552002,464
886.668762,444
886.785645,460
886.902344,438
887.019165,441
887.135925,475
887.252747,463
887.369446,448
887.486267,459
887.603027,460
887.719788,475
887.836548,461
887.953247,441
888.070068,458
888.186829,464
888.303528,475
888.420288,458
888.536987,453
888.653687,460
888.770447,447
888.887146,468
889.003967,448
889.120667,464
889.237305,474
889.354065,443
889.470703,470
889.587463,455
889.704163,472
889.820862,442
889.937561,450
890.054199,447
890.170837,475
890.287598,454
890.404236,444
890.520874,473
890.637634,461
890.754211,458
890.87085,456
890.987549,457
891.104187,467
891.220886,452
891.337463,465
891.454102,453
891.57074,461
891.687378,456
891.804077,457
891.920654,446
892.037231,467
892.15387,457
892.270447,454
892.387085,448
892.503723,457
892.6203,455
892.736877,447
892.853516,466
892.970032,471
893.08667,464
893.203186,450
893.319763,450
893.43634,463
893.552917,459
893.669556,446
893.786011,462
893.902588,451
894.019165,458
894.135681,451
894.252197,457
894.368835,462
894.485291,440
894.601868,493
894.718384,459
894.8349,478
894.951355,476
895.067932,456
895.184448,456
895.300964,478
895.417419,470
895.533936,473
895.650452,484
895.766907,484
895.883423,469
895.999878,452
896.116333,462
896.232849,477
896.349304,451
896.465759,472
896.582214,444
896.698669,466
896.815125,474
896.931641,461
897.048035,472
897.164551,451
897.280884,451
897.397339,477
897.513794,473
897.630249,451
897.746582,452
897.863098,466
897.979431,484
898.095886,467
898.212341,452
898.328674,464
898.445129,460
898.561462,468
898.677795,458
898.794312,480
898.910645,469
899.026978,469
899.143433,451
899.259766,466
899.37616,467
899.492493,457
899.608765,455
899.725159,474
899.841553,448
899.957947,473
900.07428,468
900.190552,459
900.306946,472
900.423157,467
900.53949,461
900.655884,463
900.772156,464
900.888489,472
901.004822,469
901.121033,468
901.237366,455
901.353699,466
901.46991,478
901.586304,451
901.702515,476
901.818787,465
901.93512,459
902.051331,476
902.167603,432
902.283875,477
902.400085,453
902.516418,474
902.632629,472
902.74884,496
902.865112,472
902.981384,480
903.097595,453
903.213867,484
903.330017,469
903.446289,477
903.5625,463
903.67865,473
903.794922,453
903.911072,481
904.027344,475
904.143494,459
904.259705,478
904.375916,476
904.492065,442
904.608215,461
904.724426,467
904.840576,477
904.956726,460
905.072876,486
905.189087,465
905.305176,470
905.421387,480
905.537537,472
905.653687,467
905.769775,458
905.885925,467
906.002014,482
906.118164,477
906.234314,450
906.350403,469
906.466492,452
906.582642,473
906.69873,465
906.814758,471
906.930908,461
907.046936,456
907.163086,459
907.279175,469
907.395264,469
907.511353,464
907.62738,476
907.743408,480
907.859497,447
907.975525,468
908.091553,480
908.207703,479
908.32373,476
908.439758,466
908.555786,448
908.671814,468
908.787842,473
908.90387,470
909.019775,487
909.135864,455
909.251892,479
909.367859,459
909.483826,480
909.599854,468
909.715881,468
909.831848,472
909.947815,465
910.063782,465
910.179749,466
910.295776,456
910.411743,463
910.527649,464
910.643616,484
910.759583,465
910.875488,457
910.991455,474
911.107361,477
911.223267,482
911.339294,469
911.4552,467
911.571106,489
911.687073,457
911.802979,478
911.918823,464
912.034729,450
912.150635,468
912.266602,452
912.382446,462
912.498352,465
912.614197,463
912.730103,462
912.846008,459
