792.44574,628
792.56488,674
792.68396,699
792.80304,665
792.92218,617
793.041199,608
793.160339,642
793.279419,637
793.398499,629
793.517578,598
793.636658,610
793.755737,626
793.874817,645
793.993896,639
794.112976,625
794.232056,609
794.351074,577
794.470215,604
794.589233,628
794.708313,612
794.827393,595
794.946411,574
795.065552,602
795.18457,598
795.303589,574
795.422668,599
795.541687,604
795.660767,584
795.779846,581
795.898865,599
796.017883,583
796.136963,593
796.255981,594
796.375061,600
796.49408,590
796.613037,589
796.732117,590
796.851135,596
796.970154,595
797.089233,597
797.208191,599
797.327271,576
797.446228,590
797.565186,592
797.684265,572
797.803223,564
797.922241,568
798.04126,601
798.160278,576
798.279297,580
798.398315,573
798.517273,607
798.636292,554
798.75531,567
798.874268,585
798.993286,608
799.112244,591
799.231323,568
799.350281,583
799.469238,599
799.588257,608
799.707153,567
799.826111,580
799.945129,578
800.064087,576
800.183044,568
800.302063,587
800.421021,597
800.539978,592
800.658936,581
800.777893,580
800.896912,570
801.015747,556
801.134705,595
801.253723,589
801.37262,588
801.491638,584
801.610535,585
801.729492,592
801.84845,597
801.967407,603
802.086243,604
802.205261,587
802.324158,625
802.443115,579
802.562073,600
802.680969,602
802.799927,560
802.918762,593
803.037659,570
803.156677,605
803.275574,600
803.39447,593
803.513428,615
803.632263,583
803.751221,606
803.870117,591
803.989014,591
804.107971,607
804.226746,578
804.345642,605
804.4646,614
804.583496,611
804.702393,576
804.821228,609
804.940125,619
805.059021,598
805.177917,606
805.296814,598
805.415649,614
805.534546,614
805.653442,616
805.772278,626
805.891113,625
806.01001,617
806.128906,604
806.247742,621
806.366577,602
806.485413,631
806.604309,643
806.723145,627
806.84198,613
806.960876,621
807.079712,605
807.198486,630
807.317383,628
807.436218,614
807.554993,623
807.673889,598
807.792725,616
807.91156,620
808.030396,618
808.14917,602
808.268005,627
808.386841,643
808.505676,647
808.624451,604
808.743286,636
808.862122,604
808.980896,622
809.099731,624
809.218506,617
809.337341,603
809.456116,631
809.57489,644
809.693726,624
809.8125,657
809.931274,644
810.050049,627
810.168884,645
810.287659,624
810.406372,630
810.525269,636
810.643982,619
810.762756,642
810.881531,632
811.000305,648
811.11908,641
811.237854,623
811.356567,608
811.475403,634
811.594116,627
811.71283,632
811.831604,621
811.950378,617
812.069153,633
812.187927,628
812.30658,647
812.425415,634
812.544128,627
812.662781,630
812.781616,641
812.900269,669
813.019043,647
813.137756,627
813.256531,657
813.375244,608
813.493896,604
813.612671,650
813.731384,614
813.850037,621
813.96875,635
814.087524,636
814.206238,632
814.324951,648
814.443604,643
814.562256,630
814.68103,616
814.799683,626
814.918335,636
815.037109,619
815.155762,603
815.274475,621
815.393188,643
815.511841,592
815.630554,617
815.749146,605
815.867859,588
815.986572,629
816.105164,597
816.223877,632
816.342529,613
816.461182,643
816.579895,619
816.698486,614
816.817139,614
816.935791,646
817.054504,619
817.173096,640
817.291748,602
817.4104,584
817.529053,590
817.647644,599
817.766235,588
817.884949,581
818.00354,588
818.122192,574
818.240845,579
818.359436,540
818.478088,535
818.59668,540
818.715271,547
818.833923,509
818.952515,513
819.071106,528
819.189758,537
819.30835,514
819.426941,524
819.545532,511
819.664124,509
819.782715,488
819.901306,504
820.019897,501
820.138489,505
820.25708,505
820.375671,515
820.494202,509
820.612732,495
820.731384,506
820.849915,508
820.968506,494
821.087097,485
821.205627,463
821.324158,470
821.442749,506
821.561279,503
821.679871,485
821.798401,497
821.916931,482
822.035461,512
822.154053,478
822.272583,489
822.391174,480
822.509583,508
822.628174,482
822.746704,502
822.865234,490
822.983765,483
823.102295,479
823.220825,503
823.339294,479
823.457825,496
823.576355,502
823.694824,478
823.813354,486
823.931885,467
824.050354,484
824.168884,498
824.287354,475
824.405823,484
824.524353,482
824.642822,497
824.761353,499
824.879822,492
824.998291,493
825.116699,489
825.235291,488
825.353699,491
825.472168,480
825.590637,484
825.709106,462
825.827576,477
825.946045,477
826.064453,477
826.182983,478
826.301392,473
826.4198,487
826.53833,496
826.656738,465
826.775208,476
826.893677,467
827.012024,466
827.130493,455
827.248962,502
827.36731,475
827.485779,465
827.604248,470
827.722595,461
827.841064,467
827.959412,453
828.077942,461
828.196289,474
828.314636,439
828.433105,450
828.551514,476
828.669861,463
828.78833,445
828.906677,449
829.025085,475
829.143433,467
829.261841,462
829.38031,470
829.498657,486
829.617004,455
829.735413,463
829.85376,454
829.972107,453
830.090515,445
830.208862,477
830.327209,462
830.445557,452
830.563904,455
830.682312,459
830.800659,456
830.919006,456
831.037354,477
831.155701,481
831.274048,459
831.392395,452
831.51062,458
831.629028,466
831.747314,460
831.865662,432
831.984009,457
832.102356,463
832.220642,434
832.338928,453
832.457275,445
832.575623,467
832.693909,465
832.812134,449
832.930481,458
833.048828,475
833.167114,470
833.2854,450
833.403687,443
833.521973,456
833.640259,470
833.758545,452
833.876831,469
833.995056,444
834.113281,479
834.231628,443
834.349915,458
834.468201,471
834.586426,471
834.704651,454
834.822998,447
834.941162,472
835.059448,462
835.177673,462
835.295959,457
835.414246,458
835.53241,467
835.650635,460
835.768921,463
835.887146,440
836.005371,483
836.123596,445
836.241821,469
836.360046,452
836.478271,477
836.596497,476
836.714722,491
836.832886,453
836.95105,487
837.069336,478
837.1875,480
837.305725,489
837.423889,484
837.542053,478
837.660339,481
837.778503,469
837.896667,480
838.014832,462
838.132996,482
838.25116,483
838.369385,492
838.487488,476
838.605713,479
838.723877,483
838.84198,472
838.960205,471
839.078308,465
839.196472,486
839.314636,487
839.4328,473
839.550964,484
839.669067,473
839.787231,489
839.905396,456
840.023499,460
840.141602,498
840.259766,481
840.377869,463
840.495972,450
840.614136,469
840.732239,454
840.850342,464
840.968445,483
841.086548,476
841.204651,463
841.322754,454
841.440918,481
841.55896,461
841.677002,469
841.795166,455
841.913208,471
842.031311,462
842.149353,473
842.267456,454
842.385498,470
842.503601,458
842.621643,463
842.739746,466
842.857788,455
842.97583,464
843.093933,444
843.211975,464
843.330017,452
843.44812,443
843.566101,468
843.684204,457
843.802246,440
843.920227,448
844.038269,464
844.156311,444
844.274292,450
844.392395,474
844.510376,449
844.628357,477
844.74646,445
844.864441,467
844.982422,463
845.100403,448
845.218384,451
845.336426,462
845.454468,437
845.572449,460
845.69043,467
845.808411,464
845.926453,451
846.044373,441
846.162354,457
846.280396,451
846.398315,440
846.516296,445
846.634216,453
846.752197,443
846.870178,452
846.988098,441
847.106079,439
847.22406,430
847.34198,444
847.4599,449
847.577881,452
847.695801,445
847.813782,454
847.931641,447
848.049561,448
848.167603,444
848.285461,453
848.403381,439
848.521362,467
848.639221,445
848.75708,457
848.875,433
848.99292,461
849.110901,447
849.22876,458
849.34668,448
849.464539,454
849.582458,454
849.700317,450
849.818176,455
849.936096,432
850.053955,453
850.171875,473
850.289673,449
850.407593,448
850.525452,463
850.643311,471
850.761169,448
850.878967,445
850.996887,442
851.114746,458
851.232544,446
851.350403,447
851.468262,458
851.58606,453
851.703979,417
851.821777,470
851.939636,432
852.057434,458
852.175232,464
852.293091,450
852.410889,443
852.528687,455
852.646545,461
852.764343,454
852.88208,452
852.999939,452
853.117676,433
853.235535,463
853.353271,458
853.471069,444
853.588928,456
853.706604,453
853.824402,448
853.9422,483
854.059998,449
854.177734,475
854.295532,454
854.413269,454
854.531006,466
854.648804,451
854.766541,453
854.884277,457
855.002014,453
855.119751,464
855.237549,462
855.355225,460
855.473022,457
855.590698,474
855.708435,473
855.826172,460
855.943848,438
856.061646,455
856.179321,439
856.296997,451
856.414795,430
856.53241,463
856.650085,446
856.767822,450
856.885559,454
857.003174,458
857.120911,463
857.238586,457
857.356201,474
857.473938,459
857.591614,456
857.709351,453
857.826965,443
857.944641,482
858.062317,461
858.179993,460
858.297668,450
858.415283,453
858.532959,477
858.650574,467
858.768188,445
858.885803,467
859.003479,438
859.121094,447
859.23877,439
859.356384,451
859.473999,455
859.591675,451
859.709229,435
859.826843,438
859.944458,433
860.062012,442
860.179626,434
860.297302,439
860.414856,451
860.532471,460
860.650024,446
860.767639,442
860.885193,470
861.002808,463
861.120361,463
861.237976,471
861.35553,430
861.473022,452
861.590698,459
861.708191,438
861.825745,446
861.943298,456
862.060852,455
862.178406,450
862.295959,441
862.413513,456
862.531006,468
862.64856,448
862.766113,449
862.883667,468
863.00116,440
863.118713,442
863.236206,463
863.353699,467
863.471252,445
863.588745,470
863.706177,457
863.82373,441
863.941162,440
864.058716,449
864.176208,454
864.29364,455
864.411194,452
864.528687,441
864.646118,451
864.763611,440
864.881042,455
864.998535,469
865.116028,475
865.233459,458
865.350891,468
865.468384,461
865.585754,455
865.703308,447
865.820679,442
865.938171,461
866.055542,457
866.173035,456
866.290466,450
866.407837,459
866.52533,460
866.6427,465
866.760071,454
866.877563,453
866.994934,452
867.112305,475
867.229736,467
867.347107,446
867.464539,442
867.58197,448
867.699341,465
867.81665,457
867.934082,444
868.051453,453
868.168823,467
868.286194,464
868.403564,448
868.520935,465
868.638306,456
868.755676,456
868.872986,457
868.990295,456
869.107727,477
869.225037,447
869.342346,429
869.459717,464
869.577026,449
869.694336,474
869.811707,458
869.929016,456
870.046326,460
870.163635,450
870.280945,445
870.398254,450
870.515564,444
870.632812,449
870.750183,476
870.867432,475
870.984741,432
871.102051,451
871.219299,466
871.336609,456
871.453918,448
871.571106,457
871.688416,468
871.805664,458
871.922852,464
872.040222,450
872.157471,437
872.274719,476
872.391968,448
872.509155,461
872.626465,459
872.743652,442
872.860962,444
872.978149,453
873.095337,455
873.212646,450
873.329834,431
873.44696,441
873.564209,450
873.681396,451
873.798645,450
873.915894,477
874.03302,447
874.150208,450
874.267456,440
874.384583,446
874.501831,449
874.618958,441
874.736145,449
874.853333,435
874.970459,446
875.087646,453
875.204834,453
875.32196,483
875.439148,454
875.556274,457
875.673401,451
875.790527,470
875.907715,459
876.024841,458
876.141968,447
876.259094,463
876.376282,456
876.493347,464
876.610474,462
876.7276,465
876.844727,453
876.961853,475
877.078918,431
877.195984,444
877.313171,458
877.430237,451
877.547302,467
877.664368,454
877.781433,453
877.898499,460
878.015625,441
878.13269,444
878.249695,447
878.366821,448
878.483887,457
878.600952,460
878.717957,438
878.834961,464
878.952087,455
879.069092,465
879.186157,453
879.303162,461
879.420227,468
879.537231,447
879.654236,456
879.77124,467
879.888306,453
880.005249,445
880.122314,447
880.239319,461
880.356323,464
880.473328,471
880.590271,462
880.707275,459
880.824341,442
880.941284,445
881.058228,457
881.175232,447
881.292236,447
881.40918,442
881.526123,454
881.643066,460
881.760071,440
881.877014,444
881.993958,444
882.11084,448
882.227783,452
882.344727,467
882.46167,449
882.578613,449
882.695618,461
882.812439,440
882.929382,449
883.046326,470
883.163208,462
883.280151,461
883.397034,447
883.513916,478
883.630798,457
883.747742,456
883.864563,456
883.981506,465
884.098389,458
884.21521,455
884.332153,465
884.448975,457
884.565796,445
884.682678,447
884.7995,455
884.916443,460
885.033264,451
885.150085,446
885.266968,473
885.383789,463
885.500671,467
885.617493,457
885.734314,459
885.851196,460
885.967896,459
886.084717,468
886.201599,465
886.318359,459
886.435181,469
886.552002,445
886.668762,459
886.785645,464
886.902344,456
887.019165,462
887.135925,462
887.252747,467
887.369446,467
887.486267,447
887.603027,467
887.719788,464
887.836548,449
887.953247,452
888.070068,453
888.186829,464
888.303528,430
888.420288,464
888.536987,482
888.653687,452
888.770447,447
888.887146,442
889.003967,441
889.120667,465
889.237305,461
889.354065,465
889.470703,461
889.587463,444
889.704163,467
889.820862,466
889.937561,462
890.054199,460
890.170837,468
890.287598,464
890.404236,459
890.520874,458
890.637634,465
890.754211,474
890.87085,446
890.987549,463
891.104187,453
891.220886,454
891.337463,483
891.454102,463
891.57074,468
891.687378,475
891.804077,472
891.920654,451
892.037231,469
892.15387,450
892.270447,455
892.387085,476
892.503723,474
892.6203,463
892.736877,466
892.853516,466
892.970032,461
893.08667,468
893.203186,459
893.319763,455
893.43634,472
893.552917,470
893.669556,471
893.786011,470
893.902588,446
894.019165,459
894.135681,460
894.252197,463
894.368835,460
894.485291,468
894.601868,458
894.718384,461
894.8349,457
894.951355,473
895.067932,456
895.184448,470
895.300964,460
895.417419,457
895.533936,460
895.650452,466
895.766907,465
895.883423,470
895.999878,461
896.116333,463
896.232849,459
896.349304,475
896.465759,458
896.582214,455
896.698669,465
896.815125,479
896.931641,463
897.048035,478
897.164551,449
897.280884,456
897.397339,457
897.513794,465
897.630249,453
897.746582,464
897.863098,455
897.979431,461
898.095886,455
898.212341,474
898.328674,471
898.445129,467
898.561462,469
898.677795,496
898.794312,472
898.910645,465
899.026978,472
899.143433,468
899.259766,467
899.37616,473
899.492493,488
899.608765,472
899.725159,475
899.841553,470
899.957947,455
900.07428,466
900.190552,459
900.306946,472
900.423157,463
900.53949,462
900.655884,454
900.772156,465
900.888489,447
901.004822,483
901.121033,473
901.237366,489
901.353699,464
901.46991,446
901.586304,475
901.702515,456
901.818787,465
901.93512,483
902.051331,466
902.167603,453
902.283875,454
902.400085,478
902.516418,461
902.632629,472
902.74884,478
902.865112,470
902.981384,470
903.097595,485
903.213867,461
903.330017,481
903.446289,456
903.5625,468
903.67865,450
903.794922,458
903.911072,463
904.027344,464
904.143494,479
904.259705,488
904.375916,481
904.492065,478
904.608215,466
904.724426,473
904.840576,457
904.956726,483
905.072876,469
905.189087,463
905.305176,468
905.421387,471
905.537537,463
905.653687,466
905.769775,465
905.885925,467
906.002014,466
906.118164,479
906.234314,473
906.350403,460
906.466492,475
906.582642,469
906.69873,460
906.814758,472
906.930908,459
907.046936,477
907.163086,451
907.279175,486
907.395264,455
907.511353,475
907.62738,467
907.743408,480
907.859497,479
907.975525,471
908.091553,460
908.207703,471
908.32373,458
908.439758,459
908.555786,454
908.671814,465
908.787842,453
908.90387,472
909.019775,476
909.135864,467
909.251892,479
909.367859,462
909.483826,467
909.599854,448
909.715881,447
909.831848,463
909.947815,473
910.063782,487
910.179749,470
910.295776,491
910.411743,468
910.527649,487
910.643616,482
910.759583,475
910.875488,460
910.991455,489
911.107361,472
911.223267,474
911.339294,479
911.4552,465
911.571106,469
911.687073,465
911.802979,463
911.918823,473
912.034729,466
912.150635,479
912.266602,484
912.382446,480
912.498352,471
912.614197,466
912.730103,477
912.846008,461
792.44574,631
792.56488,674
792.68396,692
792.80304,685
792.92218,626
793.041199,613
793.160339,619
793.279419,619
793.398499,625
793.517578,597
793.636658,621
793.755737,636
793.874817,656
793.993896,639
794.112976,609
794.232056,584
794.351074,630
794.470215,622
794.589233,610
794.708313,611
794.827393,609
794.946411,590
795.065552,627
795.18457,601
795.303589,629
795.422668,599
795.541687,594
795.660767,596
795.779846,602
795.898865,598
796.017883,584
796.136963,578
796.255981,609
796.375061,614
796.49408,596
796.613037,590
796.732117,589
796.851135,603
796.970154,614
797.089233,587
797.208191,572
797.327271,586
797.446228,584
797.565186,593
797.684265,595
797.803223,613
797.922241,601
798.04126,567
798.160278,587
798.279297,567
798.398315,566
798.517273,592
798.636292,575
798.75531,579
798.874268,592
798.993286,551
799.112244,585
799.231323,558
799.350281,594
799.469238,563
799.588257,580
799.707153,588
799.826111,574
799.945129,576
800.064087,610
800.183044,588
800.302063,577
800.421021,582
800.539978,597
800.658936,594
800.777893,581
800.896912,606
801.015747,587
801.134705,586
801.253723,581
801.37262,593
801.491638,565
801.610535,605
801.729492,625
801.84845,572
801.967407,620
802.086243,587
802.205261,589
802.324158,593
802.443115,608
802.562073,589
802.680969,608
802.799927,596
802.918762,623
803.037659,597
803.156677,589
803.275574,609
803.39447,588
803.513428,595
803.632263,610
803.751221,611
803.870117,602
803.989014,618
804.107971,627
804.226746,591
804.345642,594
804.4646,589
804.583496,596
804.702393,637
804.821228,617
804.940125,611
805.059021,599
805.177917,599
805.296814,604
805.415649,619
805.534546,614
805.653442,576
805.772278,618
805.891113,622
806.01001,627
806.128906,608
806.247742,609
806.366577,620
806.485413,633
806.604309,609
806.723145,620
806.84198,620
806.960876,608
807.079712,617
807.198486,632
807.317383,596
807.436218,642
807.554993,610
807.673889,633
807.792725,616
807.91156,613
808.030396,633
808.14917,618
808.268005,633
808.386841,637
808.505676,634
808.624451,614
808.743286,618
808.862122,625
808.980896,631
809.099731,637
809.218506,639
809.337341,637
809.456116,643
809.57489,640
809.693726,621
809.8125,644
809.931274,616
810.050049,639
810.168884,627
810.287659,650
810.406372,657
810.525269,633
810.643982,618
810.762756,627
810.881531,660
811.000305,636
811.11908,618
811.237854,638
811.356567,621
811.475403,652
811.594116,637
811.71283,647
811.831604,614
811.950378,636
812.069153,648
812.187927,629
812.30658,642
812.425415,663
812.544128,630
812.662781,636
812.781616,627
812.900269,645
813.019043,643
813.137756,628
813.256531,627
813.375244,638
813.493896,626
813.612671,638
813.731384,637
813.850037,621
813.96875,626
814.087524,624
814.206238,611
814.324951,646
814.443604,630
814.562256,650
814.68103,614
814.799683,624
814.918335,615
815.037109,618
815.155762,612
815.274475,632
815.393188,622
815.511841,632
815.630554,609
815.749146,626
815.867859,609
815.986572,629
816.105164,621
816.223877,607
816.342529,612
816.461182,634
816.579895,622
816.698486,637
816.817139,623
816.935791,628
817.054504,632
817.173096,622
817.291748,605
817.4104,609
817.529053,585
817.647644,605
817.766235,575
817.884949,600
818.00354,546
818.122192,577
818.240845,534
818.359436,557
818.478088,554
818.59668,553
818.715271,541
818.833923,530
818.952515,544
819.071106,536
819.189758,535
819.30835,520
819.426941,542
819.545532,530
819.664124,507
819.782715,481
819.901306,524
820.019897,541
820.138489,514
820.25708,519
820.375671,501
820.494202,485
820.612732,469
820.731384,501
820.849915,487
820.968506,491
821.087097,486
821.205627,506
821.324158,496
821.442749,498
821.561279,479
821.679871,492
821.798401,490
821.916931,512
822.035461,477
822.154053,483
822.272583,500
822.391174,487
822.509583,467
822.628174,511
822.746704,494
822.865234,489
822.983765,467
823.102295,500
823.220825,505
823.339294,481
823.457825,498
823.576355,480
823.694824,500
823.813354,514
823.931885,488
824.050354,492
824.168884,493
824.287354,494
824.405823,480
824.524353,500
824.642822,489
824.761353,481
824.879822,493
824.998291,482
825.116699,503
825.235291,479
825.353699,485
825.472168,482
825.590637,494
825.709106,503
825.827576,481
825.946045,479
826.064453,489
826.182983,482
826.301392,473
826.4198,485
826.53833,476
826.656738,480
826.775208,489
826.893677,465
827.012024,467
827.130493,480
827.248962,475
827.36731,458
827.485779,467
827.604248,464
827.722595,468
827.841064,472
827.959412,460
828.077942,475
828.196289,465
828.314636,469
828.433105,471
828.551514,465
828.669861,467
828.78833,475
828.906677,463
829.025085,467
829.143433,464
829.261841,465
829.38031,465
829.498657,453
829.617004,462
829.735413,467
829.85376,473
829.972107,489
830.090515,465
830.208862,475
830.327209,478
830.445557,474
830.563904,469
830.682312,463
830.800659,485
830.919006,473
831.037354,469
831.155701,459
831.274048,448
831.392395,449
831.51062,462
831.629028,468
831.747314,446
831.865662,468
831.984009,474
832.102356,471
832.220642,489
832.338928,453
832.457275,470
832.575623,462
832.693909,469
832.812134,471
832.930481,442
833.048828,467
833.167114,442
833.2854,470
833.403687,485
833.521973,474
833.640259,449
833.758545,464
833.876831,460
833.995056,464
834.113281,470
834.231628,472
834.349915,461
834.468201,458
834.586426,468
834.704651,463
834.822998,466
834.941162,478
835.059448,470
835.177673,461
835.295959,457
835.414246,474
835.53241,459
835.650635,467
835.768921,481
835.887146,475
836.005371,443
836.123596,461
836.241821,447
836.360046,483
836.478271,483
836.596497,494
836.714722,478
836.832886,482
836.95105,463
837.069336,486
837.1875,488
837.305725,487
837.423889,473
837.542053,481
837.660339,471
837.778503,496
837.896667,474
838.014832,491
838.132996,472
838.25116,480
838.369385,495
838.487488,472
838.605713,470
838.723877,457
838.84198,500
838.960205,481
839.078308,465
839.196472,457
839.314636,476
839.4328,489
839.550964,472
839.669067,486
839.787231,476
839.905396,469
840.023499,469
840.141602,473
840.259766,466
840.377869,465
840.495972,473
840.614136,477
840.732239,462
840.850342,476
840.968445,450
841.086548,475
841.204651,458
841.322754,457
841.440918,469
841.55896,488
841.677002,461
841.795166,470
841.913208,472
842.031311,478
842.149353,465
842.267456,478
842.385498,463
842.503601,466
842.621643,469
842.739746,455
842.857788,466
842.97583,462
843.093933,458
843.211975,454
843.330017,451
843.44812,467
843.566101,442
843.684204,472
843.802246,450
843.920227,461
844.038269,463
844.156311,460
844.274292,449
844.392395,444
844.510376,453
844.628357,452
844.74646,440
844.864441,445
844.982422,454
845.100403,461
845.218384,449
845.336426,448
845.454468,450
845.572449,454
845.69043,441
845.808411,442
845.926453,456
846.044373,446
846.162354,447
846.280396,451
846.398315,460
846.516296,464
846.634216,451
846.752197,464
846.870178,470
846.988098,438
847.106079,453
847.22406,473
847.34198,446
847.4599,452
847.577881,459
847.695801,448
847.813782,448
847.931641,458
848.049561,436
848.167603,468
848.285461,442
848.403381,463
848.521362,443
848.639221,454
848.75708,459
848.875,449
848.99292,462
849.110901,454
849.22876,449
849.34668,451
849.464539,457
849.582458,442
849.700317,437
849.818176,459
849.936096,438
850.053955,450
850.171875,455
850.289673,439
850.407593,441
850.525452,458
850.643311,466
850.761169,448
850.878967,447
850.996887,457
851.114746,454
851.232544,441
851.350403,450
851.468262,454
851.58606,443
851.703979,462
851.821777,452
851.939636,460
852.057434,453
852.175232,463
852.293091,455
852.410889,444
852.528687,455
852.646545,445
852.764343,452
852.88208,439
852.999939,445
853.117676,465
853.235535,442
853.353271,448
853.471069,461
853.588928,475
853.706604,451
853.824402,458
853.9422,447
854.059998,441
854.177734,463
854.295532,456
854.413269,460
854.531006,452
854.648804,460
854.766541,446
854.884277,438
855.002014,458
855.119751,450
855.237549,459
855.355225,447
855.473022,456
855.590698,459
855.708435,463
855.826172,450
855.943848,450
856.061646,465
856.179321,443
856.296997,445
856.414795,467
856.53241,464
856.650085,466
856.767822,447
856.885559,471
857.003174,445
857.120911,466
857.238586,448
857.356201,497
857.473938,438
857.591614,460
857.709351,461
857.826965,458
857.944641,460
858.062317,463
858.179993,448
858.297668,444
858.415283,453
858.532959,449
858.650574,466
858.768188,461
858.885803,439
859.003479,456
859.121094,472
859.23877,452
859.356384,474
859.473999,458
859.591675,467
859.709229,464
859.826843,460
859.944458,454
860.062012,469
860.179626,462
860.297302,455
860.414856,467
860.532471,464
860.650024,448
860.767639,466
860.885193,459
861.002808,451
861.120361,469
861.237976,452
861.35553,455
861.473022,463
861.590698,454
861.708191,451
861.825745,475
861.943298,455
862.060852,449
862.178406,457
862.295959,443
862.413513,448
862.531006,449
862.64856,461
862.766113,452
862.883667,470
863.00116,473
863.118713,444
863.236206,452
863.353699,457
863.471252,467
863.588745,440
863.706177,475
863.82373,458
863.941162,456
864.058716,467
864.176208,464
864.29364,456
864.411194,452
864.528687,441
864.646118,459
864.763611,444
864.881042,442
864.998535,464
865.116028,457
865.233459,458
865.350891,451
865.468384,448
865.585754,459
865.703308,453
865.820679,474
865.938171,448
866.055542,471
866.173035,448
866.290466,462
866.407837,466
866.52533,453
866.6427,464
866.760071,486
866.877563,456
866.994934,454
867.112305,470
867.229736,441
867.347107,456
867.464539,475
867.58197,452
867.699341,466
867.81665,438
867.934082,460
868.051453,459
868.168823,457
868.286194,447
868.403564,458
868.520935,441
868.638306,452
868.755676,425
868.872986,439
868.990295,461
869.107727,452
869.225037,457
869.342346,452
869.459717,475
869.577026,457
869.694336,445
869.811707,458
869.929016,468
870.046326,479
870.163635,466
870.280945,460
870.398254,473
870.515564,438
870.632812,460
870.750183,468
870.867432,463
870.984741,463
871.102051,455
871.219299,456
871.336609,438
871.453918,453
871.571106,464
871.688416,453
871.805664,468
871.922852,449
872.040222,452
872.157471,454
872.274719,441
872.391968,448
872.509155,445
872.626465,467
872.743652,461
872.860962,458
872.978149,471
873.095337,450
873.212646,438
873.329834,446
873.44696,455
873.564209,464
873.681396,470
873.798645,472
873.915894,437
874.03302,458
874.150208,453
874.267456,467
874.384583,455
874.501831,473
874.618958,454
874.736145,449
874.853333,458
874.970459,451
875.087646,463
875.204834,479
875.32196,454
875.439148,474
875.556274,463
875.673401,462
875.790527,438
875.907715,450
876.024841,441
876.141968,444
876.259094,451
876.376282,457
876.493347,435
876.610474,451
876.7276,463
876.844727,469
876.961853,453
877.078918,455
877.195984,474
877.313171,455
877.430237,450
877.547302,453
877.664368,461
877.781433,452
877.898499,464
878.015625,465
878.13269,458
878.249695,463
878.366821,443
878.483887,475
878.600952,460
878.717957,449
878.834961,445
878.952087,469
879.069092,479
879.186157,462
879.303162,437
879.420227,464
879.537231,479
879.654236,450
879.77124,462
879.888306,474
880.005249,456
880.122314,462
880.239319,474
880.356323,458
880.473328,454
880.590271,439
880.707275,448
880.824341,467
880.941284,445
881.058228,452
881.175232,453
881.292236,458
881.40918,443
881.526123,451
881.643066,446
881.760071,476
881.877014,444
881.993958,465
882.11084,445
882.227783,450
882.344727,453
882.46167,440
882.578613,448
882.695618,460
882.812439,440
882.929382,450
883.046326,461
883.163208,464
883.280151,437
883.397034,462
883.513916,424
883.630798,449
883.747742,437
883.864563,467
883.981506,448
884.098389,451
884.21521,441
884.332153,465
884.448975,459
884.565796,458
884.682678,459
884.7995,472
884.916443,478
885.033264,491
885.150085,466
885.266968,483
885.383789,469
885.500671,472
885.617493,455
885.734314,456
885.851196,453
885.967896,467
886.084717,462
886.201599,478
886.318359,444
886.435181,457
886.552002,468
886.668762,447
886.785645,481
886.902344,467
887.019165,447
887.135925,459
887.252747,456
887.369446,467
887.486267,472
887.603027,452
887.719788,455
887.836548,473
887.953247,453
888.070068,463
888.186829,454
888.303528,474
888.420288,451
888.536987,448
888.653687,442
888.770447,477
888.887146,479
889.003967,486
889.120667,482
889.237305,449
889.354065,460
889.470703,455
889.587463,468
889.704163,468
889.820862,478
889.937561,473
890.054199,457
890.170837,485
890.287598,471
890.404236,462
890.520874,474
890.637634,482
890.754211,453
890.87085,473
890.987549,457
891.104187,463
891.220886,459
891.337463,464
891.454102,488
891.57074,463
891.687378,471
891.804077,457
891.920654,460
892.037231,456
892.15387,470
892.270447,463
892.387085,466
892.503723,478
892.6203,473
892.736877,469
892.853516,457
892.970032,465
893.08667,456
893.203186,467
893.319763,451
893.43634,462
893.552917,445
893.669556,457
893.786011,461
893.902588,463
894.019165,469
894.135681,450
894.252197,458
894.368835,475
894.485291,458
894.601868,462
894.718384,466
894.8349,486
894.951355,455
895.067932,454
895.184448,449
895.300964,472
895.417419,468
895.533936,472
895.650452,457
895.766907,483
895.883423,486
895.999878,472
896.116333,480
896.232849,478
896.349304,465
896.465759,460
896.582214,461
896.698669,450
896.815125,455
896.931641,465
897.048035,452
897.164551,492
897.280884,470
897.397339,454
897.513794,451
897.630249,455
897.746582,459
897.863098,476
897.979431,471
898.095886,479
898.212341,476
898.328674,457
898.445129,473
898.561462,469
898.677795,457
898.794312,486
898.910645,453
899.026978,491
899.143433,461
899.259766,462
899.37616,470
899.492493,459
899.608765,473
899.725159,469
899.841553,469
899.957947,472
900.07428,440
900.190552,475
900.306946,474
900.423157,458
900.53949,459
900.655884,475
900.772156,451
900.888489,474
901.004822,472
901.121033,457
901.237366,484
901.353699,483
901.46991,473
901.586304,468
901.702515,437
901.818787,467
901.93512,451
902.051331,503
902.167603,482
902.283875,450
902.400085,476
902.516418,493
902.632629,477
902.74884,474
902.865112,470
902.981384,451
903.097595,466
903.213867,476
903.330017,460
903.446289,462
903.5625,480
903.67865,483
903.794922,457
903.911072,466
904.027344,457
904.143494,470
904.259705,456
904.375916,479
904.492065,469
904.608215,463
904.724426,469
904.840576,481
904.956726,460
905.072876,477
905.189087,470
905.305176,469
905.421387,465
905.537537,482
905.653687,466
905.769775,466
905.885925,490
906.002014,452
906.118164,443
906.234314,455
906.350403,476
906.466492,480
906.582642,463
906.69873,475
906.814758,488
906.930908,468
907.046936,461
907.163086,488
907.279175,471
907.395264,479
907.511353,474
907.62738,490
907.743408,500
907.859497,473
907.975525,489
908.091553,465
908.207703,474
908.32373,476
908.439758,463
908.555786,466
908.671814,473
908.787842,475
908.90387,455
909.019775,464
909.135864,482
909.251892,460
909.367859,470
909.483826,491
909.599854,465
909.715881,472
909.831848,480
909.947815,476
910.063782,477
910.179749,454
910.295776,493
910.411743,464
910.527649,483
910.643616,486
910.759583,471
910.875488,472
910.991455,486
911.107361,490
911.223267,474
911.339294,482
911.4552,466
911.571106,459
911.687073,462
911.802979,470
911.918823,468
912.034729,476
912.150635,458
912.266602,485
912.382446,470
912.498352,459
912.614197,480
912.730103,485
912.846008,487
792.44574,647
792.56488,669
792.68396,720
792.80304,679
792.92218,619
793.041199,625
793.160339,626
793.279419,639
793.398499,636
793.517578,605
793.636658,626
793.755737,617
793.874817,652
793.993896,628
794.112976,617
794.232056,605
794.351074,625
794.470215,608
794.589233,605
794.708313,588
794.827393,625
794.946411,604
795.065552,614
795.18457,613
795.303589,600
795.422668,613
795.541687,609
795.660767,590
795.779846,605
795.898865,568
796.017883,594
796.136963,563
796.255981,608
796.375061,602
796.49408,595
796.613037,595
796.732117,618
796.851135,592
796.970154,572
797.089233,575
797.208191,588
797.327271,587
797.446228,604
797.565186,577
797.684265,586
797.803223,609
797.922241,598
798.04126,572
798.160278,618
798.279297,593
798.398315,583
798.517273,577
798.636292,602
798.75531,591
798.874268,561
798.993286,581
799.112244,583
799.231323,582
799.350281,568
799.469238,569
799.588257,596
799.707153,614
799.826111,587
799.945129,568
800.064087,580
800.183044,598
800.302063,594
800.421021,584
800.539978,584
800.658936,555
800.777893,595
800.896912,597
801.015747,598
801.134705,591
801.253723,618
801.37262,605
801.491638,596
801.610535,569
801.729492,595
801.84845,598
801.967407,597
802.086243,596
802.205261,585
802.324158,604
802.443115,615
802.562073,620
802.680969,616
802.799927,589
802.918762,601
803.037659,595
803.156677,605
803.275574,609
803.39447,606
803.513428,606
803.632263,625
803.751221,608
803.870117,627
803.989014,588
804.107971,605
804.226746,616
804.345642,615
804.4646,607
804.583496,614
804.702393,590
804.821228,633
804.940125,622
805.059021,606
805.177917,614
805.296814,596
805.415649,601
805.534546,627
805.653442,616
805.772278,629
805.891113,611
806.01001,603
806.128906,633
806.247742,617
806.366577,625
806.485413,639
806.604309,610
806.723145,619
806.84198,631
806.960876,631
807.079712,622
807.198486,612
807.317383,611
807.436218,615
807.554993,608
807.673889,621
807.792725,614
807.91156,642
808.030396,623
808.14917,598
808.268005,622
808.386841,646
808.505676,663
808.624451,632
808.743286,645
808.862122,633
808.980896,629
809.099731,625
809.218506,654
809.337341,619
809.456116,616
809.57489,636
809.693726,645
809.8125,629
809.931274,672
810.050049,628
810.168884,641
810.287659,639
810.406372,611
810.525269,628
810.643982,618
810.762756,660
810.881531,644
811.000305,630
811.11908,625
811.237854,633
811.356567,626
811.475403,638
811.594116,618
811.71283,635
811.831604,647
811.950378,622
812.069153,653
812.187927,637
812.30658,629
812.425415,636
812.544128,634
812.662781,640
812.781616,632
812.900269,650
813.019043,637
813.137756,651
813.256531,641
813.375244,641
813.493896,644
813.612671,653
813.731384,615
813.850037,638
813.96875,624
814.087524,643
814.206238,647
814.324951,635
814.443604,629
814.562256,655
814.68103,622
814.799683,619
814.918335,633
815.037109,622
815.155762,632
815.274475,613
815.393188,641
815.511841,621
815.630554,632
815.749146,614
815.867859,595
815.986572,637
816.105164,603
816.223877,594
816.342529,619
816.461182,598
816.579895,612
816.698486,612
816.817139,623
816.935791,621
817.054504,625
817.173096,636
817.291748,633
817.4104,622
817.529053,613
817.647644,624
817.766235,583
817.884949,585
818.00354,600
818.122192,568
818.240845,543
818.359436,565
818.478088,547
818.59668,561
818.715271,532
818.833923,534
818.952515,519
819.071106,531
819.189758,531
819.30835,514
819.426941,493
819.545532,511
819.664124,509
819.782715,516
819.901306,527
820.019897,513
820.138489,500
820.25708,528
820.375671,503
820.494202,497
820.612732,482
820.731384,479
820.849915,485
820.968506,511
821.087097,484
821.205627,514
821.324158,484
821.442749,504
821.561279,483
821.679871,495
821.798401,486
821.916931,494
822.035461,494
822.154053,494
822.272583,487
822.391174,489
822.509583,488
822.628174,481
822.746704,496
822.865234,492
822.983765,458
823.102295,485
823.220825,495
823.339294,496
823.457825,496
823.576355,474
823.694824,512
823.813354,490
823.931885,476
824.050354,486
824.168884,498
824.287354,508
824.405823,485
824.524353,504
824.642822,486
824.761353,505
824.879822,479
824.998291,511
825.116699,466
825.235291,496
825.353699,483
825.472168,494
825.590637,483
825.709106,513
825.827576,494
825.946045,485
826.064453,501
826.182983,493
826.301392,479
826.4198,482
826.53833,478
826.656738,485
826.775208,481
826.893677,469
827.012024,474
827.130493,479
827.248962,474
827.36731,484
827.485779,474
827.604248,463
827.722595,493
827.841064,468
827.959412,474
828.077942,485
828.196289,464
828.314636,480
828.433105,483
828.551514,483
828.669861,469
828.78833,471
828.906677,468
829.025085,463
829.143433,469
829.261841,473
829.38031,472
829.498657,483
829.617004,465
829.735413,487
829.85376,485
829.972107,473
830.090515,465
830.208862,466
830.327209,448
830.445557,477
830.563904,452
830.682312,461
830.800659,464
830.919006,464
831.037354,461
831.155701,463
831.274048,481
831.392395,463
831.51062,450
831.629028,465
831.747314,461
831.865662,477
831.984009,482
832.102356,463
832.220642,461
832.338928,460
832.457275,449
832.575623,458
832.693909,428
832.812134,498
832.930481,472
833.048828,496
833.167114,445
833.2854,467
833.403687,455
833.521973,461
833.640259,475
833.758545,469
833.876831,467
833.995056,469
834.113281,450
834.231628,468
834.349915,463
834.468201,476
834.586426,466
834.704651,462
834.822998,472
834.941162,476
835.059448,470
835.177673,469
835.295959,466
835.414246,468
835.53241,475
835.650635,476
835.768921,457
835.887146,463
836.005371,453
836.123596,479
836.241821,459
836.360046,463
836.478271,491
836.596497,478
836.714722,458
836.832886,465
836.95105,477
837.069336,482
837.1875,459
837.305725,508
837.423889,503
837.542053,485
837.660339,483
837.778503,479
837.896667,485
838.014832,487
838.132996,485
838.25116,487
838.369385,471
838.487488,473
838.605713,480
838.723877,483
838.84198,474
838.960205,496
839.078308,507
839.196472,478
839.314636,486
839.4328,504
839.550964,473
839.669067,475
839.787231,480
839.905396,469
840.023499,482
840.141602,477
840.259766,460
840.377869,456
840.495972,480
840.614136,490
840.732239,482
840.850342,485
840.968445,463
841.086548,464
841.204651,470
841.322754,477
841.440918,462
841.55896,481
841.677002,450
841.795166,465
841.913208,443
842.031311,463
842.149353,459
842.267456,478
842.385498,480
842.503601,454
842.621643,481
842.739746,471
842.857788,465
842.97583,462
843.093933,468
843.211975,466
843.330017,467
843.44812,476
843.566101,477
843.684204,451
843.802246,453
843.920227,454
844.038269,470
844.156311,467
844.274292,468
844.392395,456
844.510376,466
844.628357,458
844.74646,450
844.864441,456
844.982422,440
845.100403,454
845.218384,460
845.336426,477
845.454468,464
845.572449,476
845.69043,456
845.808411,468
845.926453,470
846.044373,429
846.162354,462
846.280396,459
846.398315,450
846.516296,481
846.634216,434
846.752197,468
846.870178,450
846.988098,460
847.106079,443
847.22406,442
847.34198,475
847.4599,452
847.577881,458
847.695801,461
847.813782,457
847.931641,461
848.049561,446
848.167603,460
848.285461,439
848.403381,453
848.521362,456
848.639221,460
848.75708,448
848.875,456
848.99292,453
849.110901,435
849.22876,447
849.34668,461
849.464539,472
849.582458,453
849.700317,458
849.818176,457
849.936096,467
850.053955,449
850.171875,446
850.289673,460
850.407593,464
850.525452,477
850.643311,440
850.761169,459
850.878967,453
850.996887,457
851.114746,448
851.232544,456
851.350403,474
851.468262,455
851.58606,461
851.703979,446
851.821777,459
851.939636,472
852.057434,466
852.175232,432
852.293091,466
852.410889,460
852.528687,461
852.646545,469
852.764343,461
852.88208,455
852.999939,455
853.117676,469
853.235535,455
853.353271,446
853.471069,472
853.588928,450
853.706604,455
853.824402,465
853.9422,453
854.059998,444
854.177734,464
854.295532,453
854.413269,451
854.531006,465
854.648804,468
854.766541,458
854.884277,452
855.002014,481
855.119751,459
855.237549,467
855.355225,461
855.473022,470
855.590698,458
855.708435,470
855.826172,443
855.943848,455
856.061646,450
856.179321,487
856.296997,463
856.414795,471
856.53241,454
856.650085,462
856.767822,467
856.885559,472
857.003174,468
857.120911,469
857.238586,469
857.356201,448
857.473938,460
857.591614,469
857.709351,460
857.826965,442
857.944641,459
858.062317,466
858.179993,456
858.297668,451
858.415283,447
858.532959,479
858.650574,459
858.768188,450
858.885803,451
859.003479,443
859.121094,460
859.23877,477
859.356384,445
859.473999,475
859.591675,444
859.709229,453
859.826843,457
859.944458,475
860.062012,450
860.179626,480
860.297302,454
860.414856,465
860.532471,440
860.650024,448
860.767639,451
860.885193,458
861.002808,445
861.120361,454
861.237976,471
861.35553,455
861.473022,442
861.590698,470
861.708191,471
861.825745,443
861.943298,451
862.060852,463
862.178406,442
862.295959,448
862.413513,451
862.531006,460
862.64856,454
862.766113,454
862.883667,475
863.00116,448
863.118713,458
863.236206,448
863.353699,470
863.471252,465
863.588745,461
863.706177,452
863.82373,453
863.941162,472
864.058716,465
864.176208,475
864.29364,469
864.411194,467
864.528687,437
864.646118,451
864.763611,478
864.881042,461
864.998535,448
865.116028,462
865.233459,445
865.350891,459
865.468384,469
865.585754,445
865.703308,448
865.820679,460
865.938171,456
866.055542,461
866.173035,460
866.290466,460
866.407837,468
866.52533,467
866.6427,457
866.760071,464
866.877563,454
866.994934,463
867.112305,464
867.229736,473
867.347107,456
867.464539,454
867.58197,454
867.699341,471
867.81665,450
867.934082,455
868.051453,462
868.168823,467
868.286194,464
868.403564,452
868.520935,457
868.638306,466
868.755676,466
868.872986,460
868.990295,440
869.107727,466
869.225037,457
869.342346,451
869.459717,451
869.577026,463
869.694336,447
869.811707,467
869.929016,442
870.046326,463
870.163635,441
870.280945,484
870.398254,445
870.515564,461
870.632812,460
870.750183,462
870.867432,469
870.984741,456
871.102051,447
871.219299,465
871.336609,433
871.453918,474
871.571106,464
871.688416,459
871.805664,463
871.922852,450
872.040222,459
872.157471,465
872.274719,450
872.391968,464
872.509155,462
872.626465,444
872.743652,471
872.860962,450
872.978149,459
873.095337,473
873.212646,482
873.329834,438
873.44696,455
873.564209,452
873.681396,433
873.798645,436
873.915894,454
874.03302,467
874.150208,463
874.267456,455
874.384583,449
874.501831,448
874.618958,459
874.736145,448
874.853333,459
874.970459,455
875.087646,453
875.204834,455
875.32196,471
875.439148,471
875.556274,452
875.673401,463
875.790527,446
875.907715,450
876.024841,473
876.141968,458
876.259094,461
876.376282,476
876.493347,448
876.610474,456
876.7276,467
876.844727,466
876.961853,469
877.078918,467
877.195984,454
877.313171,464
877.430237,438
877.547302,458
877.664368,470
877.781433,440
877.898499,450
878.015625,453
878.13269,457
878.249695,463
878.366821,446
878.483887,443
878.600952,428
878.717957,466
878.834961,450
878.952087,444
879.069092,435
879.186157,441
879.303162,461
879.420227,468
879.537231,429
879.654236,441
879.77124,460
879.888306,461
880.005249,463
880.122314,462
880.239319,485
880.356323,461
880.473328,450
880.590271,431
880.707275,466
880.824341,462
880.941284,457
881.058228,483
881.175232,441
881.292236,458
881.40918,449
881.526123,469
881.643066,459
881.760071,479
881.877014,436
881.993958,460
882.11084,472
882.227783,447
882.344727,448
882.46167,464
882.578613,455
882.695618,448
882.812439,455
882.929382,473
883.046326,455
883.163208,461
883.280151,466
883.397034,462
883.513916,448
883.630798,450
883.747742,460
883.864563,452
883.981506,445
884.098389,462
884.21521,454
884.332153,470
884.448975,474
884.565796,466
884.682678,460
884.7995,460
884.916443,472
885.033264,460
885.150085,456
885.266968,459
885.383789,465
885.500671,460
885.617493,455
885.734314,476
885.851196,444
885.967896,473
886.084717,466
886.201599,463
886.318359,476
886.435181,467
886.552002,461
886.668762,480
886.785645,466
886.902344,461
887.019165,464
887.135925,470
887.252747,461
887.369446,450
887.486267,488
887.603027,478
887.719788,454
887.836548,459
887.953247,457
888.070068,455
888.186829,465
888.303528,468
888.420288,464
888.536987,473
888.653687,456
888.770447,474
888.887146,461
889.003967,469
889.120667,469
889.237305,477
889.354065,475
889.470703,456
889.587463,450
889.704163,447
889.820862,454
889.937561,456
890.054199,469
890.170837,469
890.287598,456
890.404236,461
890.520874,453
890.637634,491
890.754211,439
890.87085,481
890.987549,457
891.104187,470
891.220886,464
891.337463,469
891.454102,470
891.57074,480
891.687378,459
891.804077,464
891.920654,442
892.037231,448
892.15387,470
892.270447,452
892.387085,462
892.503723,471
892.6203,462
892.736877,467
892.853516,470
892.970032,456
893.08667,439
893.203186,480
893.319763,465
893.43634,481
893.552917,444
893.669556,474
893.786011,462
893.902588,455
894.019165,454
894.135681,467
894.252197,482
894.368835,466
894.485291,454
894.601868,468
894.718384,457
894.8349,457
894.951355,462
895.067932,486
895.184448,457
895.300964,485
895.417419,456
895.533936,461
895.650452,473
895.766907,459
895.883423,471
895.999878,477
896.116333,481
896.232849,454
896.349304,471
896.465759,469
896.582214,457
896.698669,473
896.815125,453
896.931641,467
897.048035,470
897.164551,460
897.280884,457
897.397339,465
897.513794,469
897.630249,464
897.746582,481
897.863098,470
897.979431,458
898.095886,466
898.212341,476
898.328674,451
898.445129,468
898.561462,478
898.677795,482
898.794312,473
898.910645,462
899.026978,477
899.143433,480
899.259766,473
899.37616,448
899.492493,477
899.608765,487
899.725159,472
899.841553,449
899.957947,487
900.07428,474
900.190552,475
900.306946,466
900.423157,475
900.53949,464
900.655884,478
900.772156,450
900.888489,491
901.004822,465
901.121033,484
901.237366,472
901.353699,477
901.46991,477
901.586304,488
901.702515,476
901.818787,489
901.93512,473
902.051331,478
902.167603,457
902.283875,470
902.400085,483
902.516418,478
902.632629,481
902.74884,482
902.865112,467
902.981384,483
903.097595,469
903.213867,460
903.330017,475
903.446289,481
903.5625,490
903.67865,467
903.794922,467
903.911072,482
904.027344,477
904.143494,468
904.259705,460
904.375916,497
904.492065,468
904.608215,474
904.724426,448
904.840576,475
904.956726,464
905.072876,465
905.189087,468
905.305176,486
905.421387,478
905.537537,493
905.653687,475
905.769775,472
905.885925,479
906.002014,485
906.118164,459
906.234314,466
906.350403,490
906.466492,477
906.582642,470
906.69873,501
906.814758,477
906.930908,451
907.046936,462
907.163086,492
907.279175,472
907.395264,466
907.511353,466
907.62738,477
907.743408,478
907.859497,477
907.975525,484
908.091553,470
908.207703,454
908.32373,478
908.439758,479
908.555786,482
908.671814,460
908.787842,468
908.90387,465
909.019775,476
909.135864,468
909.251892,460
909.367859,482
909.483826,476
909.599854,486
909.715881,466
909.831848,466
909.947815,468
910.063782,456
910.179749,490
910.295776,461
910.411743,484
910.527649,470
910.643616,475
910.759583,475
910.875488,489
910.991455,454
911.107361,476
911.223267,460
911.339294,485
911.4552,456
911.571106,483
911.687073,472
911.802979,471
911.918823,469
912.034729,469
912.150635,489
912.266602,475
912.382446,460
912.498352,491
912.614197,465
912.730103,477
912.846008,465
