792.44574,650
792.56488,710
792.68396,741
792.80304,706
792.92218,651
793.041199,644
793.160339,661
793.279419,651
793.398499,629
793.517578,645
793.636658,628
793.755737,634
793.874817,639
793.993896,641
794.112976,622
794.232056,626
794.351074,614
794.470215,629
794.589233,634
794.708313,615
794.827393,602
794.946411,634
795.065552,598
795.18457,633
795.303589,585
795.422668,593
795.541687,616
795.660767,589
795.779846,595
795.898865,626
796.017883,590
796.136963,597
796.255981,584
796.375061,595
796.49408,601
796.613037,577
796.732117,606
796.851135,588
796.970154,590
797.089233,569
797.208191,586
797.327271,572
797.446228,563
797.565186,582
797.684265,578
797.803223,577
797.922241,585
798.04126,603
798.160278,567
798.279297,567
798.398315,601
798.517273,590
798.636292,580
798.75531,587
798.874268,570
798.993286,598
799.112244,576
799.231323,565
799.350281,582
799.469238,574
799.588257,558
799.707153,570
799.826111,591
799.945129,596
800.064087,582
800.183044,565
800.302063,559
800.421021,575
800.539978,562
800.658936,572
800.777893,583
800.896912,570
801.015747,589
801.134705,567
801.253723,593
801.37262,588
801.491638,561
801.610535,590
801.729492,596
801.84845,594
801.967407,586
802.086243,587
802.205261,596
802.324158,569
802.443115,599
802.562073,588
802.680969,581
802.799927,592
802.918762,598
803.037659,567
803.156677,581
803.275574,581
803.39447,592
803.513428,584
803.632263,573
803.751221,577
803.870117,578
803.989014,602
804.107971,576
804.226746,596
804.345642,595
804.4646,592
804.583496,577
804.702393,564
804.821228,584
804.940125,574
805.059021,588
805.177917,581
805.296814,600
805.415649,591
805.534546,587
805.653442,615
805.772278,586
805.891113,604
806.01001,612
806.128906,590
806.247742,602
806.366577,591
806.485413,592
806.604309,584
806.723145,596
806.84198,573
806.960876,578
807.079712,616
807.198486,611
807.317383,611
807.436218,592
807.554993,580
807.673889,609
807.792725,610
807.91156,585
808.030396,592
808.14917,588
808.268005,605
808.386841,608
808.505676,611
808.624451,600
808.743286,615
808.862122,576
808.980896,612
809.099731,619
809.218506,615
809.337341,583
809.456116,608
809.57489,593
809.693726,586
809.8125,598
809.931274,603
810.050049,628
810.168884,582
810.287659,586
810.406372,598
810.525269,612
810.643982,639
810.762756,616
810.881531,616
811.000305,597
811.11908,603
811.237854,612
811.356567,602
811.475403,600
811.594116,610
811.71283,634
811.831604,624
811.950378,603
812.069153,608
812.187927,649
812.30658,622
812.425415,612
812.544128,608
812.662781,618
812.781616,616
812.900269,612
813.019043,605
813.137756,613
813.256531,626
813.375244,610
813.493896,607
813.612671,644
813.731384,598
813.850037,612
813.96875,612
814.087524,619
814.206238,606
814.324951,629
814.443604,603
814.562256,579
814.68103,600
814.799683,617
814.918335,608
815.037109,599
815.155762,598
815.274475,594
815.393188,601
815.511841,583
815.630554,579
815.749146,589
815.867859,592
815.986572,566
816.105164,560
816.223877,577
816.342529,569
816.461182,591
816.579895,593
816.698486,579
816.817139,607
816.935791,583
817.054504,588
817.173096,577
817.291748,594
817.4104,595
817.529053,566
817.647644,582
817.766235,574
817.884949,552
818.00354,578
818.122192,553
818.240845,558
818.359436,559
818.478088,542
818.59668,534
818.715271,548
818.833923,532
818.952515,540
819.071106,508
819.189758,498
819.30835,509
819.426941,504
819.545532,495
819.664124,491
819.782715,499
819.901306,512
820.019897,488
820.138489,500
820.25708,508
820.375671,499
820.494202,512
820.612732,504
820.731384,482
820.849915,499
820.968506,490
821.087097,502
821.205627,489
821.324158,504
821.442749,484
821.561279,488
821.679871,475
821.798401,458
821.916931,502
822.035461,472
822.154053,469
822.272583,477
822.391174,476
822.509583,489
822.628174,476
822.746704,463
822.865234,466
822.983765,472
823.102295,477
823.220825,496
823.339294,488
823.457825,470
823.576355,471
823.694824,477
823.813354,474
823.931885,478
824.050354,494
824.168884,509
824.287354,498
824.405823,481
824.524353,485
824.642822,498
824.761353,496
824.879822,492
824.998291,485
825.116699,496
825.235291,476
825.353699,470
825.472168,465
825.590637,490
825.709106,470
825.827576,471
825.946045,473
826.064453,469
826.182983,461
826.301392,457
826.4198,470
826.53833,464
826.656738,467
826.775208,472
826.893677,455
827.012024,450
827.130493,477
827.248962,463
827.36731,466
827.485779,474
827.604248,457
827.722595,462
827.841064,464
827.959412,446
828.077942,471
828.196289,474
828.314636,463
828.433105,438
828.551514,476
828.669861,455
828.78833,447
828.906677,462
829.025085,447
829.143433,466
829.261841,432
829.38031,474
829.498657,463
829.617004,464
829.735413,468
829.85376,473
829.972107,459
830.090515,448
830.208862,452
830.327209,450
830.445557,459
830.563904,454
830.682312,455
830.800659,458
830.919006,463
831.037354,452
831.155701,479
831.274048,457
831.392395,459
831.51062,447
831.629028,462
831.747314,451
831.865662,451
831.984009,470
832.102356,466
832.220642,462
832.338928,481
832.457275,453
832.575623,461
832.693909,457
832.812134,442
832.930481,476
833.048828,452
833.167114,466
833.2854,447
833.403687,447
833.521973,469
833.640259,427
833.758545,473
833.876831,453
833.995056,446
834.113281,463
834.231628,454
834.349915,459
834.468201,461
834.586426,458
834.704651,448
834.822998,445
834.941162,464
835.059448,463
835.177673,453
835.295959,458
835.414246,445
835.53241,465
835.650635,459
835.768921,471
835.887146,432
836.005371,450
836.123596,458
836.241821,460
836.360046,464
836.478271,460
836.596497,453
836.714722,475
836.832886,451
836.95105,454
837.069336,474
837.1875,490
837.305725,474
837.423889,465
837.542053,436
837.660339,467
837.778503,475
837.896667,471
838.014832,484
838.132996,464
838.25116,481
838.369385,463
838.487488,456
838.605713,473
838.723877,485
838.84198,475
838.960205,462
839.078308,478
839.196472,470
839.314636,474
839.4328,482
839.550964,472
839.669067,466
839.787231,486
839.905396,460
840.023499,479
840.141602,473
840.259766,471
840.377869,470
840.495972,441
840.614136,466
840.732239,476
840.850342,451
840.968445,477
841.086548,456
841.204651,465
841.322754,464
841.440918,482
841.55896,473
841.677002,461
841.795166,464
841.913208,477
842.031311,449
842.149353,491
842.267456,444
842.385498,451
842.503601,444
842.621643,462
842.739746,444
842.857788,453
842.97583,451
843.093933,469
843.211975,2894
843.330017,403
843.44812,453
843.566101,468
843.684204,448
843.802246,444
843.920227,464
844.038269,453
844.156311,461
844.274292,440
844.392395,447
844.510376,458
844.628357,450
844.74646,455
844.864441,460
844.982422,467
845.100403,456
845.218384,452
845.336426,440
845.454468,460
845.572449,453
845.69043,465
845.808411,443
845.926453,446
846.044373,437
846.162354,457
846.280396,441
846.398315,432
846.516296,442
846.634216,449
846.752197,439
846.870178,455
846.988098,463
847.106079,467
847.22406,454
847.34198,458
847.4599,425
847.577881,465
847.695801,459
847.813782,447
847.931641,442
848.049561,456
848.167603,436
848.285461,476
848.403381,457
848.521362,436
848.639221,451
848.75708,465
848.875,460
848.99292,461
849.110901,451
849.22876,467
849.34668,451
849.464539,450
849.582458,456
849.700317,458
849.818176,462
849.936096,449
850.053955,451
850.171875,445
850.289673,446
850.407593,464
850.525452,445
850.643311,460
850.761169,447
850.878967,454
850.996887,459
851.114746,461
851.232544,461
851.350403,430
851.468262,458
851.58606,446
851.703979,443
851.821777,460
851.939636,434
852.057434,454
852.175232,454
852.293091,446
852.410889,459
852.528687,470
852.646545,472
852.764343,444
852.88208,452
852.999939,455
853.117676,455
853.235535,447
853.353271,454
853.471069,452
853.588928,449
853.706604,460
853.824402,455
853.9422,458
854.059998,446
854.177734,456
854.295532,468
854.413269,464
854.531006,468
854.648804,466
854.766541,443
854.884277,449
855.002014,455
855.119751,442
855.237549,438
855.355225,453
855.473022,467
855.590698,462
855.708435,454
855.826172,455
855.943848,454
856.061646,434
856.179321,462
856.296997,456
856.414795,442
856.53241,437
856.650085,466
856.767822,463
856.885559,479
857.003174,458
857.120911,451
857.238586,469
857.356201,475
857.473938,461
857.591614,444
857.709351,458
857.826965,464
857.944641,439
858.062317,459
858.179993,459
858.297668,453
858.415283,456
858.532959,457
858.650574,451
858.768188,447
858.885803,471
859.003479,434
859.121094,474
859.23877,462
859.356384,446
859.473999,466
859.591675,460
859.709229,464
859.826843,450
859.944458,437
860.062012,441
860.179626,472
860.297302,467
860.414856,456
860.532471,443
860.650024,453
860.767639,454
860.885193,456
861.002808,459
861.120361,464
861.237976,446
861.35553,453
861.473022,460
861.590698,447
861.708191,448
861.825745,465
861.943298,449
862.060852,458
862.178406,452
862.295959,429
862.413513,440
862.531006,473
862.64856,458
862.766113,454
862.883667,445
863.00116,459
863.118713,451
863.236206,436
863.353699,456
863.471252,442
863.588745,457
863.706177,447
863.82373,455
863.941162,454
864.058716,451
864.176208,435
864.29364,440
864.411194,454
864.528687,436
864.646118,438
864.763611,449
864.881042,453
864.998535,445
865.116028,457
865.233459,442
865.350891,440
865.468384,450
865.585754,446
865.703308,453
865.820679,443
865.938171,469
866.055542,455
866.173035,460
866.290466,463
866.407837,442
866.52533,446
866.6427,442
866.760071,459
866.877563,458
866.994934,454
867.112305,455
867.229736,440
867.347107,451
867.464539,457
867.58197,443
867.699341,453
867.81665,459
867.934082,453
868.051453,432
868.168823,462
868.286194,458
868.403564,436
868.520935,444
868.638306,463
868.755676,463
868.872986,447
868.990295,442
869.107727,460
869.225037,458
869.342346,457
869.459717,451
869.577026,457
869.694336,463
869.811707,452
869.929016,460
870.046326,449
870.163635,448
870.280945,465
870.398254,453
870.515564,460
870.632812,449
870.750183,438
870.867432,446
870.984741,443
871.102051,479
871.219299,456
871.336609,473
871.453918,460
871.571106,453
871.688416,454
871.805664,464
871.922852,445
872.040222,468
872.157471,446
872.274719,450
872.391968,454
872.509155,447
872.626465,457
872.743652,490
872.860962,442
872.978149,459
873.095337,481
873.212646,476
873.329834,457
873.44696,450
873.564209,462
873.681396,470
873.798645,465
873.915894,468
874.03302,435
874.150208,459
874.267456,451
874.384583,461
874.501831,462
874.618958,469
874.736145,460
874.853333,455
874.970459,446
875.087646,444
875.204834,438
875.32196,459
875.439148,459
875.556274,461
875.673401,460
875.790527,471
875.907715,464
876.024841,468
876.141968,464
876.259094,456
876.376282,455
876.493347,452
876.610474,458
876.7276,447
876.844727,443
876.961853,452
877.078918,453
877.195984,449
877.313171,467
877.430237,480
877.547302,446
877.664368,444
877.781433,451
877.898499,471
878.015625,449
878.13269,448
878.249695,448
878.366821,458
878.483887,451
878.600952,459
878.717957,439
878.834961,457
878.952087,457
879.069092,463
879.186157,454
879.303162,454
879.420227,470
879.537231,455
879.654236,461
879.77124,467
879.888306,444
880.005249,436
880.122314,447
880.239319,453
880.356323,461
880.473328,451
880.590271,455
880.707275,436
880.824341,448
880.941284,445
881.058228,451
881.175232,461
881.292236,446
881.40918,459
881.526123,439
881.643066,464
881.760071,447
881.877014,450
881.993958,438
882.11084,451
882.227783,453
882.344727,439
882.46167,425
882.578613,437
882.695618,443
882.812439,440
882.929382,448
883.046326,454
883.163208,453
883.280151,450
883.397034,444
883.513916,462
883.630798,452
883.747742,467
883.864563,462
883.981506,450
884.098389,449
884.21521,474
884.332153,467
884.448975,451
884.565796,436
884.682678,476
884.7995,488
884.916443,459
885.033264,444
885.150085,475
885.266968,469
885.383789,463
885.500671,479
885.617493,474
885.734314,487
885.851196,476
885.967896,470
886.084717,475
886.201599,476
886.318359,470
886.435181,471
886.552002,487
886.668762,471
886.785645,465
886.902344,484
887.019165,457
887.135925,474
887.252747,479
887.369446,467
887.486267,453
887.603027,464
887.719788,471
887.836548,475
887.953247,448
888.070068,457
888.186829,453
888.303528,450
888.420288,470
888.536987,435
888.653687,433
888.770447,450
888.887146,459
889.003967,464
889.120667,435
889.237305,453
889.354065,446
889.470703,445
889.587463,447
889.704163,461
889.820862,461
889.937561,449
890.054199,457
890.170837,451
890.287598,452
890.404236,450
890.520874,442
890.637634,462
890.754211,454
890.87085,441
890.987549,444
891.104187,452
891.220886,464
891.337463,444
891.454102,457
891.57074,445
891.687378,452
891.804077,443
891.920654,464
892.037231,480
892.15387,467
892.270447,449
892.387085,444
892.503723,469
892.6203,465
892.736877,441
892.853516,453
892.970032,436
893.08667,448
893.203186,443
893.319763,471
893.43634,469
893.552917,457
893.669556,468
893.786011,452
893.902588,444
894.019165,440
894.135681,450
894.252197,448
894.368835,452
894.485291,466
894.601868,464
894.718384,462
894.8349,455
894.951355,477
895.067932,472
895.184448,449
895.300964,450
895.417419,460
895.533936,458
895.650452,469
895.766907,461
895.883423,466
895.999878,460
896.116333,454
896.232849,453
896.349304,453
896.465759,455
896.582214,471
896.698669,452
896.815125,457
896.931641,459
897.048035,459
897.164551,457
897.280884,452
897.397339,458
897.513794,460
897.630249,460
897.746582,470
897.863098,455
897.979431,442
898.095886,443
898.212341,484
898.328674,465
898.445129,469
898.561462,455
898.677795,463
898.794312,464
898.910645,467
899.026978,461
899.143433,469
899.259766,459
899.37616,464
899.492493,462
899.608765,457
899.725159,457
899.841553,478
899.957947,468
900.07428,468
900.190552,462
900.306946,473
900.423157,448
900.53949,448
900.655884,457
900.772156,464
900.888489,465
901.004822,465
901.121033,464
901.237366,481
901.353699,459
901.46991,448
901.586304,443
901.702515,459
901.818787,457
901.93512,467
902.051331,455
902.167603,474
902.283875,483
902.400085,462
902.516418,492
902.632629,459
902.74884,456
902.865112,464
902.981384,478
903.097595,478
903.213867,470
903.330017,465
903.446289,457
903.5625,470
903.67865,488
903.794922,468
903.911072,481
904.027344,479
904.143494,450
904.259705,456
904.375916,470
904.492065,467
904.608215,466
904.724426,478
904.840576,451
904.956726,474
905.072876,461
905.189087,458
905.305176,470
905.421387,469
905.537537,474
905.653687,444
905.769775,459
905.885925,474
906.002014,466
906.118164,477
906.234314,453
906.350403,456
906.466492,470
906.582642,472
906.69873,462
906.814758,466
906.930908,459
907.046936,445
907.163086,458
907.279175,484
907.395264,469
907.511353,470
907.62738,448
907.743408,448
907.859497,458
907.975525,458
908.091553,468
908.207703,452
908.32373,475
908.439758,451
908.555786,467
908.671814,468
908.787842,439
908.90387,459
909.019775,453
909.135864,465
909.251892,460
909.367859,457
909.483826,470
909.599854,462
909.715881,475
909.831848,479
909.947815,454
910.063782,459
910.179749,431
910.295776,467
910.411743,469
910.527649,480
910.643616,471
910.759583,475
910.875488,447
910.991455,467
911.107361,459
911.223267,476
911.339294,465
911.4552,451
911.571106,455
911.687073,471
911.802979,465
911.918823,456
912.034729,475
912.150635,468
912.266602,477
912.382446,465
912.498352,457
912.614197,477
912.730103,448
912.846008,467
792.44574,668
792.56488,714
792.68396,753
792.80304,680
792.92218,652
793.041199,643
793.160339,662
793.279419,627
793.398499,669
793.517578,631
793.636658,627
793.755737,629
793.874817,695
793.993896,627
794.112976,654
794.232056,626
794.351074,615
794.470215,617
794.589233,618
794.708313,620
794.827393,637
794.946411,623
795.065552,634
795.18457,630
795.303589,613
795.422668,605
795.541687,615
795.660767,603
795.779846,601
795.898865,609
796.017883,601
796.136963,622
796.255981,619
796.375061,580
796.49408,599
796.613037,597
796.732117,587
796.851135,611
796.970154,615
797.089233,581
797.208191,590
797.327271,566
797.446228,592
797.565186,600
797.684265,579
797.803223,566
797.922241,582
798.04126,594
798.160278,600
798.279297,577
798.398315,591
798.517273,586
798.636292,572
798.75531,582
798.874268,587
798.993286,596
799.112244,577
799.231323,567
799.350281,574
799.469238,598
799.588257,579
799.707153,580
799.826111,569
799.945129,578
800.064087,621
800.183044,552
800.302063,572
800.421021,567
800.539978,577
800.658936,578
800.777893,577
800.896912,599
801.015747,588
801.134705,575
801.253723,597
801.37262,565
801.491638,602
801.610535,570
801.729492,594
801.84845,597
801.967407,586
802.086243,574
802.205261,581
802.324158,585
802.443115,611
802.562073,574
802.680969,581
802.799927,598
802.918762,592
803.037659,592
803.156677,589
803.275574,574
803.39447,604
803.513428,586
803.632263,574
803.751221,587
803.870117,592
803.989014,588
804.107971,601
804.226746,592
804.345642,595
804.4646,575
804.583496,584
804.702393,611
804.821228,590
804.940125,614
805.059021,621
805.177917,578
805.296814,614
805.415649,612
805.534546,573
805.653442,602
805.772278,605
805.891113,609
806.01001,602
806.128906,583
806.247742,596
806.366577,604
806.485413,604
806.604309,585
806.723145,602
806.84198,603
806.960876,604
807.079712,589
807.198486,602
807.317383,615
807.436218,581
807.554993,595
807.673889,607
807.792725,601
807.91156,611
808.030396,616
808.14917,624
808.268005,611
808.386841,608
808.505676,590
808.624451,639
808.743286,600
808.862122,613
808.980896,602
809.099731,606
809.218506,585
809.337341,631
809.456116,628
809.57489,607
809.693726,610
809.8125,622
809.931274,599
810.050049,620
810.168884,612
810.287659,588
810.406372,624
810.525269,604
810.643982,619
810.762756,586
810.881531,609
811.000305,626
811.11908,615
811.237854,593
811.356567,590
811.475403,607
811.594116,615
811.71283,626
811.831604,600
811.950378,621
812.069153,616
812.187927,629
812.30658,602
812.425415,629
812.544128,616
812.662781,615
812.781616,635
812.900269,634
813.019043,619
813.137756,612
813.256531,636
813.375244,609
813.493896,628
813.612671,627
813.731384,633
813.850037,601
813.96875,607
814.087524,595
814.206238,602
814.324951,637
814.443604,597
814.562256,609
814.68103,594
814.799683,618
814.918335,608
815.037109,613
815.155762,600
815.274475,600
815.393188,593
815.511841,624
815.630554,586
815.749146,610
815.867859,616
815.986572,587
816.105164,601
816.223877,571
816.342529,585
816.461182,594
816.579895,598
816.698486,610
816.817139,591
816.935791,607
817.054504,612
817.173096,609
817.291748,601
817.4104,601
817.529053,576
817.647644,573
817.766235,574
817.884949,564
818.00354,536
818.122192,559
818.240845,568
818.359436,566
818.478088,540
818.59668,534
818.715271,519
818.833923,542
818.952515,525
819.071106,536
819.189758,496
819.30835,515
819.426941,503
819.545532,512
819.664124,504
819.782715,518
819.901306,505
820.019897,495
820.138489,515
820.25708,501
820.375671,484
820.494202,482
820.612732,501
820.731384,504
820.849915,487
820.968506,488
821.087097,469
821.205627,497
821.324158,495
821.442749,496
821.561279,476
821.679871,503
821.798401,482
821.916931,471
822.035461,490
822.154053,483
822.272583,485
822.391174,482
822.509583,495
822.628174,493
822.746704,478
822.865234,478
822.983765,490
823.102295,489
823.220825,484
823.339294,489
823.457825,492
823.576355,484
823.694824,485
823.813354,471
823.931885,486
824.050354,485
824.168884,492
824.287354,488
824.405823,508
824.524353,484
824.642822,496
824.761353,502
824.879822,477
824.998291,492
825.116699,472
825.235291,495
825.353699,489
825.472168,475
825.590637,485
825.709106,499
825.827576,495
825.946045,488
826.064453,497
826.182983,476
826.301392,460
826.4198,457
826.53833,462
826.656738,476
826.775208,490
826.893677,463
827.012024,456
827.130493,460
827.248962,484
827.36731,473
827.485779,464
827.604248,475
827.722595,462
827.841064,466
827.959412,452
828.077942,475
828.196289,465
828.314636,476
828.433105,460
828.551514,455
828.669861,460
828.78833,454
828.906677,439
829.025085,462
829.143433,478
829.261841,475
829.38031,460
829.498657,470
829.617004,455
829.735413,452
829.85376,460
829.972107,458
830.090515,476
830.208862,453
830.327209,478
830.445557,464
830.563904,461
830.682312,474
830.800659,476
830.919006,459
831.037354,463
831.155701,476
831.274048,458
831.392395,468
831.51062,456
831.629028,469
831.747314,463
831.865662,459
831.984009,484
832.102356,445
832.220642,464
832.338928,459
832.457275,442
832.575623,469
832.693909,450
832.812134,471
832.930481,453
833.048828,465
833.167114,475
833.2854,454
833.403687,472
833.521973,455
833.640259,463
833.758545,457
833.876831,448
833.995056,464
834.113281,462
834.231628,471
834.349915,464
834.468201,464
834.586426,478
834.704651,460
834.822998,478
834.941162,450
835.059448,454
835.177673,472
835.295959,464
835.414246,457
835.53241,450
835.650635,483
835.768921,459
835.887146,468
836.005371,458
836.123596,476
836.241821,470
836.360046,477
836.478271,482
836.596497,464
836.714722,464
836.832886,472
836.95105,471
837.069336,488
837.1875,469
837.305725,478
837.423889,464
837.542053,470
837.660339,475
837.778503,467
837.896667,482
838.014832,476
838.132996,459
838.25116,472
838.369385,471
838.487488,502
838.605713,488
838.723877,486
838.84198,467
838.960205,492
839.078308,468
839.196472,458
839.314636,457
839.4328,484
839.550964,448
839.669067,487
839.787231,501
839.905396,489
840.023499,463
840.141602,479
840.259766,473
840.377869,471
840.495972,455
840.614136,467
840.732239,484
840.850342,479
840.968445,460
841.086548,462
841.204651,486
841.322754,478
841.440918,474
841.55896,468
841.677002,478
841.795166,454
841.913208,450
842.031311,486
842.149353,479
842.267456,468
842.385498,468
842.503601,457
842.621643,438
842.739746,465
842.857788,443
842.97583,476
843.093933,452
843.211975,467
843.330017,454
843.44812,464
843.566101,447
843.684204,461
843.802246,464
843.920227,472
844.038269,463
844.156311,478
844.274292,459
844.392395,451
844.510376,463
844.628357,444
844.74646,466
844.864441,450
844.982422,451
845.100403,461
845.218384,449
845.336426,472
845.454468,459
845.572449,451
845.69043,456
845.808411,449
845.926453,429
846.044373,454
846.162354,453
846.280396,463
846.398315,426
846.516296,467
846.634216,446
846.752197,469
846.870178,451
846.988098,456
847.106079,462
847.22406,449
847.34198,478
847.4599,475
847.577881,449
847.695801,444
847.813782,450
847.931641,458
848.049561,453
848.167603,464
848.285461,440
848.403381,468
848.521362,448
848.639221,449
848.75708,444
848.875,487
848.99292,443
849.110901,466
849.22876,448
849.34668,473
849.464539,449
849.582458,470
849.700317,441
849.818176,456
849.936096,431
850.053955,463
850.171875,448
850.289673,458
850.407593,473
850.525452,470
850.643311,460
850.761169,441
850.878967,448
850.996887,476
851.114746,445
851.232544,470
851.350403,465
851.468262,453
851.58606,433
851.703979,460
851.821777,455
851.939636,465
852.057434,481
852.175232,454
852.293091,457
852.410889,464
852.528687,440
852.646545,465
852.764343,461
852.88208,466
852.999939,454
853.117676,457
853.235535,456
853.353271,461
853.471069,449
853.588928,464
853.706604,435
853.824402,477
853.9422,449
854.059998,472
854.177734,463
854.295532,456
854.413269,450
854.531006,457
854.648804,450
854.766541,466
854.884277,463
855.002014,475
855.119751,446
855.237549,469
855.355225,457
855.473022,462
855.590698,456
855.708435,461
855.826172,453
855.943848,476
856.061646,459
856.179321,461
856.296997,459
856.414795,469
856.53241,463
856.650085,469
856.767822,458
856.885559,449
857.003174,479
857.120911,462
857.238586,479
857.356201,474
857.473938,476
857.591614,455
857.709351,473
857.826965,480
857.944641,443
858.062317,463
858.179993,460
858.297668,457
858.415283,452
858.532959,468
858.650574,462
858.768188,464
858.885803,446
859.003479,467
859.121094,460
859.23877,464
859.356384,455
859.473999,466
859.591675,449
859.709229,457
859.826843,443
859.944458,471
860.062012,442
860.179626,448
860.297302,462
860.414856,445
860.532471,443
860.650024,468
860.767639,468
860.885193,446
861.002808,463
861.120361,468
861.237976,455
861.35553,465
861.473022,462
861.590698,468
861.708191,428
861.825745,458
861.943298,458
862.060852,464
862.178406,446
862.295959,461
862.413513,447
862.531006,468
862.64856,456
862.766113,473
862.883667,429
863.00116,459
863.118713,451
863.236206,474
863.353699,455
863.471252,476
863.588745,463
863.706177,452
863.82373,459
863.941162,467
864.058716,470
864.176208,468
864.29364,450
864.411194,470
864.528687,456
864.646118,440
864.763611,452
864.881042,460
864.998535,464
865.116028,463
865.233459,441
865.350891,462
865.468384,462
865.585754,451
865.703308,455
865.820679,455
865.938171,478
866.055542,466
866.173035,452
866.290466,467
866.407837,436
866.52533,473
866.6427,474
866.760071,458
866.877563,447
866.994934,468
867.112305,470
867.229736,462
867.347107,472
867.464539,470
867.58197,457
867.699341,456
867.81665,438
867.934082,473
868.051453,453
868.168823,454
868.286194,458
868.403564,469
868.520935,452
868.638306,460
868.755676,466
868.872986,459
868.990295,444
869.107727,475
869.225037,448
869.342346,471
869.459717,448
869.577026,463
869.694336,467
869.811707,461
869.929016,472
870.046326,452
870.163635,451
870.280945,457
870.398254,468
870.515564,463
870.632812,465
870.750183,456
870.867432,476
870.984741,456
871.102051,460
871.219299,455
871.336609,469
871.453918,449
871.571106,450
871.688416,469
871.805664,469
871.922852,470
872.040222,459
872.157471,474
872.274719,459
872.391968,466
872.509155,466
872.626465,449
872.743652,465
872.860962,458
872.978149,452
873.095337,445
873.212646,455
873.329834,472
873.44696,463
873.564209,442
873.681396,469
873.798645,473
873.915894,451
874.03302,439
874.150208,443
874.267456,489
874.384583,471
874.501831,463
874.618958,457
874.736145,468
874.853333,458
874.970459,467
875.087646,473
875.204834,464
875.32196,448
875.439148,463
875.556274,479
875.673401,462
875.790527,461
875.907715,463
876.024841,454
876.141968,453
876.259094,465
876.376282,468
876.493347,450
876.610474,463
876.7276,476
876.844727,458
876.961853,451
877.078918,466
877.195984,456
877.313171,463
877.430237,442
877.547302,436
877.664368,458
877.781433,459
877.898499,460
878.015625,445
878.13269,445
878.249695,449
878.366821,463
878.483887,459
878.600952,474
878.717957,449
878.834961,456
878.952087,457
879.069092,451
879.186157,456
879.303162,448
879.420227,458
879.537231,443
879.654236,462
879.77124,441
879.888306,440
880.005249,441
880.122314,442
880.239319,447
880.356323,454
880.473328,456
880.590271,448
880.707275,446
880.824341,453
880.941284,450
881.058228,453
881.175232,445
881.292236,454
881.40918,450
881.526123,444
881.643066,458
881.760071,465
881.877014,473
881.993958,465
882.11084,479
882.227783,446
882.344727,463
882.46167,458
882.578613,454
882.695618,463
882.812439,451
882.929382,451
883.046326,442
883.163208,474
883.280151,461
883.397034,457
883.513916,471
883.630798,473
883.747742,455
883.864563,470
883.981506,474
884.098389,458
884.21521,474
884.332153,481
884.448975,455
884.565796,458
884.682678,451
884.7995,470
884.916443,475
885.033264,469
885.150085,471
885.266968,496
885.383789,467
885.500671,477
885.617493,485
885.734314,475
885.851196,486
885.967896,476
886.084717,454
886.201599,494
886.318359,475
886.435181,475
886.552002,465
886.668762,477
886.785645,481
886.902344,485
887.019165,476
887.135925,456
887.252747,495
887.369446,460
887.486267,440
887.603027,465
887.719788,470
887.836548,471
887.953247,470
888.070068,455
888.186829,460
888.303528,458
888.420288,476
888.536987,469
888.653687,466
888.770447,469
888.887146,462
889.003967,479
889.120667,460
889.237305,459
889.354065,453
889.470703,471
889.587463,458
889.704163,465
889.820862,464
889.937561,471
890.054199,459
890.170837,474
890.287598,465
890.404236,463
890.520874,456
890.637634,465
890.754211,454
890.87085,449
890.987549,477
891.104187,468
891.220886,477
891.337463,459
891.454102,450
891.57074,460
891.687378,450
891.804077,469
891.920654,461
892.037231,450
892.15387,445
892.270447,460
892.387085,480
892.503723,469
892.6203,457
892.736877,469
892.853516,476
892.970032,485
893.08667,453
893.203186,454
893.319763,455
893.43634,465
893.552917,447
893.669556,452
893.786011,458
893.902588,448
894.019165,469
894.135681,453
894.252197,474
894.368835,451
894.485291,469
894.601868,438
894.718384,471
894.8349,470
894.951355,472
895.067932,471
895.184448,470
895.300964,467
895.417419,467
895.533936,444
895.650452,458
895.766907,450
895.883423,457
895.999878,451
896.116333,472
896.232849,466
896.349304,446
896.465759,474
896.582214,452
896.698669,476
896.815125,455
896.931641,459
897.048035,461
897.164551,447
897.280884,475
897.397339,475
897.513794,452
897.630249,459
897.746582,447
897.863098,468
897.979431,444
898.095886,464
898.212341,457
898.328674,459
898.445129,473
898.561462,457
898.677795,468
898.794312,475
898.910645,466
899.026978,467
899.143433,451
899.259766,464
899.37616,467
899.492493,466
899.608765,449
899.725159,479
899.841553,453
899.957947,472
900.07428,487
900.190552,472
900.306946,458
900.423157,470
900.53949,464
900.655884,475
900.772156,456
900.888489,459
901.004822,463
901.121033,458
901.237366,456
901.353699,464
901.46991,462
901.586304,471
901.702515,456
901.818787,465
901.93512,466
902.051331,478
902.167603,453
902.283875,484
902.400085,470
902.516418,509
902.632629,447
902.74884,480
902.865112,481
902.981384,472
903.097595,488
903.213867,469
903.330017,480
903.446289,471
903.5625,454
903.67865,460
903.794922,473
903.911072,489
904.027344,473
904.143494,465
904.259705,479
904.375916,463
904.492065,496
904.608215,464
904.724426,461
904.840576,468
904.956726,467
905.072876,468
905.189087,456
905.305176,475
905.421387,459
905.537537,461
905.653687,451
905.769775,470
905.885925,474
906.002014,468
906.118164,469
906.234314,467
906.350403,447
906.466492,456
906.582642,469
906.69873,479
906.814758,479
906.930908,448
907.046936,457
907.163086,473
907.279175,467
907.395264,487
907.511353,464
907.62738,474
907.743408,455
907.859497,476
907.975525,460
908.091553,479
908.207703,489
908.32373,466
908.439758,449
908.555786,476
908.671814,464
908.787842,472
908.90387,444
909.019775,446
909.135864,456
909.251892,484
909.367859,448
909.483826,479
909.599854,442
909.715881,458
909.831848,470
909.947815,482
910.063782,479
910.179749,470
910.295776,455
910.411743,478
910.527649,461
910.643616,491
910.759583,468
910.875488,482
910.991455,448
911.107361,469
911.223267,452
911.339294,473
911.4552,451
911.571106,468
911.687073,467
911.802979,457
911.918823,459
912.034729,463
912.150635,478
912.266602,457
912.382446,453
912.498352,460
912.614197,467
912.730103,475
912.846008,463
792.44574,672
792.56488,697
792.68396,731
792.80304,722
792.92218,660
793.041199,642
793.160339,626
793.279419,665
793.398499,645
793.517578,641
793.636658,638
793.755737,658
793.874817,648
793.993896,661
794.112976,628
794.232056,620
794.351074,621
794.470215,629
794.589233,600
794.708313,615
794.827393,621
794.946411,605
795.065552,607
795.18457,612
795.303589,618
795.422668,598
795.541687,603
795.660767,612
795.779846,594
795.898865,613
796.017883,600
796.136963,601
796.255981,586
796.375061,609
796.49408,578
796.613037,594
796.732117,587
796.851135,598
796.970154,593
797.089233,581
797.208191,587
797.327271,590
797.446228,599
797.565186,600
797.684265,609
797.803223,580
797.922241,588
798.04126,597
798.160278,585
798.279297,580
798.398315,579
798.517273,587
798.636292,586
798.75531,562
798.874268,587
798.993286,589
799.112244,598
799.231323,579
799.350281,573
799.469238,580
799.588257,566
799.707153,593
799.826111,573
799.945129,578
800.064087,583
800.183044,574
800.302063,583
800.421021,588
800.539978,583
800.658936,576
800.777893,591
800.896912,561
801.015747,571
801.134705,585
801.253723,590
801.37262,598
801.491638,586
801.610535,573
801.729492,566
801.84845,592
801.967407,574
802.086243,595
802.205261,585
802.324158,585
802.443115,598
802.562073,597
802.680969,574
802.799927,605
802.918762,609
803.037659,594
803.156677,554
803.275574,599
803.39447,599
803.513428,590
803.632263,586
803.751221,590
803.870117,607
803.989014,590
804.107971,578
804.226746,588
804.345642,604
804.4646,607
804.583496,575
804.702393,605
804.821228,590
804.940125,611
805.059021,587
805.177917,593
805.296814,586
805.415649,612
805.534546,585
805.653442,602
805.772278,600
805.891113,578
806.01001,589
806.128906,609
806.247742,586
806.366577,609
806.485413,595
806.604309,616
806.723145,598
806.84198,601
806.960876,592
807.079712,573
807.198486,621
807.317383,607
807.436218,589
807.554993,604
807.673889,595
807.792725,617
807.91156,585
808.030396,582
808.14917,594
808.268005,589
808.386841,598
808.505676,614
808.624451,585
808.743286,607
808.862122,608
808.980896,614
809.099731,590
809.218506,599
809.337341,620
809.456116,610
809.57489,593
809.693726,630
809.8125,652
809.931274,608
810.050049,616
810.168884,606
810.287659,628
810.406372,617
810.525269,595
810.643982,599
810.762756,597
810.881531,625
811.000305,591
811.11908,608
811.237854,588
811.356567,602
811.475403,624
811.594116,617
811.71283,632
811.831604,601
811.950378,624
812.069153,603
812.187927,627
812.30658,606
812.425415,621
812.544128,633
812.662781,601
812.781616,618
812.900269,625
813.019043,641
813.137756,641
813.256531,614
813.375244,610
813.493896,643
813.612671,623
813.731384,611
813.850037,613
813.96875,607
814.087524,604
814.206238,625
814.324951,595
814.443604,606
814.562256,599
814.68103,604
814.799683,599
814.918335,603
815.037109,622
815.155762,609
815.274475,593
815.393188,612
815.511841,597
815.630554,599
815.749146,581
815.867859,600
815.986572,613
816.105164,613
816.223877,605
816.342529,587
816.461182,592
816.579895,599
816.698486,587
816.817139,590
816.935791,609
817.054504,617
817.173096,611
817.291748,641
817.4104,593
817.529053,600
817.647644,598
817.766235,572
817.884949,551
818.00354,556
818.122192,577
818.240845,574
818.359436,568
818.478088,544
818.59668,533
818.715271,527
818.833923,514
818.952515,533
819.071106,518
819.189758,513
819.30835,525
819.426941,535
819.545532,489
819.664124,529
819.782715,509
819.901306,492
820.019897,498
820.138489,500
820.25708,484
820.375671,496
820.494202,500
820.612732,490
820.731384,495
820.849915,486
820.968506,494
821.087097,487
821.205627,472
821.324158,487
821.442749,490
821.561279,494
821.679871,517
821.798401,477
821.916931,488
822.035461,478
822.154053,497
822.272583,484
822.391174,488
822.509583,489
822.628174,462
822.746704,478
822.865234,469
822.983765,496
823.102295,481
823.220825,487
823.339294,481
823.457825,465
823.576355,474
823.694824,480
823.813354,474
823.931885,486
824.050354,492
824.168884,483
824.287354,489
824.405823,469
824.524353,497
824.642822,474
824.761353,485
824.879822,488
824.998291,500
825.116699,491
825.235291,495
825.353699,484
825.472168,492
825.590637,481
825.709106,479
825.827576,486
825.946045,470
826.064453,476
826.182983,471
826.301392,453
826.4198,488
826.53833,453
826.656738,475
826.775208,462
826.893677,471
827.012024,461
827.130493,488
827.248962,452
827.36731,476
827.485779,459
827.604248,483
827.722595,470
827.841064,468
827.959412,453
828.077942,457
828.196289,458
828.314636,468
828.433105,457
828.551514,457
828.669861,466
828.78833,475
828.906677,463
829.025085,486
829.143433,462
829.261841,451
829.38031,461
829.498657,463
829.617004,471
829.735413,475
829.85376,457
829.972107,469
830.090515,443
830.208862,484
830.327209,442
830.445557,468
830.563904,463
830.682312,463
830.800659,463
830.919006,469
831.037354,461
831.155701,462
831.274048,462
831.392395,460
831.51062,474
831.629028,454
831.747314,463
831.865662,458
831.984009,439
832.102356,478
832.220642,436
832.338928,466
832.457275,458
832.575623,480
832.693909,469
832.812134,445
832.930481,462
833.048828,470
833.167114,462
833.2854,445
833.403687,467
833.521973,467
833.640259,458
833.758545,468
833.876831,451
833.995056,465
834.113281,455
834.231628,466
834.349915,465
834.468201,466
834.586426,458
834.704651,463
834.822998,490
834.941162,464
835.059448,473
835.177673,460
835.295959,455
835.414246,476
835.53241,457
835.650635,438
835.768921,475
835.887146,472
836.005371,469
836.123596,462
836.241821,462
836.360046,461
836.478271,462
836.596497,479
836.714722,466
836.832886,483
836.95105,464
837.069336,486
837.1875,483
837.305725,490
837.423889,479
837.542053,480
837.660339,490
837.778503,455
837.896667,489
838.014832,475
838.132996,467
838.25116,460
838.369385,489
838.487488,480
838.605713,479
838.723877,474
838.84198,473
838.960205,487
839.078308,466
839.196472,469
839.314636,469
839.4328,489
839.550964,472
839.669067,473
839.787231,448
839.905396,481
840.023499,478
840.141602,461
840.259766,466
840.377869,460
840.495972,458
840.614136,476
840.732239,485
840.850342,483
840.968445,467
841.086548,487
841.204651,471
841.322754,460
841.440918,471
841.55896,472
841.677002,475
841.795166,467
841.913208,490
842.031311,454
842.149353,479
842.267456,476
842.385498,471
842.503601,475
842.621643,475
842.739746,454
842.857788,471
842.97583,467
843.093933,472
843.211975,474
843.330017,473
843.44812,456
843.566101,467
843.684204,474
843.802246,467
843.920227,466
844.038269,464
844.156311,469
844.274292,449
844.392395,451
844.510376,473
844.628357,451
844.74646,455
844.864441,464
844.982422,453
845.100403,467
845.218384,460
845.336426,447
845.454468,478
845.572449,465
845.69043,454
845.808411,459
845.926453,459
846.044373,468
846.162354,454
846.280396,449
846.398315,456
846.516296,465
846.634216,445
846.752197,445
846.870178,482
846.988098,445
847.106079,471
847.22406,438
847.34198,471
847.4599,474
847.577881,461
847.695801,458
847.813782,462
847.931641,454
848.049561,472
848.167603,446
848.285461,460
848.403381,453
848.521362,460
848.639221,454
848.75708,475
848.875,456
848.99292,458
849.110901,448
849.22876,451
849.34668,452
849.464539,467
849.582458,455
849.700317,476
849.818176,442
849.936096,453
850.053955,468
850.171875,469
850.289673,446
850.407593,457
850.525452,452
850.643311,450
850.761169,468
850.878967,447
850.996887,453
851.114746,434
851.232544,459
851.350403,461
851.468262,471
851.58606,449
851.703979,442
851.821777,477
851.939636,453
852.057434,457
852.175232,439
852.293091,455
852.410889,463
852.528687,448
852.646545,435
852.764343,484
852.88208,460
852.999939,477
853.117676,461
853.235535,466
853.353271,444
853.471069,444
853.588928,457
853.706604,473
853.824402,460
853.9422,456
854.059998,448
854.177734,448
854.295532,456
854.413269,477
854.531006,464
854.648804,475
854.766541,470
854.884277,465
855.002014,448
855.119751,455
855.237549,462
855.355225,452
855.473022,456
855.590698,457
855.708435,453
855.826172,452
855.943848,471
856.061646,468
856.179321,457
856.296997,471
856.414795,453
856.53241,479
856.650085,457
856.767822,471
856.885559,464
857.003174,472
857.120911,472
857.238586,452
857.356201,460
857.473938,495
857.591614,454
857.709351,453
857.826965,451
857.944641,452
858.062317,457
858.179993,467
858.297668,463
858.415283,470
858.532959,450
858.650574,458
858.768188,463
858.885803,468
859.003479,467
859.121094,479
859.23877,444
859.356384,447
859.473999,469
859.591675,454
859.709229,443
859.826843,477
859.944458,443
860.062012,468
860.179626,450
860.297302,450
860.414856,459
860.532471,467
860.650024,457
860.767639,473
860.885193,453
861.002808,468
861.120361,448
861.237976,465
861.35553,457
861.473022,452
861.590698,457
861.708191,456
861.825745,456
861.943298,472
862.060852,440
862.178406,453
862.295959,446
862.413513,470
862.531006,459
862.64856,455
862.766113,469
862.883667,456
863.00116,424
863.118713,448
863.236206,468
863.353699,466
863.471252,454
863.588745,449
863.706177,444
863.82373,453
863.941162,442
864.058716,462
864.176208,463
864.29364,450
864.411194,471
864.528687,450
864.646118,482
864.763611,463
864.881042,447
864.998535,471
865.116028,452
865.233459,443
865.350891,459
865.468384,453
865.585754,449
865.703308,458
865.820679,461
865.938171,471
866.055542,450
866.173035,453
866.290466,464
866.407837,463
866.52533,432
866.6427,459
866.760071,469
866.877563,452
866.994934,451
867.112305,465
867.229736,473
867.347107,457
867.464539,458
867.58197,466
867.699341,461
867.81665,474
867.934082,464
868.051453,460
868.168823,450
868.286194,453
868.403564,462
868.520935,454
868.638306,455
868.755676,463
868.872986,464
868.990295,471
869.107727,450
869.225037,458
869.342346,457
869.459717,477
869.577026,468
869.694336,445
869.811707,460
869.929016,460
870.046326,448
870.163635,456
870.280945,451
870.398254,477
870.515564,450
870.632812,460
870.750183,469
870.867432,467
870.984741,476
871.102051,466
871.219299,472
871.336609,478
871.453918,441
871.571106,493
871.688416,459
871.805664,458
871.922852,475
872.040222,470
872.157471,463
872.274719,465
872.391968,462
872.509155,459
872.626465,480
872.743652,465
872.860962,459
872.978149,471
873.095337,460
873.212646,472
873.329834,460
873.44696,466
873.564209,468
873.681396,471
873.798645,478
873.915894,452
874.03302,453
874.150208,467
874.267456,445
874.384583,479
874.501831,456
874.618958,458
874.736145,468
874.853333,458
874.970459,475
875.087646,462
875.204834,467
875.32196,469
875.439148,463
875.556274,461
875.673401,483
875.790527,475
875.907715,468
876.024841,466
876.141968,443
876.259094,478
876.376282,459
876.493347,454
876.610474,445
876.7276,441
876.844727,454
876.961853,473
877.078918,453
877.195984,466
877.313171,454
877.430237,461
877.547302,468
877.664368,468
877.781433,439
877.898499,448
878.015625,469
878.13269,463
878.249695,465
878.366821,445
878.483887,461
878.600952,471
878.717957,456
878.834961,463
878.952087,453
879.069092,464
879.186157,454
879.303162,464
879.420227,455
879.537231,429
879.654236,448
879.77124,456
879.888306,463
880.005249,453
880.122314,455
880.239319,448
880.356323,447
880.473328,462
880.590271,453
880.707275,444
880.824341,465
880.941284,469
881.058228,464
881.175232,467
881.292236,460
881.40918,457
881.526123,450
881.643066,463
881.760071,458
881.877014,456
881.993958,460
882.11084,453
882.227783,461
882.344727,463
882.46167,463
882.578613,451
882.695618,456
882.812439,468
882.929382,446
883.046326,494
883.163208,457
883.280151,445
883.397034,442
883.513916,452
883.630798,460
883.747742,453
883.864563,449
883.981506,485
884.098389,454
884.21521,456
884.332153,464
884.448975,460
884.565796,454
884.682678,486
884.7995,463
884.916443,459
885.033264,478
885.150085,467
885.266968,489
885.383789,469
885.500671,483
885.617493,485
885.734314,467
885.851196,484
885.967896,483
886.084717,474
886.201599,465
886.318359,455
886.435181,449
886.552002,481
886.668762,475
886.785645,473
886.902344,469
887.019165,453
887.135925,461
887.252747,478
887.369446,476
887.486267,467
887.603027,497
887.719788,460
887.836548,446
887.953247,477
888.070068,467
888.186829,456
888.303528,461
888.420288,451
888.536987,448
888.653687,461
888.770447,462
888.887146,463
889.003967,467
889.120667,453
889.237305,446
889.354065,455
889.470703,450
889.587463,454
889.704163,444
889.820862,450
889.937561,459
890.054199,433
890.170837,471
890.287598,473
890.404236,448
890.520874,473
890.637634,472
890.754211,470
890.87085,447
890.987549,455
891.104187,466
891.220886,469
891.337463,448
891.454102,431
891.57074,447
891.687378,470
891.804077,439
891.920654,438
892.037231,467
892.15387,457
892.270447,464
892.387085,443
892.503723,466
892.6203,450
892.736877,477
892.853516,464
892.970032,459
893.08667,458
893.203186,458
893.319763,458
893.43634,449
893.552917,461
893.669556,479
893.786011,458
893.902588,449
894.019165,467
894.135681,460
894.252197,457
894.368835,474
894.485291,467
894.601868,455
894.718384,474
894.8349,471
894.951355,468
895.067932,452
895.184448,449
895.300964,462
895.417419,464
895.533936,474
895.650452,446
895.766907,447
895.883423,451
895.999878,448
896.116333,466
896.232849,474
896.349304,455
896.465759,482
896.582214,450
896.698669,468
896.815125,463
896.931641,468
897.048035,478
897.164551,461
897.280884,462
897.397339,450
897.513794,458
897.630249,448
897.746582,485
897.863098,473
897.979431,448
898.095886,460
898.212341,472
898.328674,461
898.445129,488
898.561462,462
898.677795,485
898.794312,454
898.910645,461
899.026978,478
899.143433,461
899.259766,468
899.37616,457
899.492493,463
899.608765,460
899.725159,456
899.841553,475
899.957947,447
900.07428,469
900.190552,471
900.306946,460
900.423157,449
900.53949,469
900.655884,484
900.772156,468
900.888489,466
901.004822,484
901.121033,462
901.237366,466
901.353699,463
901.46991,484
901.586304,479
901.702515,490
901.818787,442
901.93512,482
902.051331,464
902.167603,467
902.283875,480
902.400085,475
902.516418,489
902.632629,478
902.74884,454
902.865112,477
902.981384,457
903.097595,481
903.213867,467
903.330017,483
903.446289,483
903.5625,478
903.67865,458
903.794922,475
903.911072,484
904.027344,489
904.143494,470
904.259705,471
904.375916,481
904.492065,487
904.608215,474
904.724426,471
904.840576,474
904.956726,461
905.072876,465
905.189087,476
905.305176,478
905.421387,460
905.537537,470
905.653687,457
905.769775,457
905.885925,470
906.002014,484
906.118164,461
906.234314,467
906.350403,488
906.466492,458
906.582642,465
906.69873,467
906.814758,496
906.930908,466
907.046936,463
907.163086,445
907.279175,468
907.395264,466
907.511353,455
907.62738,441
907.743408,461
907.859497,458
907.975525,487
908.091553,465
908.207703,465
908.32373,482
908.439758,459
908.555786,470
908.671814,468
908.787842,463
908.90387,469
909.019775,455
909.135864,478
909.251892,470
909.367859,466
909.483826,479
909.599854,457
909.715881,472
909.831848,470
909.947815,465
910.063782,474
910.179749,478
910.295776,471
910.411743,469
910.527649,487
910.643616,473
910.759583,465
910.875488,487
910.991455,465
911.107361,477
911.223267,458
911.339294,471
911.4552,471
911.571106,479
911.687073,469
911.802979,448
911.918823,456
912.034729,463
912.150635,474
912.266602,500
912.382446,469
912.498352,461
912.614197,445
912.730103,458
912.846008,473
