792.44574,1066
792.56488,1071
792.68396,1089
792.80304,1037
792.92218,935
793.041199,950
793.160339,949
793.279419,941
793.398499,886
793.517578,871
793.636658,857
793.755737,873
793.874817,910
793.993896,824
794.112976,827
794.232056,822
794.351074,832
794.470215,798
794.589233,797
794.708313,793
794.827393,755
794.946411,786
795.065552,787
795.18457,790
795.303589,707
795.422668,739
795.541687,726
795.660767,722
795.779846,708
795.898865,706
796.017883,717
796.136963,721
796.255981,685
796.375061,671
796.49408,703
796.613037,681
796.732117,681
796.851135,661
796.970154,699
797.089233,681
797.208191,668
797.327271,672
797.446228,640
797.565186,673
797.684265,658
797.803223,647
797.922241,665
798.04126,633
798.160278,666
798.279297,628
798.398315,611
798.517273,628
798.636292,634
798.75531,650
798.874268,633
798.993286,623
799.112244,617
799.231323,638
799.350281,646
799.469238,600
799.588257,614
799.707153,635
799.826111,618
799.945129,628
800.064087,628
800.183044,618
800.302063,601
800.421021,623
800.539978,616
800.658936,615
800.777893,602
800.896912,597
801.015747,594
801.134705,618
801.253723,601
801.37262,606
801.491638,589
801.610535,598
801.729492,585
801.84845,611
801.967407,586
802.086243,574
802.205261,600
802.324158,590
802.443115,563
802.562073,589
802.680969,579
802.799927,608
802.918762,580
803.037659,571
803.156677,583
803.275574,584
803.39447,578
803.513428,568
803.632263,573
803.751221,577
803.870117,561
803.989014,584
804.107971,571
804.226746,558
804.345642,572
804.4646,579
804.583496,564
804.702393,560
804.821228,564
804.940125,578
805.059021,568
805.177917,578
805.296814,548
805.415649,571
805.534546,580
805.653442,572
805.772278,549
805.891113,565
806.01001,541
806.128906,584
806.247742,553
806.366577,541
806.485413,583
806.604309,553
806.723145,565
806.84198,564
806.960876,552
807.079712,563
807.198486,524
807.317383,562
807.436218,556
807.554993,562
807.673889,557
807.792725,559
807.91156,539
808.030396,538
808.14917,536
808.268005,552
808.386841,546
808.505676,562
808.624451,534
808.743286,531
808.862122,558
808.980896,530
809.099731,538
809.218506,545
809.337341,543
809.456116,551
809.57489,548
809.693726,555
809.8125,545
809.931274,549
810.050049,545
810.168884,554
810.287659,549
810.406372,567
810.525269,538
810.643982,561
810.762756,535
810.881531,533
811.000305,544
811.11908,533
811.237854,533
811.356567,551
811.475403,550
811.594116,554
811.71283,553
811.831604,542
811.950378,551
812.069153,547
812.187927,550
812.30658,566
812.425415,573
812.544128,541
812.662781,573
812.781616,542
812.900269,556
813.019043,540
813.137756,552
813.256531,549
813.375244,544
813.493896,534
813.612671,556
813.731384,541
813.850037,539
813.96875,535
814.087524,522
814.206238,532
814.324951,534
814.443604,550
814.562256,540
814.68103,539
814.799683,550
814.918335,535
815.037109,532
815.155762,548
815.274475,527
815.393188,531
815.511841,521
815.630554,535
815.749146,550
815.867859,530
815.986572,531
816.105164,556
816.223877,527
816.342529,540
816.461182,559
816.579895,566
816.698486,547
816.817139,539
816.935791,532
817.054504,571
817.173096,543
817.291748,546
817.4104,517
817.529053,556
817.647644,528
817.766235,544
817.884949,518
818.00354,538
818.122192,524
818.240845,527
818.359436,526
818.478088,527
818.59668,526
818.715271,506
818.833923,527
818.952515,511
819.071106,510
819.189758,530
819.30835,523
819.426941,512
819.545532,509
819.664124,513
819.782715,545
819.901306,489
820.019897,499
820.138489,522
820.25708,513
820.375671,508
820.494202,522
820.612732,505
820.731384,524
820.849915,514
820.968506,513
821.087097,507
821.205627,512
821.324158,519
821.442749,510
821.561279,518
821.679871,503
821.798401,521
821.916931,507
822.035461,492
822.154053,498
822.272583,523
822.391174,493
822.509583,503
822.628174,497
822.746704,514
822.865234,516
822.983765,494
823.102295,490
823.220825,475
823.339294,480
823.457825,497
823.576355,492
823.694824,489
823.813354,499
823.931885,501
824.050354,509
824.168884,488
824.287354,520
824.405823,502
824.524353,496
824.642822,499
824.761353,506
824.879822,502
824.998291,499
825.116699,522
825.235291,493
825.353699,511
825.472168,512
825.590637,504
825.709106,512
825.827576,497
825.946045,506
826.064453,517
826.182983,498
826.301392,508
826.4198,495
826.53833,498
826.656738,473
826.775208,508
826.893677,491
827.012024,496
827.130493,499
827.248962,494
827.36731,494
827.485779,486
827.604248,496
827.722595,496
827.841064,507
827.959412,505
828.077942,489
828.196289,509
828.314636,498
828.433105,499
828.551514,480
828.669861,496
828.78833,498
828.906677,485
829.025085,485
829.143433,497
829.261841,468
829.38031,511
829.498657,482
829.617004,493
829.735413,493
829.85376,474
829.972107,507
830.090515,494
830.208862,496
830.327209,486
830.445557,493
830.563904,501
830.682312,488
830.800659,480
830.919006,489
831.037354,502
831.155701,507
831.274048,505
831.392395,503
831.51062,528
831.629028,505
831.747314,503
831.865662,496
831.984009,480
832.102356,506
832.220642,520
832.338928,482
832.457275,484
832.575623,513
832.693909,497
832.812134,507
832.930481,496
833.048828,517
833.167114,486
833.2854,470
833.403687,484
833.521973,478
833.640259,498
833.758545,465
833.876831,501
833.995056,503
834.113281,494
834.231628,512
834.349915,500
834.468201,504
834.586426,524
834.704651,492
834.822998,509
834.941162,508
835.059448,486
835.177673,507
835.295959,534
835.414246,488
835.53241,495
835.650635,487
835.768921,510
835.887146,493
836.005371,491
836.123596,499
836.241821,487
836.360046,508
836.478271,493
836.596497,492
836.714722,516
836.832886,484
836.95105,511
837.069336,490
837.1875,492
837.305725,484
837.423889,498
837.542053,482
837.660339,486
837.778503,475
837.896667,516
838.014832,497
838.132996,500
838.25116,514
838.369385,470
838.487488,508
838.605713,504
838.723877,481
838.84198,504
838.960205,510
839.078308,501
839.196472,491
839.314636,518
839.4328,487
839.550964,496
839.669067,497
839.787231,492
839.905396,515
840.023499,514
840.141602,500
840.259766,531
840.377869,521
840.495972,526
840.614136,537
840.732239,506
840.850342,522
840.968445,529
841.086548,533
841.204651,529
841.322754,536
841.440918,536
841.55896,537
841.677002,548
841.795166,547
841.913208,537
842.031311,561
842.149353,562
842.267456,551
842.385498,517
842.503601,534
842.621643,523
842.739746,560
842.857788,546
842.97583,535
843.093933,508
843.211975,529
843.330017,523
843.44812,546
843.566101,523
843.684204,528
843.802246,527
843.920227,540
844.038269,539
844.156311,530
844.274292,539
844.392395,522
844.510376,540
844.628357,514
844.74646,525
844.864441,524
844.982422,537
845.100403,510
845.218384,511
845.336426,518
845.454468,525
845.572449,513
845.69043,504
845.808411,520
845.926453,505
846.044373,546
846.162354,520
846.280396,533
846.398315,525
846.516296,525
846.634216,516
846.752197,525
846.870178,525
846.988098,549
847.106079,530
847.22406,524
847.34198,528
847.4599,522
847.577881,508
847.695801,552
847.813782,508
847.931641,522
848.049561,522
848.167603,508
848.285461,524
848.403381,527
848.521362,517
848.639221,502
848.75708,509
848.875,497
848.99292,512
849.110901,533
849.22876,525
849.34668,540
849.464539,535
849.582458,516
849.700317,546
849.818176,507
849.936096,537
850.053955,520
850.171875,537
850.289673,514
850.407593,547
850.525452,533
850.643311,510
850.761169,514
850.878967,531
850.996887,510
851.114746,522
851.232544,520
851.350403,525
851.468262,532
851.58606,506
851.703979,524
851.821777,540
851.939636,508
852.057434,499
852.175232,516
852.293091,521
852.410889,531
852.528687,533
852.646545,543
852.764343,550
852.88208,547
852.999939,549
853.117676,508
853.235535,541
853.353271,521
853.471069,521
853.588928,521
853.706604,515
853.824402,535
853.9422,496
854.059998,510
854.177734,513
854.295532,506
854.413269,534
854.531006,513
854.648804,516
854.766541,539
854.884277,540
855.002014,547
855.119751,523
855.237549,547
855.355225,537
855.473022,547
855.590698,504
855.708435,526
855.826172,532
855.943848,547
856.061646,525
856.179321,530
856.296997,540
856.414795,535
856.53241,532
856.650085,531
856.767822,553
856.885559,528
857.003174,544
857.120911,545
857.238586,544
857.356201,560
857.473938,552
857.591614,540
857.709351,540
857.826965,535
857.944641,549
858.062317,508
858.179993,535
858.297668,540
858.415283,526
858.532959,542
858.650574,543
858.768188,556
858.885803,551
859.003479,532
859.121094,535
859.23877,523
859.356384,550
859.473999,514
859.591675,548
859.709229,519
859.826843,521
859.944458,536
860.062012,495
860.179626,500
860.297302,526
860.414856,505
860.532471,534
860.650024,513
860.767639,517
860.885193,506
861.002808,524
861.120361,526
861.237976,512
861.35553,523
861.473022,535
861.590698,536
861.708191,536
861.825745,536
861.943298,518
862.060852,509
862.178406,529
862.295959,527
862.413513,518
862.531006,500
862.64856,534
862.766113,490
862.883667,480
863.00116,517
863.118713,493
863.236206,523
863.353699,498
863.471252,508
863.588745,500
863.706177,499
863.82373,505
863.941162,527
864.058716,499
864.176208,511
864.29364,525
864.411194,507
864.528687,497
864.646118,500
864.763611,514
864.881042,502
864.998535,497
865.116028,505
865.233459,491
865.350891,510
865.468384,501
865.585754,495
865.703308,500
865.820679,507
865.938171,508
866.055542,488
866.173035,494
866.290466,490
866.407837,495
866.52533,515
866.6427,495
866.760071,484
866.877563,521
866.994934,495
867.112305,538
867.229736,514
867.347107,509
867.464539,504
867.58197,528
867.699341,501
867.81665,502
867.934082,494
868.051453,516
868.168823,506
868.286194,511
868.403564,505
868.520935,511
868.638306,498
868.755676,499
868.872986,516
868.990295,505
869.107727,501
869.225037,518
869.342346,509
869.459717,522
869.577026,518
869.694336,538
869.811707,513
869.929016,522
870.046326,515
870.163635,523
870.280945,537
870.398254,515
870.515564,538
870.632812,527
870.750183,527
870.867432,535
870.984741,532
871.102051,529
871.219299,550
871.336609,523
871.453918,546
871.571106,559
871.688416,542
871.805664,551
871.922852,543
872.040222,547
872.157471,533
872.274719,552
872.391968,548
872.509155,563
872.626465,517
872.743652,541
872.860962,529
872.978149,535
873.095337,530
873.212646,568
873.329834,528
873.44696,517
873.564209,542
873.681396,521
873.798645,543
873.915894,536
874.03302,527
874.150208,525
874.267456,534
874.384583,547
874.501831,561
874.618958,551
874.736145,544
874.853333,561
874.970459,557
875.087646,543
875.204834,547
875.32196,552
875.439148,536
875.556274,540
875.673401,534
875.790527,548
875.907715,536
876.024841,538
876.141968,502
876.259094,535
876.376282,535
876.493347,520
876.610474,521
876.7276,507
876.844727,545
876.961853,512
877.078918,524
877.195984,513
877.313171,519
877.430237,519
877.547302,523
877.664368,534
877.781433,528
877.898499,528
878.015625,489
878.13269,522
878.249695,509
878.366821,520
878.483887,506
878.600952,498
878.717957,507
878.834961,512
878.952087,491
879.069092,513
879.186157,512
879.303162,495
879.420227,496
879.537231,528
879.654236,491
879.77124,509
879.888306,489
880.005249,515
880.122314,497
880.239319,497
880.356323,490
880.473328,503
880.590271,503
880.707275,475
880.824341,520
880.941284,492
881.058228,476
881.175232,483
881.292236,491
881.40918,492
881.526123,494
881.643066,479
881.760071,484
881.877014,508
881.993958,489
882.11084,497
882.227783,493
882.344727,505
882.46167,495
882.578613,504
882.695618,500
882.812439,490
882.929382,493
883.046326,497
883.163208,463
883.280151,497
883.397034,491
883.513916,507
883.630798,500
883.747742,518
883.864563,492
883.981506,511
884.098389,515
884.21521,500
884.332153,514
884.448975,522
884.565796,520
884.682678,530
884.7995,527
884.916443,571
885.033264,561
885.150085,577
885.266968,579
885.383789,634
885.500671,607
885.617493,596
885.734314,601
885.851196,622
885.967896,600
886.084717,609
886.201599,585
886.318359,583
886.435181,591
886.552002,570
886.668762,561
886.785645,602
886.902344,574
887.019165,563
887.135925,566
887.252747,564
887.369446,570
887.486267,563
887.603027,521
887.719788,548
887.836548,536
887.953247,510
888.070068,513
888.186829,540
888.303528,517
888.420288,508
888.536987,484
888.653687,500
888.770447,493
888.887146,487
889.003967,502
889.120667,480
889.237305,468
889.354065,487
889.470703,484
889.587463,494
889.704163,490
889.820862,501
889.937561,488
890.054199,468
890.170837,473
890.287598,480
890.404236,472
890.520874,478
890.637634,484
890.754211,484
890.87085,478
890.987549,487
891.104187,461
891.220886,475
891.337463,466
891.454102,470
891.57074,508
891.687378,492
891.804077,486
891.920654,482
892.037231,482
892.15387,485
892.270447,491
892.387085,468
892.503723,470
892.6203,487
892.736877,470
892.853516,496
892.970032,477
893.08667,468
893.203186,470
893.319763,467
893.43634,464
893.552917,471
893.669556,472
893.786011,475
893.902588,489
894.019165,478
894.135681,468
894.252197,479
894.368835,477
894.485291,487
894.601868,487
894.718384,484
894.8349,484
894.951355,470
895.067932,472
895.184448,466
895.300964,480
895.417419,480
895.533936,460
895.650452,463
895.766907,459
895.883423,462
895.999878,478
896.116333,488
896.232849,460
896.349304,481
896.465759,470
896.582214,489
896.698669,482
896.815125,471
896.931641,472
897.048035,475
897.164551,458
897.280884,476
897.397339,464
897.513794,476
897.630249,475
897.746582,478
897.863098,465
897.979431,498
898.095886,475
898.212341,496
898.328674,482
898.445129,483
898.561462,497
898.677795,469
898.794312,473
898.910645,471
899.026978,490
899.143433,486
899.259766,476
899.37616,492
899.492493,481
899.608765,475
899.725159,480
899.841553,474
899.957947,495
900.07428,486
900.190552,469
900.306946,485
900.423157,471
900.53949,481
900.655884,483
900.772156,477
900.888489,471
901.004822,488
901.121033,477
901.237366,498
901.353699,497
901.46991,483
901.586304,471
901.702515,484
901.818787,492
901.93512,520
902.051331,502
902.167603,518
902.283875,518
902.400085,535
902.516418,526
902.632629,550
902.74884,536
902.865112,557
902.981384,559
903.097595,532
903.213867,535
903.330017,552
903.446289,526
903.5625,524
903.67865,523
903.794922,535
903.911072,516
904.027344,502
904.143494,493
904.259705,511
904.375916,474
904.492065,485
904.608215,505
904.724426,493
904.840576,477
904.956726,509
905.072876,494
905.189087,482
905.305176,496
905.421387,482
905.537537,499
905.653687,488
905.769775,476
905.885925,482
906.002014,460
906.118164,475
906.234314,470
906.350403,463
906.466492,455
906.582642,470
906.69873,475
906.814758,471
906.930908,463
907.046936,470
907.163086,479
907.279175,470
907.395264,491
907.511353,473
907.62738,493
907.743408,482
907.859497,460
907.975525,482
908.091553,461
908.207703,466
908.32373,490
908.439758,502
908.555786,491
908.671814,454
908.787842,471
908.90387,477
909.019775,485
909.135864,466
909.251892,498
909.367859,485
909.483826,450
909.599854,473
909.715881,456
909.831848,476
909.947815,462
910.063782,505
910.179749,476
910.295776,469
910.411743,448
910.527649,467
910.643616,468
910.759583,478
910.875488,484
910.991455,478
911.107361,477
911.223267,472
911.339294,441
911.4552,465
911.571106,456
911.687073,454
911.802979,483
911.918823,475
912.034729,466
912.150635,475
912.266602,461
912.382446,464
912.498352,485
912.614197,482
912.730103,466
912.846008,481
792.44574,1050
792.56488,1075
792.68396,1064
792.80304,1055
792.92218,996
793.041199,930
793.160339,930
793.279419,917
793.398499,911
793.517578,865
793.636658,890
793.755737,862
793.874817,879
793.993896,842
794.112976,830
794.232056,824
794.351074,804
794.470215,806
794.589233,822
794.708313,782
794.827393,791
794.946411,776
795.065552,758
795.18457,763
795.303589,730
795.422668,720
795.541687,772
795.660767,737
795.779846,731
795.898865,735
796.017883,723
796.136963,717
796.255981,717
796.375061,731
796.49408,710
796.613037,684
796.732117,674
796.851135,680
796.970154,659
797.089233,647
797.208191,674
797.327271,674
797.446228,680
797.565186,666
797.684265,639
797.803223,647
797.922241,640
798.04126,647
798.160278,647
798.279297,646
798.398315,628
798.517273,634
798.636292,631
798.75531,625
798.874268,639
798.993286,604
799.112244,640
799.231323,623
799.350281,609
799.469238,627
799.588257,622
799.707153,621
799.826111,621
799.945129,597
800.064087,624
800.183044,615
800.302063,630
800.421021,615
800.539978,593
800.658936,630
800.777893,612
800.896912,623
801.015747,603
801.134705,587
801.253723,605
801.37262,590
801.491638,590
801.610535,598
801.729492,604
801.84845,582
801.967407,612
802.086243,605
802.205261,596
802.324158,588
802.443115,596
802.562073,576
802.680969,583
802.799927,577
802.918762,587
803.037659,583
803.156677,583
803.275574,586
803.39447,595
803.513428,597
803.632263,594
803.751221,589
803.870117,597
803.989014,564
804.107971,563
804.226746,577
804.345642,578
804.4646,565
804.583496,587
804.702393,571
804.821228,561
804.940125,577
805.059021,578
805.177917,570
805.296814,569
805.415649,600
805.534546,578
805.653442,578
805.772278,555
805.891113,565
806.01001,552
806.128906,580
806.247742,568
806.366577,550
806.485413,560
806.604309,584
806.723145,550
806.84198,563
806.960876,559
807.079712,551
807.198486,531
807.317383,563
807.436218,533
807.554993,573
807.673889,571
807.792725,574
807.91156,557
808.030396,585
808.14917,532
808.268005,553
808.386841,551
808.505676,556
808.624451,527
808.743286,549
808.862122,552
808.980896,539
809.099731,568
809.218506,549
809.337341,551
809.456116,539
809.57489,538
809.693726,538
809.8125,548
809.931274,563
810.050049,545
810.168884,549
810.287659,573
810.406372,558
810.525269,545
810.643982,557
810.762756,562
810.881531,557
811.000305,544
811.11908,556
811.237854,556
811.356567,546
811.475403,560
811.594116,557
811.71283,543
811.831604,551
811.950378,572
812.069153,562
812.187927,555
812.30658,588
812.425415,579
812.544128,554
812.662781,556
812.781616,563
812.900269,549
813.019043,564
813.137756,563
813.256531,549
813.375244,567
813.493896,574
813.612671,534
813.731384,535
813.850037,560
813.96875,536
814.087524,544
814.206238,548
814.324951,536
814.443604,545
814.562256,535
814.68103,536
814.799683,554
814.918335,533
815.037109,564
815.155762,552
815.274475,553
815.393188,541
815.511841,510
815.630554,547
815.749146,540
815.867859,544
815.986572,539
816.105164,545
816.223877,533
816.342529,541
816.461182,539
816.579895,537
816.698486,543
816.817139,535
816.935791,526
817.054504,538
817.173096,565
817.291748,558
817.4104,531
817.529053,536
817.647644,579
817.766235,548
817.884949,534
818.00354,532
818.122192,535
818.240845,550
818.359436,535
818.478088,539
818.59668,541
818.715271,543
818.833923,536
818.952515,529
819.071106,512
819.189758,511
819.30835,504
819.426941,536
819.545532,513
819.664124,521
819.782715,507
819.901306,512
820.019897,517
820.138489,521
820.25708,499
820.375671,512
820.494202,551
820.612732,517
820.731384,539
820.849915,507
820.968506,509
821.087097,525
821.205627,526
821.324158,525
821.442749,507
821.561279,508
821.679871,515
821.798401,494
821.916931,502
822.035461,507
822.154053,508
822.272583,516
822.391174,503
822.509583,514
822.628174,496
822.746704,518
822.865234,513
822.983765,502
823.102295,503
823.220825,522
823.339294,530
823.457825,485
823.576355,504
823.694824,503
823.813354,514
823.931885,518
824.050354,522
824.168884,512
824.287354,509
824.405823,500
824.524353,527
824.642822,496
824.761353,503
824.879822,496
824.998291,498
825.116699,516
825.235291,519
825.353699,522
825.472168,522
825.590637,503
825.709106,515
825.827576,497
825.946045,476
826.064453,487
826.182983,486
826.301392,507
826.4198,489
826.53833,493
826.656738,512
826.775208,502
826.893677,489
827.012024,487
827.130493,488
827.248962,536
827.36731,505
827.485779,530
827.604248,501
827.722595,493
827.841064,501
827.959412,497
828.077942,509
828.196289,495
828.314636,489
828.433105,491
828.551514,491
828.669861,505
828.78833,496
828.906677,493
829.025085,500
829.143433,505
829.261841,475
829.38031,487
829.498657,488
829.617004,493
829.735413,491
829.85376,465
829.972107,473
830.090515,491
830.208862,503
830.327209,492
830.445557,487
830.563904,496
830.682312,476
830.800659,498
830.919006,492
831.037354,509
831.155701,499
831.274048,520
831.392395,508
831.51062,496
831.629028,500
831.747314,506
831.865662,508
831.984009,502
832.102356,519
832.220642,509
832.338928,499
832.457275,523
832.575623,532
832.693909,500
832.812134,507
832.930481,482
833.048828,503
833.167114,522
833.2854,487
833.403687,487
833.521973,519
833.640259,503
833.758545,494
833.876831,517
833.995056,494
834.113281,511
834.231628,502
834.349915,511
834.468201,515
834.586426,500
834.704651,510
834.822998,497
834.941162,510
835.059448,487
835.177673,495
835.295959,517
835.414246,503
835.53241,531
835.650635,491
835.768921,502
835.887146,512
836.005371,480
836.123596,483
836.241821,498
836.360046,511
836.478271,495
836.596497,493
836.714722,506
836.832886,476
836.95105,498
837.069336,489
837.1875,473
837.305725,503
837.423889,506
837.542053,483
837.660339,485
837.778503,491
837.896667,520
838.014832,495
838.132996,501
838.25116,490
838.369385,504
838.487488,501
838.605713,514
838.723877,501
838.84198,510
838.960205,505
839.078308,520
839.196472,519
839.314636,503
839.4328,486
839.550964,511
839.669067,514
839.787231,520
839.905396,539
840.023499,515
840.141602,534
840.259766,533
840.377869,538
840.495972,548
840.614136,519
840.732239,538
840.850342,511
840.968445,526
841.086548,533
841.204651,549
841.322754,538
841.440918,530
841.55896,536
841.677002,543
841.795166,525
841.913208,554
842.031311,565
842.149353,562
842.267456,539
842.385498,531
842.503601,542
842.621643,547
842.739746,525
842.857788,523
842.97583,527
843.093933,540
843.211975,537
843.330017,550
843.44812,532
843.566101,528
843.684204,529
843.802246,543
843.920227,526
844.038269,542
844.156311,537
844.274292,556
844.392395,543
844.510376,514
844.628357,546
844.74646,544
844.864441,531
844.982422,527
845.100403,509
845.218384,515
845.336426,536
845.454468,513
845.572449,505
845.69043,526
845.808411,525
845.926453,540
846.044373,542
846.162354,526
846.280396,544
846.398315,529
846.516296,512
846.634216,513
846.752197,538
846.870178,510
846.988098,525
847.106079,525
847.22406,523
847.34198,514
847.4599,536
847.577881,523
847.695801,534
847.813782,520
847.931641,517
848.049561,515
848.167603,522
848.285461,546
848.403381,509
848.521362,540
848.639221,546
848.75708,531
848.875,530
848.99292,529
849.110901,520
849.22876,533
849.34668,531
849.464539,516
849.582458,534
849.700317,511
849.818176,532
849.936096,541
850.053955,522
850.171875,536
850.289673,512
850.407593,544
850.525452,532
850.643311,538
850.761169,525
850.878967,519
850.996887,533
851.114746,532
851.232544,496
851.350403,494
851.468262,524
851.58606,518
851.703979,531
851.821777,515
851.939636,521
852.057434,523
852.175232,522
852.293091,538
852.410889,517
852.528687,549
852.646545,547
852.764343,548
852.88208,527
852.999939,550
853.117676,537
853.235535,534
853.353271,531
853.471069,534
853.588928,532
853.706604,522
853.824402,522
853.9422,499
854.059998,519
854.177734,511
854.295532,513
854.413269,547
854.531006,533
854.648804,545
854.766541,541
854.884277,522
855.002014,523
855.119751,506
855.237549,539
855.355225,545
855.473022,535
855.590698,529
855.708435,516
855.826172,526
855.943848,538
856.061646,513
856.179321,532
856.296997,528
856.414795,508
856.53241,528
856.650085,533
856.767822,543
856.885559,533
857.003174,535
857.120911,578
857.238586,565
857.356201,548
857.473938,559
857.591614,552
857.709351,538
857.826965,520
857.944641,555
858.062317,542
858.179993,532
858.297668,539
858.415283,539
858.532959,570
858.650574,553
858.768188,544
858.885803,559
859.003479,536
859.121094,545
859.23877,513
859.356384,527
859.473999,519
859.591675,537
859.709229,527
859.826843,519
859.944458,534
860.062012,537
860.179626,523
860.297302,534
860.414856,545
860.532471,532
860.650024,538
860.767639,526
860.885193,527
861.002808,526
861.120361,525
861.237976,529
861.35553,539
861.473022,519
861.590698,519
861.708191,519
861.825745,541
861.943298,520
862.060852,534
862.178406,533
862.295959,523
862.413513,521
862.531006,505
862.64856,517
862.766113,514
862.883667,505
863.00116,505
863.118713,505
863.236206,502
863.353699,496
863.471252,488
863.588745,506
863.706177,517
863.82373,513
863.941162,509
864.058716,517
864.176208,484
864.29364,514
864.411194,490
864.528687,510
864.646118,512
864.763611,500
864.881042,501
864.998535,484
865.116028,500
865.233459,506
865.350891,488
865.468384,490
865.585754,504
865.703308,503
865.820679,495
865.938171,506
866.055542,498
866.173035,536
866.290466,500
866.407837,493
866.52533,495
866.6427,506
866.760071,501
866.877563,505
866.994934,511
867.112305,509
867.229736,494
867.347107,522
867.464539,521
867.58197,536
867.699341,514
867.81665,525
867.934082,507
868.051453,525
868.168823,498
868.286194,509
868.403564,500
868.520935,528
868.638306,494
868.755676,536
868.872986,508
868.990295,511
869.107727,516
869.225037,512
869.342346,525
869.459717,508
869.577026,500
869.694336,522
869.811707,510
869.929016,539
870.046326,531
870.163635,553
870.280945,540
870.398254,537
870.515564,529
870.632812,516
870.750183,528
870.867432,545
870.984741,565
871.102051,560
871.219299,554
871.336609,545
871.453918,556
871.571106,555
871.688416,529
871.805664,556
871.922852,530
872.040222,558
872.157471,553
872.274719,559
872.391968,561
872.509155,547
872.626465,550
872.743652,554
872.860962,528
872.978149,525
873.095337,548
873.212646,534
873.329834,546
873.44696,552
873.564209,522
873.681396,538
873.798645,542
873.915894,549
874.03302,540
874.150208,551
874.267456,553
874.384583,542
874.501831,540
874.618958,554
874.736145,567
874.853333,559
874.970459,567
875.087646,554
875.204834,553
875.32196,548
875.439148,555
875.556274,532
875.673401,552
875.790527,525
875.907715,527
876.024841,558
876.141968,509
876.259094,527
876.376282,529
876.493347,518
876.610474,544
876.7276,542
876.844727,496
876.961853,519
877.078918,539
877.195984,525
877.313171,534
877.430237,531
877.547302,522
877.664368,517
877.781433,502
877.898499,511
878.015625,498
878.13269,513
878.249695,513
878.366821,506
878.483887,503
878.600952,520
878.717957,520
878.834961,490
878.952087,509
879.069092,513
879.186157,507
879.303162,496
879.420227,506
879.537231,509
879.654236,503
879.77124,485
879.888306,497
880.005249,506
880.122314,514
880.239319,504
880.356323,491
880.473328,503
880.590271,479
880.707275,497
880.824341,495
880.941284,485
881.058228,487
881.175232,508
881.292236,486
881.40918,513
881.526123,481
881.643066,498
881.760071,501
881.877014,509
881.993958,491
882.11084,508
882.227783,485
882.344727,496
882.46167,486
882.578613,497
882.695618,472
882.812439,502
882.929382,495
883.046326,488
883.163208,503
883.280151,488
883.397034,492
883.513916,500
883.630798,494
883.747742,503
883.864563,500
883.981506,500
884.098389,498
884.21521,508
884.332153,515
884.448975,531
884.565796,507
884.682678,525
884.7995,536
884.916443,576
885.033264,575
885.150085,592
885.266968,585
885.383789,603
885.500671,610
885.617493,619
885.734314,607
885.851196,599
885.967896,602
886.084717,579
886.201599,598
886.318359,594
886.435181,595
886.552002,567
886.668762,564
886.785645,580
886.902344,605
887.019165,561
887.135925,583
887.252747,558
887.369446,555
887.486267,555
887.603027,519
887.719788,543
887.836548,544
887.953247,524
888.070068,532
888.186829,538
888.303528,513
888.420288,524
888.536987,511
888.653687,498
888.770447,513
888.887146,498
889.003967,491
889.120667,479
889.237305,487
889.354065,515
889.470703,453
889.587463,477
889.704163,476
889.820862,490
889.937561,478
890.054199,480
890.170837,486
890.287598,449
890.404236,472
890.520874,490
890.637634,480
890.754211,485
890.87085,482
890.987549,480
891.104187,490
891.220886,488
891.337463,482
891.454102,512
891.57074,510
891.687378,496
891.804077,498
891.920654,506
892.037231,496
892.15387,484
892.270447,473
892.387085,471
892.503723,465
892.6203,473
892.736877,484
892.853516,461
892.970032,459
893.08667,474
893.203186,492
893.319763,474
893.43634,472
893.552917,484
893.669556,489
893.786011,473
893.902588,483
894.019165,486
894.135681,485
894.252197,494
894.368835,486
894.485291,486
894.601868,482
894.718384,468
894.8349,482
894.951355,491
895.067932,475
895.184448,471
895.300964,472
895.417419,479
895.533936,463
895.650452,486
895.766907,475
895.883423,487
895.999878,473
896.116333,474
896.232849,464
896.349304,463
896.465759,461
896.582214,496
896.698669,464
896.815125,477
896.931641,480
897.048035,474
897.164551,478
897.280884,490
897.397339,471
897.513794,485
897.630249,494
897.746582,485
897.863098,486
897.979431,484
898.095886,478
898.212341,489
898.328674,504
898.445129,484
898.561462,485
898.677795,468
898.794312,479
898.910645,485
899.026978,485
899.143433,491
899.259766,496
899.37616,468
899.492493,473
899.608765,486
899.725159,491
899.841553,496
899.957947,452
900.07428,507
900.190552,477
900.306946,472
900.423157,494
900.53949,483
900.655884,494
900.772156,491
900.888489,502
901.004822,473
901.121033,494
901.237366,481
901.353699,496
901.46991,493
901.586304,503
901.702515,483
901.818787,499
901.93512,496
902.051331,518
902.167603,514
902.283875,520
902.400085,522
902.516418,538
902.632629,531
902.74884,548
902.865112,540
902.981384,538
903.097595,535
903.213867,537
903.330017,535
903.446289,534
903.5625,522
903.67865,525
903.794922,538
903.911072,529
904.027344,519
904.143494,538
904.259705,518
904.375916,507
904.492065,508
904.608215,500
904.724426,493
904.840576,480
904.956726,502
905.072876,484
905.189087,495
905.305176,485
905.421387,512
905.537537,491
905.653687,484
905.769775,490
905.885925,477
906.002014,496
906.118164,467
906.234314,479
906.350403,470
906.466492,488
906.582642,495
906.69873,474
906.814758,462
906.930908,455
907.046936,473
907.163086,454
907.279175,487
907.395264,471
907.511353,472
907.62738,474
907.743408,476
907.859497,463
907.975525,500
908.091553,487
908.207703,475
908.32373,466
908.439758,484
908.555786,455
908.671814,482
908.787842,485
908.90387,479
909.019775,476
909.135864,462
909.251892,455
909.367859,490
909.483826,488
909.599854,485
909.715881,466
909.831848,499
909.947815,476
910.063782,490
910.179749,466
910.295776,467
910.411743,441
910.527649,478
910.643616,460
910.759583,486
910.875488,466
910.991455,474
911.107361,477
911.223267,482
911.339294,478
911.4552,486
911.571106,475
911.687073,491
911.802979,474
911.918823,480
912.034729,462
912.150635,454
912.266602,466
912.382446,479
912.498352,463
912.614197,473
912.730103,461
912.846008,467
792.44574,1046
792.56488,1018
792.68396,1067
792.80304,1040
792.92218,975
793.041199,953
793.160339,941
793.279419,927
793.398499,938
793.517578,869
793.636658,894
793.755737,905
793.874817,858
793.993896,859
794.112976,844
794.232056,833
794.351074,807
794.470215,800
794.589233,812
794.708313,761
794.827393,774
794.946411,750
795.065552,767
795.18457,779
795.303589,753
795.422668,743
795.541687,750
795.660767,722
795.779846,768
795.898865,712
796.017883,704
796.136963,717
796.255981,692
796.375061,697
796.49408,664
796.613037,694
796.732117,680
796.851135,696
796.970154,672
797.089233,676
797.208191,643
797.327271,668
797.446228,652
797.565186,644
797.684265,669
797.803223,664
797.922241,638
798.04126,646
798.160278,669
798.279297,628
798.398315,642
798.517273,641
798.636292,641
798.75531,638
798.874268,623
798.993286,649
799.112244,642
799.231323,617
799.350281,645
799.469238,628
799.588257,619
799.707153,641
799.826111,645
799.945129,633
800.064087,623
800.183044,624
800.302063,607
800.421021,596
800.539978,610
800.658936,623
800.777893,586
800.896912,604
801.015747,592
801.134705,620
801.253723,590
801.37262,613
801.491638,580
801.610535,567
801.729492,612
801.84845,599
801.967407,612
802.086243,577
802.205261,576
802.324158,581
802.443115,570
802.562073,582
802.680969,581
802.799927,583
802.918762,561
803.037659,581
803.156677,583
803.275574,569
803.39447,574
803.513428,592
803.632263,578
803.751221,559
803.870117,577
803.989014,588
804.107971,564
804.226746,580
804.345642,583
804.4646,573
804.583496,571
804.702393,559
804.821228,564
804.940125,576
805.059021,572
805.177917,562
805.296814,566
805.415649,565
805.534546,576
805.653442,549
805.772278,567
805.891113,543
806.01001,556
806.128906,565
806.247742,556
806.366577,531
806.485413,563
806.604309,561
806.723145,549
806.84198,540
806.960876,545
807.079712,570
807.198486,536
807.317383,557
807.436218,543
807.554993,549
807.673889,551
807.792725,557
807.91156,543
808.030396,545
808.14917,531
808.268005,555
808.386841,550
808.505676,566
808.624451,515
808.743286,535
808.862122,538
808.980896,532
809.099731,543
809.218506,557
809.337341,530
809.456116,547
809.57489,562
809.693726,530
809.8125,534
809.931274,548
810.050049,563
810.168884,546
810.287659,564
810.406372,546
810.525269,526
810.643982,540
810.762756,539
810.881531,524
811.000305,548
811.11908,542
811.237854,539
811.356567,541
811.475403,536
811.594116,549
811.71283,540
811.831604,564
811.950378,559
812.069153,556
812.187927,559
812.30658,538
812.425415,536
812.544128,556
812.662781,540
812.781616,557
812.900269,564
813.019043,553
813.137756,530
813.256531,562
813.375244,566
813.493896,552
813.612671,547
813.731384,555
813.850037,542
813.96875,575
814.087524,539
814.206238,540
814.324951,542
814.443604,543
814.562256,553
814.68103,523
814.799683,527
814.918335,531
815.037109,552
815.155762,548
815.274475,515
815.393188,542
815.511841,525
815.630554,535
815.749146,520
815.867859,542
815.986572,520
816.105164,544
816.223877,544
816.342529,526
816.461182,540
816.579895,560
816.698486,531
816.817139,533
816.935791,540
817.054504,527
817.173096,540
817.291748,535
817.4104,512
817.529053,529
817.647644,538
817.766235,549
817.884949,529
818.00354,534
818.122192,525
818.240845,520
818.359436,513
818.478088,507
818.59668,530
818.715271,541
818.833923,522
818.952515,522
819.071106,523
819.189758,512
819.30835,508
819.426941,527
819.545532,500
819.664124,494
819.782715,528
819.901306,517
820.019897,492
820.138489,540
820.25708,517
820.375671,511
820.494202,510
820.612732,512
820.731384,523
820.849915,514
820.968506,523
821.087097,492
821.205627,514
821.324158,516
821.442749,489
821.561279,515
821.679871,518
821.798401,534
821.916931,526
822.035461,496
822.154053,503
822.272583,508
822.391174,518
822.509583,502
822.628174,511
822.746704,504
822.865234,490
822.983765,473
823.102295,500
823.220825,489
823.339294,491
823.457825,499
823.576355,499
823.694824,498
823.813354,487
823.931885,514
824.050354,497
824.168884,516
824.287354,503
824.405823,497
824.524353,489
824.642822,508
824.761353,506
824.879822,494
824.998291,514
825.116699,497
825.235291,491
825.353699,500
825.472168,510
825.590637,496
825.709106,495
825.827576,477
825.946045,494
826.064453,474
826.182983,514
826.301392,469
826.4198,501
826.53833,496
826.656738,474
826.775208,482
826.893677,483
827.012024,499
827.130493,526
827.248962,487
827.36731,478
827.485779,489
827.604248,511
827.722595,488
827.841064,483
827.959412,511
828.077942,473
828.196289,496
828.314636,472
828.433105,508
828.551514,498
828.669861,482
828.78833,483
828.906677,485
829.025085,478
829.143433,499
829.261841,492
829.38031,503
829.498657,478
829.617004,483
829.735413,472
829.85376,489
829.972107,482
830.090515,479
830.208862,477
830.327209,472
830.445557,482
830.563904,487
830.682312,469
830.800659,487
830.919006,487
831.037354,509
831.155701,487
831.274048,511
831.392395,495
831.51062,501
831.629028,507
831.747314,500
831.865662,511
831.984009,479
832.102356,521
832.220642,505
832.338928,499
832.457275,487
832.575623,514
832.693909,490
832.812134,525
832.930481,495
833.048828,469
833.167114,502
833.2854,507
833.403687,497
833.521973,501
833.640259,492
833.758545,479
833.876831,493
833.995056,519
834.113281,481
834.231628,511
834.349915,485
834.468201,477
834.586426,505
834.704651,500
834.822998,477
834.941162,498
835.059448,495
835.177673,503
835.295959,517
835.414246,488
835.53241,484
835.650635,488
835.768921,494
835.887146,470
836.005371,487
836.123596,469
836.241821,480
836.360046,488
836.478271,478
836.596497,477
836.714722,495
836.832886,472
836.95105,479
837.069336,504
837.1875,471
837.305725,484
837.423889,491
837.542053,491
837.660339,485
837.778503,483
837.896667,510
838.014832,490
838.132996,484
838.25116,493
838.369385,487
838.487488,490
838.605713,508
838.723877,512
838.84198,501
838.960205,498
839.078308,494
839.196472,486
839.314636,511
839.4328,519
839.550964,527
839.669067,502
839.787231,507
839.905396,537
840.023499,520
840.141602,511
840.259766,527
840.377869,510
840.495972,542
840.614136,524
840.732239,520
840.850342,537
840.968445,526
841.086548,523
841.204651,532
841.322754,518
841.440918,517
841.55896,537
841.677002,512
841.795166,544
841.913208,537
842.031311,565
842.149353,558
842.267456,535
842.385498,528
842.503601,537
842.621643,534
842.739746,547
842.857788,504
842.97583,534
843.093933,548
843.211975,540
843.330017,542
843.44812,529
843.566101,519
843.684204,521
843.802246,539
843.920227,534
844.038269,521
844.156311,519
844.274292,521
844.392395,523
844.510376,528
844.628357,499
844.74646,518
844.864441,523
844.982422,530
845.100403,522
845.218384,507
845.336426,509
845.454468,508
845.572449,515
845.69043,523
845.808411,523
845.926453,513
846.044373,524
846.162354,513
846.280396,519
846.398315,537
846.516296,496
846.634216,524
846.752197,523
846.870178,519
846.988098,527
847.106079,531
847.22406,542
847.34198,512
847.4599,525
847.577881,537
847.695801,519
847.813782,530
847.931641,518
848.049561,517
848.167603,520
848.285461,520
848.403381,505
848.521362,525
848.639221,506
848.75708,534
848.875,518
848.99292,521
849.110901,508
849.22876,523
849.34668,528
849.464539,523
849.582458,540
849.700317,516
849.818176,529
849.936096,546
850.053955,502
850.171875,511
850.289673,524
850.407593,528
850.525452,522
850.643311,520
850.761169,513
850.878967,540
850.996887,523
851.114746,513
851.232544,508
851.350403,502
851.468262,528
851.58606,522
851.703979,515
851.821777,520
851.939636,526
852.057434,513
852.175232,498
852.293091,530
852.410889,516
852.528687,541
852.646545,539
852.764343,533
852.88208,537
852.999939,523
853.117676,530
853.235535,509
853.353271,520
853.471069,527
853.588928,521
853.706604,510
853.824402,531
853.9422,506
854.059998,509
854.177734,511
854.295532,519
854.413269,514
854.531006,531
854.648804,515
854.766541,534
854.884277,548
855.002014,537
855.119751,540
855.237549,539
855.355225,539
855.473022,499
855.590698,542
855.708435,541
855.826172,527
855.943848,549
856.061646,516
856.179321,532
856.296997,541
856.414795,522
856.53241,533
856.650085,541
856.767822,529
856.885559,529
857.003174,574
857.120911,556
857.238586,554
857.356201,528
857.473938,557
857.591614,545
857.709351,516
857.826965,540
857.944641,551
858.062317,534
858.179993,544
858.297668,556
858.415283,547
858.532959,531
858.650574,550
858.768188,513
858.885803,545
859.003479,539
859.121094,553
859.23877,536
859.356384,518
859.473999,520
859.591675,535
859.709229,524
859.826843,518
859.944458,502
860.062012,521
860.179626,509
860.297302,527
860.414856,507
860.532471,509
860.650024,530
860.767639,524
860.885193,508
861.002808,514
861.120361,508
861.237976,521
861.35553,525
861.473022,485
861.590698,524
861.708191,531
861.825745,498
861.943298,521
862.060852,534
862.178406,536
862.295959,505
862.413513,500
862.531006,475
862.64856,498
862.766113,501
862.883667,507
863.00116,509
863.118713,487
863.236206,500
863.353699,497
863.471252,500
863.588745,486
863.706177,518
863.82373,520
863.941162,500
864.058716,512
864.176208,505
864.29364,503
864.411194,523
864.528687,497
864.646118,514
864.763611,517
864.881042,505
864.998535,529
865.116028,480
865.233459,508
865.350891,494
865.468384,505
865.585754,495
865.703308,513
865.820679,503
865.938171,502
866.055542,506
866.173035,509
866.290466,486
866.407837,523
866.52533,508
866.6427,521
866.760071,506
866.877563,522
866.994934,492
867.112305,508
867.229736,507
867.347107,482
867.464539,495
867.58197,494
867.699341,507
867.81665,517
867.934082,511
868.051453,492
868.168823,504
868.286194,504
868.403564,493
868.520935,500
868.638306,519
868.755676,503
868.872986,511
868.990295,501
869.107727,511
869.225037,495
869.342346,520
869.459717,508
869.577026,512
869.694336,527
869.811707,508
869.929016,522
870.046326,514
870.163635,511
870.280945,517
870.398254,511
870.515564,532
870.632812,529
870.750183,508
870.867432,519
870.984741,547
871.102051,531
871.219299,543
871.336609,556
871.453918,549
871.571106,516
871.688416,532
871.805664,538
871.922852,531
872.040222,572
872.157471,543
872.274719,548
872.391968,535
872.509155,556
872.626465,550
872.743652,550
872.860962,539
872.978149,538
873.095337,527
873.212646,555
873.329834,533
873.44696,545
873.564209,522
873.681396,532
873.798645,537
873.915894,529
874.03302,534
874.150208,545
874.267456,528
874.384583,535
874.501831,536
874.618958,539
874.736145,556
874.853333,556
874.970459,560
875.087646,545
875.204834,562
875.32196,534
875.439148,532
875.556274,569
875.673401,541
875.790527,529
875.907715,524
876.024841,534
876.141968,539
876.259094,535
876.376282,524
876.493347,521
876.610474,532
876.7276,511
876.844727,516
876.961853,517
877.078918,530
877.195984,506
877.313171,531
877.430237,510
877.547302,542
877.664368,502
877.781433,511
877.898499,527
878.015625,507
878.13269,526
878.249695,500
878.366821,501
878.483887,498
878.600952,494
878.717957,525
878.834961,499
878.952087,505
879.069092,483
879.186157,513
879.303162,500
879.420227,517
879.537231,497
879.654236,507
879.77124,500
879.888306,497
880.005249,519
880.122314,493
880.239319,505
880.356323,492
880.473328,487
880.590271,485
880.707275,500
880.824341,483
880.941284,477
881.058228,500
881.175232,521
881.292236,477
881.40918,487
881.526123,481
881.643066,482
881.760071,500
881.877014,482
881.993958,472
882.11084,487
882.227783,476
882.344727,480
882.46167,486
882.578613,494
882.695618,476
882.812439,492
882.929382,476
883.046326,497
883.163208,486
883.280151,489
883.397034,507
883.513916,492
883.630798,496
883.747742,507
883.864563,494
883.981506,497
884.098389,505
884.21521,493
884.332153,506
884.448975,517
884.565796,531
884.682678,534
884.7995,531
884.916443,566
885.033264,564
885.150085,592
885.266968,600
885.383789,598
885.500671,606
885.617493,625
885.734314,618
885.851196,594
885.967896,605
886.084717,595
886.201599,586
886.318359,607
886.435181,574
886.552002,584
886.668762,575
886.785645,567
886.902344,596
887.019165,562
887.135925,558
887.252747,557
887.369446,538
887.486267,583
887.603027,543
887.719788,535
887.836548,543
887.953247,539
888.070068,527
888.186829,532
888.303528,515
888.420288,485
888.536987,478
888.653687,493
888.770447,505
888.887146,479
889.003967,474
889.120667,498
889.237305,490
889.354065,489
889.470703,473
889.587463,498
889.704163,479
889.820862,478
889.937561,482
890.054199,483
890.170837,466
890.287598,481
890.404236,478
890.520874,484
890.637634,456
890.754211,473
890.87085,469
890.987549,477
891.104187,503
891.220886,469
891.337463,477
891.454102,476
891.57074,496
891.687378,476
891.804077,498
891.920654,480
892.037231,478
892.15387,490
892.270447,487
892.387085,491
892.503723,457
892.6203,501
892.736877,486
892.853516,480
892.970032,462
893.08667,480
893.203186,473
893.319763,458
893.43634,481
893.552917,466
893.669556,491
893.786011,474
893.902588,475
894.019165,496
894.135681,475
894.252197,504
894.368835,497
894.485291,488
894.601868,473
894.718384,482
894.8349,476
894.951355,459
895.067932,470
895.184448,466
895.300964,461
895.417419,462
895.533936,473
895.650452,471
895.766907,471
895.883423,488
895.999878,462
896.116333,466
896.232849,467
896.349304,479
896.465759,492
896.582214,474
896.698669,471
896.815125,480
896.931641,468
897.048035,492
897.164551,467
897.280884,458
897.397339,471
897.513794,470
897.630249,452
897.746582,482
897.863098,474
897.979431,481
898.095886,483
898.212341,483
898.328674,480
898.445129,471
898.561462,477
898.677795,487
898.794312,460
898.910645,485
899.026978,482
899.143433,496
899.259766,483
899.37616,492
899.492493,485
899.608765,467
899.725159,487
899.841553,472
899.957947,465
900.07428,487
900.190552,479
900.306946,483
900.423157,469
900.53949,461
900.655884,503
900.772156,478
900.888489,493
901.004822,471
901.121033,482
901.237366,475
901.353699,497
901.46991,504
901.586304,492
901.702515,497
901.818787,521
901.93512,492
902.051331,510
902.167603,522
902.283875,517
902.400085,526
902.516418,538
902.632629,536
902.74884,541
902.865112,568
902.981384,557
903.097595,544
903.213867,543
903.330017,529
903.446289,532
903.5625,529
903.67865,529
903.794922,533
903.911072,491
904.027344,520
904.143494,498
904.259705,510
904.375916,495
904.492065,514
904.608215,501
904.724426,487
904.840576,487
904.956726,490
905.072876,493
905.189087,501
905.305176,473
905.421387,487
905.537537,498
905.653687,476
905.769775,473
905.885925,485
906.002014,477
906.118164,495
906.234314,468
906.350403,484
906.466492,477
906.582642,481
906.69873,468
906.814758,468
906.930908,474
907.046936,484
907.163086,462
907.279175,470
907.395264,471
907.511353,449
907.62738,472
907.743408,470
907.859497,476
907.975525,503
908.091553,465
908.207703,477
908.32373,474
908.439758,481
908.555786,466
908.671814,487
908.787842,475
908.90387,468
909.019775,471
909.135864,490
909.251892,473
909.367859,478
909.483826,480
909.599854,491
909.715881,469
909.831848,465
909.947815,471
910.063782,468
910.179749,467
910.295776,475
910.411743,480
910.527649,480
910.643616,473
910.759583,493
910.875488,468
910.991455,478
911.107361,471
911.223267,467
911.339294,466
911.4552,479
911.571106,469
911.687073,480
911.802979,460
911.918823,465
912.034729,467
912.150635,495
912.266602,471
912.382446,490
912.498352,482
912.614197,471
912.730103,462
912.846008,476
