792.44574,915
792.56488,945
792.68396,953
792.80304,931
792.92218,862
793.041199,860
793.160339,828
793.279419,829
793.398499,826
793.517578,781
793.636658,763
793.755737,791
793.874817,811
793.993896,791
794.112976,725
794.232056,746
794.351074,746
794.470215,722
794.589233,720
794.708313,720
794.827393,689
794.946411,708
795.065552,693
795.18457,714
795.303589,693
795.422668,707
795.541687,687
795.660767,678
795.779846,692
795.898865,671
796.017883,676
796.136963,660
796.255981,663
796.375061,661
796.49408,657
796.613037,656
796.732117,655
796.851135,661
796.970154,626
797.089233,634
797.208191,615
797.327271,619
797.446228,607
797.565186,610
797.684265,629
797.803223,617
797.922241,614
798.04126,636
798.160278,596
798.279297,600
798.398315,627
798.517273,583
798.636292,624
798.75531,611
798.874268,593
798.993286,619
799.112244,583
799.231323,627
799.350281,593
799.469238,572
799.588257,623
799.707153,601
799.826111,591
799.945129,600
800.064087,574
800.183044,595
800.302063,561
800.421021,573
800.539978,585
800.658936,579
800.777893,597
800.896912,577
801.015747,572
801.134705,582
801.253723,585
801.37262,567
801.491638,567
801.610535,588
801.729492,563
801.84845,556
801.967407,567
802.086243,558
802.205261,544
802.324158,540
802.443115,538
802.562073,554
802.680969,565
802.799927,561
802.918762,579
803.037659,547
803.156677,557
803.275574,559
803.39447,565
803.513428,552
803.632263,563
803.751221,552
803.870117,537
803.989014,563
804.107971,545
804.226746,551
804.345642,547
804.4646,542
804.583496,547
804.702393,550
804.821228,577
804.940125,573
805.059021,536
805.177917,532
805.296814,548
805.415649,540
805.534546,549
805.653442,553
805.772278,538
805.891113,552
806.01001,546
806.128906,550
806.247742,544
806.366577,518
806.485413,547
806.604309,544
806.723145,543
806.84198,551
806.960876,540
807.079712,545
807.198486,547
807.317383,552
807.436218,532
807.554993,529
807.673889,537
807.792725,528
807.91156,539
808.030396,517
808.14917,542
808.268005,534
808.386841,536
808.505676,554
808.624451,520
808.743286,521
808.862122,530
808.980896,546
809.099731,537
809.218506,549
809.337341,522
809.456116,545
809.57489,502
809.693726,527
809.8125,533
809.931274,555
810.050049,522
810.168884,531
810.287659,522
810.406372,529
810.525269,554
810.643982,533
810.762756,531
810.881531,523
811.000305,540
811.11908,526
811.237854,544
811.356567,524
811.475403,547
811.594116,526
811.71283,554
811.831604,538
811.950378,546
812.069153,527
812.187927,543
812.30658,537
812.425415,557
812.544128,557
812.662781,529
812.781616,535
812.900269,541
813.019043,539
813.137756,526
813.256531,555
813.375244,533
813.493896,525
813.612671,503
813.731384,545
813.850037,549
813.96875,541
814.087524,513
814.206238,539
814.324951,517
814.443604,528
814.562256,533
814.68103,515
814.799683,520
814.918335,519
815.037109,538
815.155762,526
815.274475,510
815.393188,515
815.511841,529
815.630554,529
815.749146,539
815.867859,539
815.986572,523
816.105164,529
816.223877,534
816.342529,524
816.461182,519
816.579895,547
816.698486,521
816.817139,522
816.935791,519
817.054504,543
817.173096,520
817.291748,529
817.4104,518
817.529053,534
817.647644,528
817.766235,541
817.884949,525
818.00354,515
818.122192,517
818.240845,517
818.359436,514
818.478088,517
818.59668,508
818.715271,488
818.833923,518
818.952515,485
819.071106,495
819.189758,509
819.30835,506
819.426941,499
819.545532,494
819.664124,506
819.782715,512
819.901306,496
820.019897,479
820.138489,526
820.25708,500
820.375671,506
820.494202,498
820.612732,493
820.731384,505
820.849915,476
820.968506,511
821.087097,490
821.205627,520
821.324158,502
821.442749,507
821.561279,495
821.679871,498
821.798401,493
821.916931,489
822.035461,501
822.154053,501
822.272583,493
822.391174,506
822.509583,504
822.628174,482
822.746704,487
822.865234,488
822.983765,488
823.102295,473
823.220825,463
823.339294,491
823.457825,486
823.576355,481
823.694824,487
823.813354,491
823.931885,490
824.050354,497
824.168884,479
824.287354,472
824.405823,475
824.524353,478
824.642822,484
824.761353,485
824.879822,478
824.998291,478
825.116699,501
825.235291,466
825.353699,459
825.472168,495
825.590637,502
825.709106,476
825.827576,474
825.946045,501
826.064453,490
826.182983,512
826.301392,495
826.4198,503
826.53833,474
826.656738,483
826.775208,481
826.893677,477
827.012024,472
827.130493,461
827.248962,485
827.36731,476
827.485779,489
827.604248,487
827.722595,472
827.841064,474
827.959412,476
828.077942,482
828.196289,485
828.314636,496
828.433105,490
828.551514,478
828.669861,487
828.78833,500
828.906677,476
829.025085,497
829.143433,483
829.261841,490
829.38031,490
829.498657,499
829.617004,481
829.735413,459
829.85376,479
829.972107,490
830.090515,490
830.208862,493
830.327209,473
830.445557,472
830.563904,485
830.682312,480
830.800659,492
830.919006,475
831.037354,487
831.155701,488
831.274048,482
831.392395,477
831.51062,476
831.629028,497
831.747314,467
831.865662,481
831.984009,481
832.102356,490
832.220642,493
832.338928,484
832.457275,499
832.575623,484
832.693909,506
832.812134,489
832.930481,480
833.048828,477
833.167114,494
833.2854,481
833.403687,488
833.521973,482
833.640259,466
833.758545,471
833.876831,494
833.995056,476
834.113281,489
834.231628,486
834.349915,490
834.468201,474
834.586426,491
834.704651,479
834.822998,464
834.941162,482
835.059448,495
835.177673,481
835.295959,511
835.414246,493
835.53241,488
835.650635,467
835.768921,484
835.887146,481
836.005371,467
836.123596,493
836.241821,477
836.360046,496
836.478271,468
836.596497,473
836.714722,491
836.832886,473
836.95105,486
837.069336,486
837.1875,470
837.305725,472
837.423889,477
837.542053,477
837.660339,492
837.778503,457
837.896667,472
838.014832,482
838.132996,487
838.25116,482
838.369385,480
838.487488,483
838.605713,492
838.723877,468
838.84198,470
838.960205,493
839.078308,479
839.196472,471
839.314636,482
839.4328,498
839.550964,502
839.669067,497
839.787231,501
839.905396,482
840.023499,513
840.141602,502
840.259766,524
840.377869,503
840.495972,525
840.614136,497
840.732239,508
840.850342,498
840.968445,503
841.086548,527
841.204651,522
841.322754,538
841.440918,519
841.55896,513
841.677002,507
841.795166,523
841.913208,530
842.031311,499
842.149353,529
842.267456,496
842.385498,527
842.503601,515
842.621643,520
842.739746,515
842.857788,481
842.97583,525
843.093933,519
843.211975,499
843.330017,504
843.44812,515
843.566101,511
843.684204,491
843.802246,525
843.920227,515
844.038269,509
844.156311,501
844.274292,508
844.392395,502
844.510376,484
844.628357,479
844.74646,509
844.864441,502
844.982422,502
845.100403,479
845.218384,500
845.336426,499
845.454468,510
845.572449,486
845.69043,516
845.808411,485
845.926453,504
846.044373,492
846.162354,510
846.280396,507
846.398315,504
846.516296,510
846.634216,510
846.752197,499
846.870178,515
846.988098,501
847.106079,520
847.22406,499
847.34198,507
847.4599,507
847.577881,510
847.695801,494
847.813782,514
847.931641,517
848.049561,508
848.167603,524
848.285461,485
848.403381,496
848.521362,497
848.639221,494
848.75708,493
848.875,501
848.99292,489
849.110901,502
849.22876,517
849.34668,524
849.464539,493
849.582458,507
849.700317,511
849.818176,510
849.936096,510
850.053955,505
850.171875,497
850.289673,531
850.407593,522
850.525452,513
850.643311,511
850.761169,497
850.878967,528
850.996887,513
851.114746,485
851.232544,487
851.350403,523
851.468262,488
851.58606,503
851.703979,508
851.821777,516
851.939636,510
852.057434,509
852.175232,498
852.293091,501
852.410889,499
852.528687,524
852.646545,509
852.764343,527
852.88208,527
852.999939,490
853.117676,512
853.235535,484
853.353271,505
853.471069,503
853.588928,504
853.706604,511
853.824402,497
853.9422,505
854.059998,493
854.177734,527
854.295532,497
854.413269,510
854.531006,479
854.648804,513
854.766541,501
854.884277,505
855.002014,492
855.119751,500
855.237549,506
855.355225,500
855.473022,487
855.590698,493
855.708435,517
855.826172,514
855.943848,526
856.061646,498
856.179321,506
856.296997,507
856.414795,509
856.53241,513
856.650085,544
856.767822,479
856.885559,517
857.003174,549
857.120911,502
857.238586,527
857.356201,512
857.473938,522
857.591614,524
857.709351,506
857.826965,521
857.944641,537
858.062317,530
858.179993,540
858.297668,515
858.415283,518
858.532959,519
858.650574,512
858.768188,516
858.885803,526
859.003479,534
859.121094,507
859.23877,515
859.356384,528
859.473999,527
859.591675,489
859.709229,505
859.826843,504
859.944458,495
860.062012,486
860.179626,515
860.297302,494
860.414856,493
860.532471,515
860.650024,520
860.767639,488
860.885193,503
861.002808,502
861.120361,522
861.237976,490
861.35553,503
861.473022,518
861.590698,489
861.708191,507
861.825745,515
861.943298,495
862.060852,474
862.178406,499
862.295959,480
862.413513,485
862.531006,490
862.64856,480
862.766113,497
862.883667,494
863.00116,487
863.118713,477
863.236206,463
863.353699,482
863.471252,494
863.588745,489
863.706177,480
863.82373,485
863.941162,494
864.058716,496
864.176208,484
864.29364,499
864.411194,482
864.528687,477
864.646118,498
864.763611,479
864.881042,496
864.998535,486
865.116028,487
865.233459,497
865.350891,501
865.468384,501
865.585754,488
865.703308,496
865.820679,483
865.938171,482
866.055542,495
866.173035,490
866.290466,482
866.407837,475
866.52533,471
866.6427,467
866.760071,477
866.877563,475
866.994934,483
867.112305,493
867.229736,515
867.347107,471
867.464539,475
867.58197,482
867.699341,501
867.81665,501
867.934082,501
868.051453,496
868.168823,486
868.286194,500
868.403564,486
868.520935,495
868.638306,495
868.755676,497
868.872986,488
868.990295,484
869.107727,503
869.225037,484
869.342346,483
869.459717,490
869.577026,489
869.694336,485
869.811707,499
869.929016,526
870.046326,482
870.163635,519
870.280945,495
870.398254,508
870.515564,524
870.632812,521
870.750183,487
870.867432,504
870.984741,518
871.102051,539
871.219299,533
871.336609,508
871.453918,527
871.571106,510
871.688416,545
871.805664,530
871.922852,525
872.040222,511
872.157471,508
872.274719,509
872.391968,514
872.509155,514
872.626465,520
872.743652,538
872.860962,514
872.978149,525
873.095337,515
873.212646,506
873.329834,517
873.44696,507
873.564209,509
873.681396,519
873.798645,487
873.915894,500
874.03302,519
874.150208,508
874.267456,505
874.384583,514
874.501831,512
874.618958,535
874.736145,518
874.853333,514
874.970459,503
875.087646,541
875.204834,521
875.32196,515
875.439148,520
875.556274,517
875.673401,510
875.790527,519
875.907715,492
876.024841,509
876.141968,506
876.259094,524
876.376282,499
876.493347,507
876.610474,513
876.7276,503
876.844727,498
876.961853,515
877.078918,509
877.195984,489
877.313171,480
877.430237,502
877.547302,493
877.664368,490
877.781433,505
877.898499,497
878.015625,495
878.13269,490
878.249695,522
878.366821,486
878.483887,486
878.600952,502
878.717957,480
878.834961,499
878.952087,501
879.069092,490
879.186157,500
879.303162,481
879.420227,476
879.537231,479
879.654236,498
879.77124,485
879.888306,469
880.005249,486
880.122314,472
880.239319,483
880.356323,486
880.473328,478
880.590271,486
880.707275,475
880.824341,493
880.941284,494
881.058228,486
881.175232,489
881.292236,480
881.40918,481
881.526123,449
881.643066,489
881.760071,485
881.877014,476
881.993958,493
882.11084,480
882.227783,459
882.344727,492
882.46167,478
882.578613,463
882.695618,467
882.812439,500
882.929382,485
883.046326,487
883.163208,476
883.280151,489
883.397034,470
883.513916,491
883.630798,471
883.747742,483
883.864563,485
883.981506,485
884.098389,472
884.21521,487
884.332153,491
884.448975,492
884.565796,500
884.682678,517
884.7995,513
884.916443,536
885.033264,526
885.150085,563
885.266968,559
885.383789,563
885.500671,569
885.617493,563
885.734314,534
885.851196,552
885.967896,556
886.084717,556
886.201599,562
886.318359,561
886.435181,546
886.552002,540
886.668762,552
886.785645,546
886.902344,549
887.019165,550
887.135925,543
887.252747,536
887.369446,510
887.486267,509
887.603027,524
887.719788,525
887.836548,514
887.953247,501
888.070068,507
888.186829,500
888.303528,498
888.420288,513
888.536987,484
888.653687,476
888.770447,474
888.887146,481
889.003967,469
889.120667,483
889.237305,476
889.354065,473
889.470703,474
889.587463,464
889.704163,471
889.820862,451
889.937561,455
890.054199,483
890.170837,464
890.287598,455
890.404236,460
890.520874,467
890.637634,458
890.754211,460
890.87085,463
890.987549,484
891.104187,474
891.220886,486
891.337463,471
891.454102,470
891.57074,471
891.687378,462
891.804077,465
891.920654,477
892.037231,470
892.15387,482
892.270447,485
892.387085,477
892.503723,482
892.6203,484
892.736877,470
892.853516,465
892.970032,486
893.08667,479
893.203186,466
893.319763,482
893.43634,501
893.552917,468
893.669556,486
893.786011,465
893.902588,471
894.019165,467
894.135681,462
894.252197,486
894.368835,476
894.485291,461
894.601868,474
894.718384,482
894.8349,460
894.951355,467
895.067932,457
895.184448,469
895.300964,478
895.417419,455
895.533936,472
895.650452,455
895.766907,471
895.883423,471
895.999878,473
896.116333,496
896.232849,476
896.349304,469
896.465759,459
896.582214,478
896.698669,448
896.815125,468
896.931641,465
897.048035,459
897.164551,469
897.280884,458
897.397339,469
897.513794,457
897.630249,461
897.746582,460
897.863098,463
897.979431,476
898.095886,488
898.212341,464
898.328674,480
898.445129,461
898.561462,484
898.677795,498
898.794312,468
898.910645,462
899.026978,461
899.143433,456
899.259766,461
899.37616,465
899.492493,457
899.608765,496
899.725159,476
899.841553,461
899.957947,480
900.07428,476
900.190552,469
900.306946,492
900.423157,477
900.53949,466
900.655884,484
900.772156,469
900.888489,482
901.004822,470
901.121033,482
901.237366,467
901.353699,459
901.46991,485
901.586304,456
901.702515,470
901.818787,492
901.93512,481
902.051331,489
902.167603,481
902.283875,478
902.400085,523
902.516418,497
902.632629,512
902.74884,506
902.865112,519
902.981384,490
903.097595,524
903.213867,501
903.330017,517
903.446289,521
903.5625,492
903.67865,485
903.794922,506
903.911072,493
904.027344,498
904.143494,485
904.259705,501
904.375916,470
904.492065,488
904.608215,470
904.724426,483
904.840576,482
904.956726,467
905.072876,473
905.189087,478
905.305176,468
905.421387,488
905.537537,462
905.653687,480
905.769775,495
905.885925,471
906.002014,459
906.118164,470
906.234314,478
906.350403,475
906.466492,477
906.582642,447
906.69873,468
906.814758,468
906.930908,465
907.046936,457
907.163086,464
907.279175,475
907.395264,468
907.511353,446
907.62738,443
907.743408,485
907.859497,469
907.975525,481
908.091553,470
908.207703,460
908.32373,476
908.439758,483
908.555786,480
908.671814,470
908.787842,457
908.90387,468
909.019775,473
909.135864,484
909.251892,475
909.367859,468
909.483826,470
909.599854,496
909.715881,481
909.831848,471
909.947815,471
910.063782,474
910.179749,493
910.295776,473
910.411743,468
910.527649,467
910.643616,438
910.759583,470
910.875488,462
910.991455,453
911.107361,457
911.223267,456
911.339294,475
911.4552,453
911.571106,468
911.687073,480
911.802979,451
911.918823,481
912.034729,471
912.150635,446
912.266602,450
912.382446,452
912.498352,477
912.614197,469
912.730103,477
912.846008,462
792.44574,904
792.56488,955
792.68396,965
792.80304,947
792.92218,864
793.041199,824
793.160339,830
793.279419,820
793.398499,820
793.517578,794
793.636658,767
793.755737,786
793.874817,786
793.993896,788
794.112976,764
794.232056,756
794.351074,721
794.470215,747
794.589233,710
794.708313,704
794.827393,738
794.946411,696
795.065552,738
795.18457,729
795.303589,692
795.422668,724
795.541687,702
795.660767,676
795.779846,671
795.898865,658
796.017883,681
796.136963,643
796.255981,687
796.375061,667
796.49408,638
796.613037,656
796.732117,664
796.851135,654
796.970154,641
797.089233,611
797.208191,635
797.327271,658
797.446228,634
797.565186,615
797.684265,611
797.803223,629
797.922241,612
798.04126,616
798.160278,606
798.279297,624
798.398315,604
798.517273,607
798.636292,586
798.75531,593
798.874268,607
798.993286,598
799.112244,583
799.231323,592
799.350281,624
799.469238,573
799.588257,594
799.707153,581
799.826111,608
799.945129,589
800.064087,593
800.183044,599
800.302063,588
800.421021,610
800.539978,594
800.658936,593
800.777893,588
800.896912,575
801.015747,559
801.134705,601
801.253723,571
801.37262,533
801.491638,557
801.610535,573
801.729492,583
801.84845,568
801.967407,558
802.086243,560
802.205261,578
802.324158,560
802.443115,553
802.562073,560
802.680969,577
802.799927,561
802.918762,567
803.037659,538
803.156677,558
803.275574,567
803.39447,555
803.513428,575
803.632263,571
803.751221,562
803.870117,532
803.989014,532
804.107971,550
804.226746,558
804.345642,557
804.4646,545
804.583496,554
804.702393,548
804.821228,552
804.940125,560
805.059021,543
805.177917,563
805.296814,528
805.415649,541
805.534546,551
805.653442,533
805.772278,541
805.891113,545
806.01001,560
806.128906,557
806.247742,540
806.366577,561
806.485413,564
806.604309,556
806.723145,551
806.84198,549
806.960876,565
807.079712,542
807.198486,561
807.317383,543
807.436218,551
807.554993,557
807.673889,537
807.792725,522
807.91156,522
808.030396,544
808.14917,529
808.268005,539
808.386841,539
808.505676,546
808.624451,537
808.743286,522
808.862122,555
808.980896,552
809.099731,533
809.218506,516
809.337341,519
809.456116,551
809.57489,537
809.693726,521
809.8125,535
809.931274,521
810.050049,539
810.168884,527
810.287659,532
810.406372,540
810.525269,553
810.643982,545
810.762756,510
810.881531,539
811.000305,521
811.11908,528
811.237854,541
811.356567,515
811.475403,525
811.594116,546
811.71283,543
811.831604,531
811.950378,520
812.069153,534
812.187927,559
812.30658,555
812.425415,543
812.544128,572
812.662781,528
812.781616,535
812.900269,543
813.019043,521
813.137756,547
813.256531,545
813.375244,539
813.493896,540
813.612671,543
813.731384,545
813.850037,510
813.96875,509
814.087524,540
814.206238,522
814.324951,536
814.443604,522
814.562256,530
814.68103,522
814.799683,548
814.918335,529
815.037109,528
815.155762,520
815.274475,530
815.393188,536
815.511841,533
815.630554,530
815.749146,531
815.867859,514
815.986572,536
816.105164,541
816.223877,538
816.342529,500
816.461182,530
816.579895,541
816.698486,541
816.817139,522
816.935791,524
817.054504,524
817.173096,522
817.291748,513
817.4104,527
817.529053,521
817.647644,540
817.766235,501
817.884949,527
818.00354,517
818.122192,516
818.240845,522
818.359436,529
818.478088,513
818.59668,518
818.715271,529
818.833923,515
818.952515,508
819.071106,497
819.189758,506
819.30835,521
819.426941,498
819.545532,519
819.664124,509
819.782715,503
819.901306,502
820.019897,491
820.138489,494
820.25708,522
820.375671,491
820.494202,502
820.612732,495
820.731384,506
820.849915,531
820.968506,504
821.087097,508
821.205627,506
821.324158,479
821.442749,496
821.561279,473
821.679871,495
821.798401,467
821.916931,512
822.035461,487
822.154053,477
822.272583,519
822.391174,497
822.509583,499
822.628174,499
822.746704,511
822.865234,491
822.983765,482
823.102295,484
823.220825,502
823.339294,488
823.457825,497
823.576355,496
823.694824,497
823.813354,508
823.931885,493
824.050354,503
824.168884,500
824.287354,482
824.405823,497
824.524353,497
824.642822,512
824.761353,511
824.879822,467
824.998291,507
825.116699,484
825.235291,490
825.353699,486
825.472168,490
825.590637,487
825.709106,492
825.827576,481
825.946045,501
826.064453,471
826.182983,491
826.301392,465
826.4198,497
826.53833,462
826.656738,490
826.775208,460
826.893677,481
827.012024,461
827.130493,498
827.248962,471
827.36731,492
827.485779,485
827.604248,495
827.722595,472
827.841064,485
827.959412,497
828.077942,467
828.196289,497
828.314636,479
828.433105,475
828.551514,483
828.669861,466
828.78833,499
828.906677,478
829.025085,482
829.143433,458
829.261841,492
829.38031,479
829.498657,486
829.617004,485
829.735413,486
829.85376,468
829.972107,495
830.090515,478
830.208862,471
830.327209,483
830.445557,479
830.563904,498
830.682312,490
830.800659,483
830.919006,489
831.037354,460
831.155701,490
831.274048,481
831.392395,501
831.51062,471
831.629028,466
831.747314,488
831.865662,488
831.984009,491
832.102356,501
832.220642,485
832.338928,504
832.457275,502
832.575623,485
832.693909,482
832.812134,498
832.930481,477
833.048828,468
833.167114,482
833.2854,488
833.403687,501
833.521973,483
833.640259,486
833.758545,502
833.876831,492
833.995056,478
834.113281,464
834.231628,493
834.349915,480
834.468201,478
834.586426,490
834.704651,495
834.822998,495
834.941162,491
835.059448,474
835.177673,468
835.295959,477
835.414246,500
835.53241,464
835.650635,469
835.768921,482
835.887146,501
836.005371,485
836.123596,488
836.241821,486
836.360046,483
836.478271,493
836.596497,483
836.714722,464
836.832886,473
836.95105,464
837.069336,481
837.1875,461
837.305725,474
837.423889,470
837.542053,475
837.660339,483
837.778503,471
837.896667,471
838.014832,484
838.132996,484
838.25116,512
838.369385,498
838.487488,483
838.605713,497
838.723877,489
838.84198,501
838.960205,490
839.078308,488
839.196472,488
839.314636,484
839.4328,469
839.550964,470
839.669067,486
839.787231,484
839.905396,510
840.023499,498
840.141602,515
840.259766,529
840.377869,518
840.495972,495
840.614136,504
840.732239,508
840.850342,499
840.968445,514
841.086548,499
841.204651,499
841.322754,517
841.440918,524
841.55896,506
841.677002,512
841.795166,534
841.913208,536
842.031311,518
842.149353,533
842.267456,510
842.385498,494
842.503601,521
842.621643,510
842.739746,514
842.857788,504
842.97583,521
843.093933,503
843.211975,541
843.330017,500
843.44812,521
843.566101,491
843.684204,490
843.802246,517
843.920227,500
844.038269,486
844.156311,489
844.274292,518
844.392395,496
844.510376,517
844.628357,518
844.74646,499
844.864441,495
844.982422,482
845.100403,515
845.218384,508
845.336426,497
845.454468,498
845.572449,484
845.69043,493
845.808411,500
845.926453,500
846.044373,500
846.162354,492
846.280396,512
846.398315,511
846.516296,515
846.634216,528
846.752197,499
846.870178,496
846.988098,488
847.106079,519
847.22406,503
847.34198,517
847.4599,495
847.577881,500
847.695801,510
847.813782,523
847.931641,494
848.049561,501
848.167603,492
848.285461,501
848.403381,514
848.521362,507
848.639221,514
848.75708,496
848.875,517
848.99292,497
849.110901,522
849.22876,502
849.34668,501
849.464539,496
849.582458,530
849.700317,489
849.818176,519
849.936096,516
850.053955,508
850.171875,503
850.289673,527
850.407593,487
850.525452,519
850.643311,511
850.761169,502
850.878967,500
850.996887,507
851.114746,501
851.232544,509
851.350403,500
851.468262,495
851.58606,518
851.703979,492
851.821777,507
851.939636,502
852.057434,513
852.175232,521
852.293091,508
852.410889,506
852.528687,508
852.646545,520
852.764343,542
852.88208,534
852.999939,492
853.117676,512
853.235535,494
853.353271,494
853.471069,505
853.588928,485
853.706604,495
853.824402,510
853.9422,495
854.059998,496
854.177734,500
854.295532,498
854.413269,498
854.531006,494
854.648804,505
854.766541,514
854.884277,504
855.002014,518
855.119751,509
855.237549,487
855.355225,495
855.473022,504
855.590698,508
855.708435,504
855.826172,524
855.943848,513
856.061646,502
856.179321,519
856.296997,511
856.414795,509
856.53241,520
856.650085,519
856.767822,504
856.885559,533
857.003174,504
857.120911,530
857.238586,531
857.356201,545
857.473938,514
857.591614,525
857.709351,521
857.826965,502
857.944641,537
858.062317,525
858.179993,531
858.297668,506
858.415283,495
858.532959,521
858.650574,506
858.768188,530
858.885803,514
859.003479,497
859.121094,520
859.23877,530
859.356384,513
859.473999,506
859.591675,498
859.709229,506
859.826843,496
859.944458,501
860.062012,488
860.179626,500
860.297302,485
860.414856,499
860.532471,520
860.650024,512
860.767639,503
860.885193,502
861.002808,513
861.120361,482
861.237976,514
861.35553,523
861.473022,482
861.590698,501
861.708191,490
861.825745,504
861.943298,501
862.060852,490
862.178406,487
862.295959,487
862.413513,500
862.531006,478
862.64856,475
862.766113,483
862.883667,479
863.00116,504
863.118713,498
863.236206,477
863.353699,490
863.471252,480
863.588745,498
863.706177,485
863.82373,500
863.941162,495
864.058716,510
864.176208,498
864.29364,495
864.411194,504
864.528687,472
864.646118,491
864.763611,473
864.881042,478
864.998535,486
865.116028,481
865.233459,461
865.350891,494
865.468384,484
865.585754,491
865.703308,481
865.820679,482
865.938171,477
866.055542,490
866.173035,465
866.290466,492
866.407837,506
866.52533,479
866.6427,486
866.760071,493
866.877563,475
866.994934,496
867.112305,496
867.229736,494
867.347107,477
867.464539,494
867.58197,466
867.699341,485
867.81665,503
867.934082,502
868.051453,506
868.168823,480
868.286194,495
868.403564,482
868.520935,480
868.638306,497
868.755676,491
868.872986,488
868.990295,505
869.107727,490
869.225037,479
869.342346,509
869.459717,497
869.577026,486
869.694336,513
869.811707,502
869.929016,513
870.046326,523
870.163635,502
870.280945,508
870.398254,518
870.515564,520
870.632812,516
870.750183,513
870.867432,516
870.984741,515
871.102051,494
871.219299,518
871.336609,539
871.453918,500
871.571106,533
871.688416,522
871.805664,513
871.922852,519
872.040222,518
872.157471,513
872.274719,544
872.391968,531
872.509155,539
872.626465,545
872.743652,513
872.860962,531
872.978149,544
873.095337,515
873.212646,527
873.329834,513
873.44696,508
873.564209,513
873.681396,511
873.798645,523
873.915894,497
874.03302,517
874.150208,525
874.267456,514
874.384583,509
874.501831,530
874.618958,514
874.736145,533
874.853333,530
874.970459,544
875.087646,516
875.204834,521
875.32196,533
875.439148,500
875.556274,513
875.673401,496
875.790527,506
875.907715,510
876.024841,500
876.141968,532
876.259094,498
876.376282,512
876.493347,495
876.610474,523
876.7276,511
876.844727,496
876.961853,504
877.078918,491
877.195984,500
877.313171,482
877.430237,506
877.547302,507
877.664368,504
877.781433,502
877.898499,486
878.015625,486
878.13269,486
878.249695,519
878.366821,479
878.483887,481
878.600952,486
878.717957,491
878.834961,483
878.952087,495
879.069092,485
879.186157,521
879.303162,479
879.420227,497
879.537231,485
879.654236,467
879.77124,457
879.888306,482
880.005249,486
880.122314,482
880.239319,484
880.356323,477
880.473328,495
880.590271,505
880.707275,483
880.824341,485
880.941284,461
881.058228,484
881.175232,485
881.292236,471
881.40918,476
881.526123,478
881.643066,470
881.760071,502
881.877014,450
881.993958,484
882.11084,461
882.227783,473
882.344727,490
882.46167,490
882.578613,474
882.695618,486
882.812439,480
882.929382,471
883.046326,477
883.163208,467
883.280151,479
883.397034,500
883.513916,462
883.630798,478
883.747742,468
883.864563,506
883.981506,507
884.098389,493
884.21521,486
884.332153,490
884.448975,485
884.565796,505
884.682678,492
884.7995,518
884.916443,533
885.033264,533
885.150085,519
885.266968,564
885.383789,547
885.500671,571
885.617493,553
885.734314,572
885.851196,570
885.967896,558
886.084717,562
886.201599,580
886.318359,563
886.435181,513
886.552002,562
886.668762,550
886.785645,551
886.902344,531
887.019165,527
887.135925,539
887.252747,531
887.369446,531
887.486267,517
887.603027,543
887.719788,499
887.836548,526
887.953247,514
888.070068,492
888.186829,491
888.303528,496
888.420288,497
888.536987,483
888.653687,484
888.770447,496
888.887146,469
889.003967,459
889.120667,482
889.237305,472
889.354065,476
889.470703,488
889.587463,462
889.704163,476
889.820862,460
889.937561,476
890.054199,468
890.170837,464
890.287598,469
890.404236,478
890.520874,453
890.637634,468
890.754211,484
890.87085,485
890.987549,469
891.104187,490
891.220886,481
891.337463,475
891.454102,473
891.57074,467
891.687378,476
891.804077,471
891.920654,469
892.037231,494
892.15387,466
892.270447,479
892.387085,477
892.503723,469
892.6203,487
892.736877,483
892.853516,481
892.970032,469
893.08667,466
893.203186,464
893.319763,472
893.43634,454
893.552917,482
893.669556,476
893.786011,475
893.902588,486
894.019165,489
894.135681,483
894.252197,474
894.368835,478
894.485291,466
894.601868,470
894.718384,466
894.8349,474
894.951355,460
895.067932,465
895.184448,467
895.300964,463
895.417419,452
895.533936,477
895.650452,454
895.766907,482
895.883423,456
895.999878,473
896.116333,477
896.232849,475
896.349304,475
896.465759,469
896.582214,469
896.698669,470
896.815125,478
896.931641,467
897.048035,478
897.164551,484
897.280884,473
897.397339,477
897.513794,473
897.630249,465
897.746582,464
897.863098,484
897.979431,458
898.095886,471
898.212341,467
898.328674,479
898.445129,457
898.561462,458
898.677795,484
898.794312,467
898.910645,481
899.026978,474
899.143433,465
899.259766,494
899.37616,455
899.492493,472
899.608765,486
899.725159,476
899.841553,462
899.957947,497
900.07428,473
900.190552,468
900.306946,479
900.423157,476
900.53949,473
900.655884,469
900.772156,472
900.888489,493
901.004822,461
901.121033,488
901.237366,478
901.353699,462
901.46991,479
901.586304,490
901.702515,501
901.818787,502
901.93512,493
902.051331,482
902.167603,505
902.283875,506
902.400085,491
902.516418,504
902.632629,494
902.74884,546
902.865112,525
902.981384,511
903.097595,517
903.213867,491
903.330017,509
903.446289,526
903.5625,509
903.67865,511
903.794922,516
903.911072,518
904.027344,506
904.143494,493
904.259705,501
904.375916,503
904.492065,494
904.608215,481
904.724426,487
904.840576,501
904.956726,480
905.072876,506
905.189087,481
905.305176,468
905.421387,469
905.537537,463
905.653687,468
905.769775,467
905.885925,464
906.002014,479
906.118164,452
906.234314,475
906.350403,476
906.466492,471
906.582642,464
906.69873,469
906.814758,478
906.930908,491
907.046936,460
907.163086,475
907.279175,463
907.395264,475
907.511353,462
907.62738,457
907.743408,484
907.859497,467
907.975525,474
908.091553,463
908.207703,472
908.32373,466
908.439758,472
908.555786,477
908.671814,483
908.787842,481
908.90387,452
909.019775,475
909.135864,451
909.251892,474
909.367859,462
909.483826,472
909.599854,461
909.715881,475
909.831848,460
909.947815,468
910.063782,474
910.179749,468
910.295776,487
910.411743,483
910.527649,470
910.643616,469
910.759583,481
910.875488,485
910.991455,462
911.107361,466
911.223267,475
911.339294,470
911.4552,445
911.571106,470
911.687073,458
911.802979,474
911.918823,479
912.034729,470
912.150635,471
912.266602,483
912.382446,465
912.498352,473
912.614197,461
912.730103,452
912.846008,459
792.44574,924
792.56488,949
792.68396,948
792.80304,934
792.92218,849
793.041199,857
793.160339,811
793.279419,840
793.398499,832
793.517578,800
793.636658,788
793.755737,780
793.874817,793
793.993896,744
794.112976,772
794.232056,757
794.351074,709
794.470215,713
794.589233,725
794.708313,706
794.827393,685
794.946411,712
795.065552,711
795.18457,694
795.303589,704
795.422668,668
795.541687,669
795.660767,675
795.779846,668
795.898865,669
796.017883,666
796.136963,674
796.255981,664
796.375061,678
796.49408,654
796.613037,647
796.732117,644
796.851135,644
796.970154,626
797.089233,642
797.208191,614
797.327271,639
797.446228,625
797.565186,618
797.684265,602
797.803223,602
797.922241,629
798.04126,604
798.160278,629
798.279297,603
798.398315,601
798.517273,602
798.636292,600
798.75531,589
798.874268,594
798.993286,587
799.112244,611
799.231323,595
799.350281,607
799.469238,589
799.588257,603
799.707153,593
799.826111,592
799.945129,600
800.064087,576
800.183044,594
800.302063,576
800.421021,584
800.539978,577
800.658936,559
800.777893,582
800.896912,581
801.015747,581
801.134705,574
801.253723,567
801.37262,590
801.491638,567
801.610535,570
801.729492,569
801.84845,559
801.967407,562
802.086243,574
802.205261,578
802.324158,569
802.443115,571
802.562073,538
802.680969,566
802.799927,578
802.918762,586
803.037659,568
803.156677,561
803.275574,557
803.39447,566
803.513428,550
803.632263,560
803.751221,570
803.870117,564
803.989014,568
804.107971,546
804.226746,563
804.345642,549
804.4646,559
804.583496,538
804.702393,544
804.821228,554
804.940125,531
805.059021,566
805.177917,540
805.296814,540
805.415649,550
805.534546,522
805.653442,523
805.772278,543
805.891113,539
806.01001,558
806.128906,529
806.247742,545
806.366577,547
806.485413,557
806.604309,548
806.723145,547
806.84198,532
806.960876,550
807.079712,531
807.198486,515
807.317383,512
807.436218,535
807.554993,538
807.673889,553
807.792725,537
807.91156,525
808.030396,528
808.14917,537
808.268005,540
808.386841,530
808.505676,521
808.624451,545
808.743286,509
808.862122,547
808.980896,539
809.099731,518
809.218506,528
809.337341,532
809.456116,541
809.57489,558
809.693726,520
809.8125,529
809.931274,529
810.050049,535
810.168884,536
810.287659,535
810.406372,517
810.525269,524
810.643982,528
810.762756,513
810.881531,525
811.000305,523
811.11908,555
811.237854,536
811.356567,522
811.475403,531
811.594116,534
811.71283,529
811.831604,527
811.950378,544
812.069153,527
812.187927,542
812.30658,526
812.425415,548
812.544128,539
812.662781,547
812.781616,552
812.900269,520
813.019043,543
813.137756,538
813.256531,536
813.375244,521
813.493896,519
813.612671,534
813.731384,513
813.850037,506
813.96875,523
814.087524,547
814.206238,512
814.324951,528
814.443604,522
814.562256,531
814.68103,520
814.799683,532
814.918335,529
815.037109,522
815.155762,519
815.274475,550
815.393188,539
815.511841,525
815.630554,528
815.749146,505
815.867859,519
815.986572,536
816.105164,537
816.223877,518
816.342529,531
816.461182,525
816.579895,527
816.698486,529
816.817139,526
816.935791,557
817.054504,539
817.173096,541
817.291748,514
817.4104,533
817.529053,535
817.647644,519
817.766235,524
817.884949,519
818.00354,517
818.122192,528
818.240845,509
818.359436,511
818.478088,509
818.59668,523
818.715271,491
818.833923,513
818.952515,518
819.071106,492
819.189758,492
819.30835,509
819.426941,516
819.545532,496
819.664124,509
819.782715,499
819.901306,491
820.019897,493
820.138489,496
820.25708,488
820.375671,502
820.494202,506
820.612732,482
820.731384,503
820.849915,498
820.968506,524
821.087097,516
821.205627,502
821.324158,500
821.442749,501
821.561279,487
821.679871,518
821.798401,488
821.916931,499
822.035461,480
822.154053,471
822.272583,489
822.391174,497
822.509583,519
822.628174,476
822.746704,492
822.865234,480
822.983765,482
823.102295,478
823.220825,473
823.339294,487
823.457825,496
823.576355,481
823.694824,478
823.813354,485
823.931885,506
824.050354,494
824.168884,484
824.287354,463
824.405823,495
824.524353,473
824.642822,489
824.761353,490
824.879822,485
824.998291,480
825.116699,464
825.235291,480
825.353699,476
825.472168,497
825.590637,498
825.709106,485
825.827576,490
825.946045,488
826.064453,480
826.182983,484
826.301392,481
826.4198,484
826.53833,474
826.656738,498
826.775208,494
826.893677,469
827.012024,499
827.130493,478
827.248962,476
827.36731,497
827.485779,484
827.604248,490
827.722595,474
827.841064,461
827.959412,475
828.077942,493
828.196289,474
828.314636,480
828.433105,483
828.551514,472
828.669861,503
828.78833,472
828.906677,485
829.025085,489
829.143433,474
829.261841,485
829.38031,499
829.498657,471
829.617004,485
829.735413,483
829.85376,469
829.972107,483
830.090515,489
830.208862,498
830.327209,471
830.445557,506
830.563904,486
830.682312,489
830.800659,487
830.919006,486
831.037354,484
831.155701,485
831.274048,496
831.392395,484
831.51062,483
831.629028,478
831.747314,470
831.865662,487
831.984009,493
832.102356,474
832.220642,483
832.338928,484
832.457275,485
832.575623,490
832.693909,465
832.812134,483
832.930481,459
833.048828,480
833.167114,496
833.2854,482
833.403687,492
833.521973,474
833.640259,485
833.758545,482
833.876831,485
833.995056,485
834.113281,489
834.231628,498
834.349915,475
834.468201,473
834.586426,472
834.704651,487
834.822998,486
834.941162,482
835.059448,469
835.177673,476
835.295959,496
835.414246,493
835.53241,491
835.650635,503
835.768921,474
835.887146,477
836.005371,468
836.123596,500
836.241821,473
836.360046,473
836.478271,461
836.596497,469
836.714722,458
836.832886,492
836.95105,462
837.069336,481
837.1875,487
837.305725,482
837.423889,468
837.542053,480
837.660339,477
837.778503,472
837.896667,496
838.014832,504
838.132996,473
838.25116,470
838.369385,484
838.487488,468
838.605713,486
838.723877,488
838.84198,497
838.960205,491
839.078308,480
839.196472,467
839.314636,486
839.4328,502
839.550964,479
839.669067,517
839.787231,489
839.905396,480
840.023499,503
840.141602,497
840.259766,525
840.377869,505
840.495972,520
840.614136,506
840.732239,492
840.850342,514
840.968445,523
841.086548,489
841.204651,514
841.322754,517
841.440918,526
841.55896,518
841.677002,540
841.795166,517
841.913208,489
842.031311,514
842.149353,529
842.267456,527
842.385498,511
842.503601,521
842.621643,477
842.739746,535
842.857788,510
842.97583,514
843.093933,514
843.211975,504
843.330017,510
843.44812,524
843.566101,485
843.684204,508
843.802246,489
843.920227,519
844.038269,505
844.156311,518
844.274292,518
844.392395,507
844.510376,491
844.628357,509
844.74646,501
844.864441,499
844.982422,496
845.100403,502
845.218384,473
845.336426,486
845.454468,506
845.572449,509
845.69043,501
845.808411,498
845.926453,498
846.044373,514
846.162354,494
846.280396,505
846.398315,497
846.516296,528
846.634216,487
846.752197,485
846.870178,503
846.988098,529
847.106079,516
847.22406,508
847.34198,496
847.4599,506
847.577881,507
847.695801,501
847.813782,506
847.931641,526
848.049561,480
848.167603,502
848.285461,495
848.403381,522
848.521362,481
848.639221,507
848.75708,502
848.875,510
848.99292,521
849.110901,496
849.22876,468
849.34668,526
849.464539,510
849.582458,493
849.700317,494
849.818176,515
849.936096,498
850.053955,510
850.171875,515
850.289673,497
850.407593,492
850.525452,487
850.643311,493
850.761169,497
850.878967,517
850.996887,499
851.114746,488
851.232544,509
851.350403,508
851.468262,511
851.58606,497
851.703979,511
851.821777,491
851.939636,492
852.057434,489
852.175232,532
852.293091,476
852.410889,506
852.528687,505
852.646545,519
852.764343,503
852.88208,520
852.999939,516
853.117676,478
853.235535,517
853.353271,505
853.471069,500
853.588928,503
853.706604,488
853.824402,519
853.9422,464
854.059998,493
854.177734,483
854.295532,505
854.413269,502
854.531006,514
854.648804,514
854.766541,515
854.884277,517
855.002014,515
855.119751,496
855.237549,511
855.355225,509
855.473022,494
855.590698,511
855.708435,505
855.826172,513
855.943848,494
856.061646,510
856.179321,505
856.296997,506
856.414795,514
856.53241,494
856.650085,511
856.767822,511
856.885559,527
857.003174,516
857.120911,521
857.238586,518
857.356201,553
857.473938,519
857.591614,506
857.709351,510
857.826965,505
857.944641,518
858.062317,524
858.179993,509
858.297668,515
858.415283,502
858.532959,524
858.650574,530
858.768188,512
858.885803,515
859.003479,530
859.121094,524
859.23877,520
859.356384,517
859.473999,526
859.591675,487
859.709229,505
859.826843,475
859.944458,519
860.062012,506
860.179626,506
860.297302,486
860.414856,512
860.532471,508
860.650024,502
860.767639,511
860.885193,510
861.002808,488
861.120361,502
861.237976,496
861.35553,495
861.473022,471
861.590698,499
861.708191,485
861.825745,510
861.943298,503
862.060852,500
862.178406,479
862.295959,492
862.413513,475
862.531006,475
862.64856,483
862.766113,488
862.883667,480
863.00116,494
863.118713,489
863.236206,502
863.353699,482
863.471252,484
863.588745,506
863.706177,495
863.82373,502
863.941162,502
864.058716,490
864.176208,496
864.29364,499
864.411194,480
864.528687,489
864.646118,503
864.763611,486
864.881042,474
864.998535,483
865.116028,488
865.233459,492
865.350891,494
865.468384,503
865.585754,470
865.703308,497
865.820679,494
865.938171,502
866.055542,493
866.173035,476
866.290466,494
866.407837,488
866.52533,478
866.6427,487
866.760071,483
866.877563,483
866.994934,481
867.112305,465
867.229736,492
867.347107,502
867.464539,479
867.58197,491
867.699341,496
867.81665,488
867.934082,518
868.051453,488
868.168823,495
868.286194,483
868.403564,495
868.520935,500
868.638306,490
868.755676,476
868.872986,513
868.990295,501
869.107727,502
869.225037,472
869.342346,502
869.459717,504
869.577026,496
869.694336,480
869.811707,483
869.929016,495
870.046326,493
870.163635,498
870.280945,530
870.398254,509
870.515564,499
870.632812,514
870.750183,509
870.867432,491
870.984741,523
871.102051,528
871.219299,543
871.336609,528
871.453918,532
871.571106,524
871.688416,525
871.805664,516
871.922852,541
872.040222,513
872.157471,524
872.274719,518
872.391968,515
872.509155,533
872.626465,544
872.743652,513
872.860962,518
872.978149,517
873.095337,529
873.212646,513
873.329834,534
873.44696,513
873.564209,513
873.681396,510
873.798645,503
873.915894,483
874.03302,503
874.150208,527
874.267456,502
874.384583,521
874.501831,539
874.618958,526
874.736145,529
874.853333,517
874.970459,525
875.087646,531
875.204834,501
875.32196,513
875.439148,528
875.556274,515
875.673401,508
875.790527,505
875.907715,528
876.024841,502
876.141968,512
876.259094,499
876.376282,498
876.493347,487
876.610474,497
876.7276,520
876.844727,513
876.961853,482
877.078918,520
877.195984,495
877.313171,487
877.430237,497
877.547302,497
877.664368,515
877.781433,495
877.898499,502
878.015625,514
878.13269,493
878.249695,503
878.366821,511
878.483887,498
878.600952,506
878.717957,476
878.834961,460
878.952087,484
879.069092,499
879.186157,478
879.303162,497
879.420227,488
879.537231,488
879.654236,492
879.77124,490
879.888306,478
880.005249,494
880.122314,494
880.239319,478
880.356323,480
880.473328,475
880.590271,492
880.707275,495
880.824341,484
880.941284,463
881.058228,508
881.175232,490
881.292236,484
881.40918,475
881.526123,486
881.643066,495
881.760071,489
881.877014,474
881.993958,472
882.11084,474
882.227783,498
882.344727,469
882.46167,480
882.578613,478
882.695618,486
882.812439,462
882.929382,477
883.046326,467
883.163208,488
883.280151,464
883.397034,490
883.513916,499
883.630798,482
883.747742,495
883.864563,494
883.981506,486
884.098389,451
884.21521,494
884.332153,517
884.448975,488
884.565796,514
884.682678,530
884.7995,519
884.916443,535
885.033264,537
885.150085,559
885.266968,574
885.383789,553
885.500671,564
885.617493,558
885.734314,556
885.851196,562
885.967896,578
886.084717,550
886.201599,565
886.318359,542
886.435181,547
886.552002,546
886.668762,558
886.785645,543
886.902344,526
887.019165,549
887.135925,545
887.252747,551
887.369446,531
887.486267,525
887.603027,539
887.719788,496
887.836548,502
887.953247,519
888.070068,520
888.186829,487
888.303528,496
888.420288,480
888.536987,488
888.653687,493
888.770447,489
888.887146,477
889.003967,468
889.120667,458
889.237305,479
889.354065,487
889.470703,492
889.587463,483
889.704163,482
889.820862,471
889.937561,484
890.054199,469
890.170837,467
890.287598,476
890.404236,486
890.520874,458
890.637634,473
890.754211,476
890.87085,484
890.987549,451
891.104187,469
891.220886,473
891.337463,494
891.454102,484
891.57074,490
891.687378,454
891.804077,478
891.920654,501
892.037231,475
892.15387,488
892.270447,467
892.387085,455
892.503723,489
892.6203,460
892.736877,481
892.853516,470
892.970032,465
893.08667,480
893.203186,483
893.319763,469
893.43634,485
893.552917,460
893.669556,463
893.786011,472
893.902588,470
894.019165,485
894.135681,475
894.252197,462
894.368835,468
894.485291,467
894.601868,458
894.718384,471
894.8349,467
894.951355,466
895.067932,456
895.184448,458
895.300964,459
895.417419,465
895.533936,453
895.650452,444
895.766907,474
895.883423,454
895.999878,460
896.116333,458
896.232849,466
896.349304,462
896.465759,463
896.582214,457
896.698669,485
896.815125,459
896.931641,461
897.048035,475
897.164551,483
897.280884,468
897.397339,472
897.513794,453
897.630249,479
897.746582,471
897.863098,478
897.979431,471
898.095886,473
898.212341,469
898.328674,495
898.445129,465
898.561462,496
898.677795,468
898.794312,473
898.910645,472
899.026978,479
899.143433,490
899.259766,466
899.37616,460
899.492493,481
899.608765,469
899.725159,474
899.841553,474
899.957947,447
900.07428,479
900.190552,494
900.306946,462
900.423157,473
900.53949,476
900.655884,465
900.772156,484
900.888489,491
901.004822,485
901.121033,479
901.237366,482
901.353699,494
901.46991,473
901.586304,489
901.702515,477
901.818787,502
901.93512,491
902.051331,516
902.167603,506
902.283875,495
902.400085,496
902.516418,513
902.632629,507
902.74884,509
902.865112,528
902.981384,510
903.097595,531
903.213867,501
903.330017,521
903.446289,524
903.5625,518
903.67865,488
903.794922,493
903.911072,512
904.027344,518
904.143494,496
904.259705,494
904.375916,504
904.492065,484
904.608215,481
904.724426,491
904.840576,501
904.956726,480
905.072876,482
905.189087,456
905.305176,493
905.421387,461
905.537537,493
905.653687,473
905.769775,485
905.885925,468
906.002014,460
906.118164,454
906.234314,492
906.350403,481
906.466492,482
906.582642,466
906.69873,472
906.814758,457
906.930908,456
907.046936,477
907.163086,468
907.279175,475
907.395264,463
907.511353,467
907.62738,464
907.743408,462
907.859497,462
907.975525,475
908.091553,472
908.207703,458
908.32373,480
908.439758,463
908.555786,479
908.671814,465
908.787842,468
908.90387,469
909.019775,445
909.135864,481
909.251892,478
909.367859,488
909.483826,474
909.599854,461
909.715881,468
909.831848,451
909.947815,481
910.063782,480
910.179749,471
910.295776,457
910.411743,489
910.527649,497
910.643616,475
910.759583,466
910.875488,462
910.991455,461
911.107361,487
911.223267,497
911.339294,454
911.4552,468
911.571106,478
911.687073,459
911.802979,479
911.918823,449
912.034729,481
912.150635,465
912.266602,478
912.382446,475
912.498352,470
912.614197,455
912.730103,483
912.846008,468
