792.44574,635
792.56488,634
792.68396,683
792.80304,653
792.92218,614
793.041199,599
793.160339,602
793.279419,601
793.398499,606
793.517578,579
793.636658,602
793.755737,635
793.874817,631
793.993896,628
794.112976,600
794.232056,620
794.351074,593
794.470215,608
794.589233,606
794.708313,599
794.827393,598
794.946411,583
795.065552,597
795.18457,576
795.303589,587
795.422668,585
795.541687,591
795.660767,591
795.779846,608
795.898865,576
796.017883,574
796.136963,595
796.255981,582
796.375061,564
796.49408,579
796.613037,579
796.732117,590
796.851135,597
796.970154,578
797.089233,569
797.208191,587
797.327271,581
797.446228,564
797.565186,565
797.684265,601
797.803223,561
797.922241,569
798.04126,563
798.160278,599
798.279297,565
798.398315,594
798.517273,584
798.636292,575
798.75531,592
798.874268,600
798.993286,576
799.112244,599
799.231323,586
799.350281,585
799.469238,579
799.588257,583
799.707153,575
799.826111,579
799.945129,568
800.064087,592
800.183044,587
800.302063,596
800.421021,593
800.539978,583
800.658936,574
800.777893,600
800.896912,566
801.015747,572
801.134705,598
801.253723,554
801.37262,585
801.491638,589
801.610535,576
801.729492,606
801.84845,558
801.967407,583
802.086243,607
802.205261,573
802.324158,597
802.443115,584
802.562073,588
802.680969,598
802.799927,558
802.918762,584
803.037659,594
803.156677,612
803.275574,602
803.39447,604
803.513428,590
803.632263,580
803.751221,578
803.870117,582
803.989014,609
804.107971,600
804.226746,590
804.345642,597
804.4646,620
804.583496,581
804.702393,605
804.821228,618
804.940125,600
805.059021,604
805.177917,596
805.296814,637
805.415649,598
805.534546,616
805.653442,622
805.772278,625
805.891113,591
806.01001,607
806.128906,635
806.247742,619
806.366577,588
806.485413,610
806.604309,616
806.723145,595
806.84198,616
806.960876,591
807.079712,598
807.198486,622
807.317383,591
807.436218,600
807.554993,596
807.673889,623
807.792725,608
807.91156,617
808.030396,623
808.14917,610
808.268005,604
808.386841,643
808.505676,629
808.624451,596
808.743286,601
808.862122,634
808.980896,631
809.099731,613
809.218506,622
809.337341,632
809.456116,627
809.57489,617
809.693726,632
809.8125,627
809.931274,641
810.050049,665
810.168884,645
810.287659,628
810.406372,630
810.525269,619
810.643982,643
810.762756,638
810.881531,621
811.000305,634
811.11908,621
811.237854,621
811.356567,614
811.475403,629
811.594116,643
811.71283,619
811.831604,622
811.950378,628
812.069153,639
812.187927,637
812.30658,619
812.425415,651
812.544128,622
812.662781,634
812.781616,637
812.900269,638
813.019043,639
813.137756,647
813.256531,645
813.375244,635
813.493896,630
813.612671,626
813.731384,645
813.850037,637
813.96875,632
814.087524,652
814.206238,651
814.324951,601
814.443604,609
814.562256,627
814.68103,624
814.799683,633
814.918335,646
815.037109,631
815.155762,636
815.274475,602
815.393188,615
815.511841,604
815.630554,618
815.749146,618
815.867859,609
815.986572,611
816.105164,598
816.223877,612
816.342529,597
816.461182,610
816.579895,603
816.698486,626
816.817139,607
816.935791,623
817.054504,616
817.173096,640
817.291748,597
817.4104,606
817.529053,597
817.647644,604
817.766235,580
817.884949,575
818.00354,568
818.122192,574
818.240845,565
818.359436,531
818.478088,548
818.59668,548
818.715271,526
818.833923,521
818.952515,523
819.071106,536
819.189758,529
819.30835,540
819.426941,514
819.545532,503
819.664124,505
819.782715,516
819.901306,495
820.019897,515
820.138489,484
820.25708,510
820.375671,503
820.494202,506
820.612732,494
820.731384,504
820.849915,483
820.968506,508
821.087097,502
821.205627,496
821.324158,472
821.442749,503
821.561279,478
821.679871,495
821.798401,502
821.916931,495
822.035461,486
822.154053,490
822.272583,466
822.391174,468
822.509583,467
822.628174,472
822.746704,487
822.865234,483
822.983765,489
823.102295,501
823.220825,457
823.339294,479
823.457825,474
823.576355,475
823.694824,477
823.813354,486
823.931885,475
824.050354,487
824.168884,476
824.287354,475
824.405823,475
824.524353,495
824.642822,499
824.761353,488
824.879822,466
824.998291,502
825.116699,491
825.235291,485
825.353699,480
825.472168,507
825.590637,482
825.709106,476
825.827576,486
825.946045,488
826.064453,481
826.182983,471
826.301392,470
826.4198,488
826.53833,465
826.656738,455
826.775208,490
826.893677,464
827.012024,461
827.130493,454
827.248962,453
827.36731,474
827.485779,457
827.604248,436
827.722595,471
827.841064,448
827.959412,464
828.077942,459
828.196289,466
828.314636,445
828.433105,460
828.551514,459
828.669861,458
828.78833,451
828.906677,464
829.025085,455
829.143433,454
829.261841,465
829.38031,442
829.498657,476
829.617004,477
829.735413,474
829.85376,467
829.972107,461
830.090515,469
830.208862,481
830.327209,457
830.445557,470
830.563904,459
830.682312,476
830.800659,476
830.919006,450
831.037354,458
831.155701,470
831.274048,448
831.392395,462
831.51062,453
831.629028,447
831.747314,441
831.865662,461
831.984009,459
832.102356,491
832.220642,473
832.338928,455
832.457275,466
832.575623,467
832.693909,454
832.812134,468
832.930481,452
833.048828,452
833.167114,482
833.2854,458
833.403687,463
833.521973,449
833.640259,449
833.758545,470
833.876831,455
833.995056,456
834.113281,442
834.231628,471
834.349915,476
834.468201,470
834.586426,464
834.704651,473
834.822998,453
834.941162,450
835.059448,473
835.177673,469
835.295959,464
835.414246,458
835.53241,439
835.650635,480
835.768921,454
835.887146,460
836.005371,446
836.123596,471
836.241821,464
836.360046,472
836.478271,471
836.596497,467
836.714722,465
836.832886,490
836.95105,462
837.069336,480
837.1875,466
837.305725,493
837.423889,483
837.542053,483
837.660339,477
837.778503,464
837.896667,455
838.014832,483
838.132996,481
838.25116,477
838.369385,474
838.487488,487
838.605713,462
838.723877,492
838.84198,460
838.960205,474
839.078308,462
839.196472,453
839.314636,468
839.4328,497
839.550964,461
839.669067,488
839.787231,456
839.905396,476
840.023499,469
840.141602,465
840.259766,462
840.377869,468
840.495972,462
840.614136,462
840.732239,471
840.850342,470
840.968445,469
841.086548,453
841.204651,477
841.322754,454
841.440918,460
841.55896,462
841.677002,450
841.795166,467
841.913208,458
842.031311,462
842.149353,454
842.267456,441
842.385498,452
842.503601,445
842.621643,461
842.739746,456
842.857788,466
842.97583,457
843.093933,454
843.211975,458
843.330017,450
843.44812,468
843.566101,468
843.684204,449
843.802246,436
843.920227,444
844.038269,453
844.156311,463
844.274292,439
844.392395,440
844.510376,457
844.628357,444
844.74646,451
844.864441,443
844.982422,463
845.100403,459
845.218384,462
845.336426,459
845.454468,448
845.572449,434
845.69043,440
845.808411,462
845.926453,456
846.044373,462
846.162354,438
846.280396,449
846.398315,466
846.516296,458
846.634216,455
846.752197,444
846.870178,458
846.988098,453
847.106079,443
847.22406,468
847.34198,466
847.4599,446
847.577881,466
847.695801,456
847.813782,450
847.931641,462
848.049561,438
848.167603,445
848.285461,431
848.403381,466
848.521362,445
848.639221,462
848.75708,433
848.875,442
848.99292,438
849.110901,439
849.22876,447
849.34668,436
849.464539,443
849.582458,459
849.700317,428
849.818176,429
849.936096,454
850.053955,447
850.171875,419
850.289673,465
850.407593,431
850.525452,441
850.643311,453
850.761169,460
850.878967,456
850.996887,439
851.114746,450
851.232544,446
851.350403,439
851.468262,450
851.58606,427
851.703979,450
851.821777,442
851.939636,451
852.057434,463
852.175232,448
852.293091,458
852.410889,445
852.528687,452
852.646545,439
852.764343,438
852.88208,450
852.999939,445
853.117676,450
853.235535,441
853.353271,449
853.471069,463
853.588928,448
853.706604,447
853.824402,457
853.9422,463
854.059998,457
854.177734,449
854.295532,430
854.413269,455
854.531006,448
854.648804,444
854.766541,446
854.884277,437
855.002014,464
855.119751,445
855.237549,458
855.355225,452
855.473022,448
855.590698,447
855.708435,452
855.826172,455
855.943848,456
856.061646,433
856.179321,468
856.296997,466
856.414795,454
856.53241,437
856.650085,448
856.767822,466
856.885559,440
857.003174,449
857.120911,462
857.238586,441
857.356201,461
857.473938,446
857.591614,449
857.709351,447
857.826965,450
857.944641,452
858.062317,466
858.179993,456
858.297668,445
858.415283,443
858.532959,432
858.650574,427
858.768188,465
858.885803,449
859.003479,473
859.121094,458
859.23877,466
859.356384,447
859.473999,438
859.591675,451
859.709229,476
859.826843,458
859.944458,462
860.062012,441
860.179626,455
860.297302,459
860.414856,458
860.532471,442
860.650024,449
860.767639,449
860.885193,439
861.002808,449
861.120361,451
861.237976,454
861.35553,435
861.473022,443
861.590698,450
861.708191,451
861.825745,455
861.943298,432
862.060852,456
862.178406,444
862.295959,442
862.413513,457
862.531006,447
862.64856,439
862.766113,455
862.883667,454
863.00116,451
863.118713,453
863.236206,462
863.353699,455
863.471252,452
863.588745,447
863.706177,444
863.82373,454
863.941162,426
864.058716,459
864.176208,455
864.29364,455
864.411194,443
864.528687,457
864.646118,458
864.763611,449
864.881042,422
864.998535,449
865.116028,445
865.233459,455
865.350891,470
865.468384,451
865.585754,474
865.703308,447
865.820679,438
865.938171,434
866.055542,457
866.173035,449
866.290466,467
866.407837,438
866.52533,450
866.6427,465
866.760071,454
866.877563,450
866.994934,448
867.112305,443
867.229736,441
867.347107,451
867.464539,459
867.58197,449
867.699341,447
867.81665,450
867.934082,443
868.051453,454
868.168823,462
868.286194,445
868.403564,445
868.520935,461
868.638306,445
868.755676,447
868.872986,446
868.990295,434
869.107727,448
869.225037,443
869.342346,452
869.459717,446
869.577026,465
869.694336,442
869.811707,453
869.929016,464
870.046326,453
870.163635,450
870.280945,467
870.398254,453
870.515564,458
870.632812,439
870.750183,455
870.867432,443
870.984741,442
871.102051,458
871.219299,455
871.336609,466
871.453918,447
871.571106,438
871.688416,422
871.805664,449
871.922852,463
872.040222,441
872.157471,463
872.274719,453
872.391968,462
872.509155,452
872.626465,460
872.743652,446
872.860962,468
872.978149,457
873.095337,463
873.212646,470
873.329834,455
873.44696,452
873.564209,464
873.681396,457
873.798645,462
873.915894,451
874.03302,456
874.150208,446
874.267456,460
874.384583,471
874.501831,454
874.618958,459
874.736145,470
874.853333,440
874.970459,461
875.087646,447
875.204834,454
875.32196,448
875.439148,463
875.556274,459
875.673401,468
875.790527,437
875.907715,447
876.024841,431
876.141968,445
876.259094,452
876.376282,448
876.493347,443
876.610474,454
876.7276,442
876.844727,473
876.961853,457
877.078918,455
877.195984,444
877.313171,457
877.430237,452
877.547302,442
877.664368,450
877.781433,454
877.898499,425
878.015625,445
878.13269,449
878.249695,451
878.366821,446
878.483887,465
878.600952,447
878.717957,459
878.834961,451
878.952087,446
879.069092,460
879.186157,455
879.303162,425
879.420227,472
879.537231,452
879.654236,457
879.77124,450
879.888306,474
880.005249,463
880.122314,449
880.239319,440
880.356323,457
880.473328,465
880.590271,449
880.707275,467
880.824341,459
880.941284,440
881.058228,457
881.175232,443
881.292236,453
881.40918,440
881.526123,436
881.643066,438
881.760071,434
881.877014,423
881.993958,463
882.11084,449
882.227783,472
882.344727,457
882.46167,446
882.578613,441
882.695618,468
882.812439,453
882.929382,458
883.046326,432
883.163208,469
883.280151,445
883.397034,450
883.513916,447
883.630798,458
883.747742,465
883.864563,450
883.981506,451
884.098389,472
884.21521,423
884.332153,455
884.448975,459
884.565796,465
884.682678,454
884.7995,484
884.916443,450
885.033264,462
885.150085,446
885.266968,453
885.383789,453
885.500671,458
885.617493,473
885.734314,465
885.851196,450
885.967896,448
886.084717,447
886.201599,470
886.318359,454
886.435181,457
886.552002,470
886.668762,470
886.785645,453
886.902344,480
887.019165,458
887.135925,455
887.252747,452
887.369446,448
887.486267,439
887.603027,465
887.719788,453
887.836548,447
887.953247,455
888.070068,460
888.186829,452
888.303528,475
888.420288,465
888.536987,473
888.653687,476
888.770447,453
888.887146,450
889.003967,462
889.120667,445
889.237305,459
889.354065,445
889.470703,452
889.587463,444
889.704163,448
889.820862,445
889.937561,477
890.054199,451
890.170837,467
890.287598,456
890.404236,465
890.520874,467
890.637634,460
890.754211,442
890.87085,465
890.987549,459
891.104187,467
891.220886,456
891.337463,462
891.454102,452
891.57074,469
891.687378,440
891.804077,466
891.920654,467
892.037231,454
892.15387,459
892.270447,460
892.387085,470
892.503723,450
892.6203,448
892.736877,473
892.853516,456
892.970032,456
893.08667,455
893.203186,452
893.319763,468
893.43634,467
893.552917,456
893.669556,477
893.786011,462
893.902588,465
894.019165,461
894.135681,469
894.252197,446
894.368835,466
894.485291,460
894.601868,448
894.718384,463
894.8349,463
894.951355,449
895.067932,464
895.184448,449
895.300964,479
895.417419,453
895.533936,455
895.650452,466
895.766907,460
895.883423,453
895.999878,449
896.116333,466
896.232849,477
896.349304,453
896.465759,465
896.582214,446
896.698669,467
896.815125,476
896.931641,478
897.048035,429
897.164551,474
897.280884,458
897.397339,483
897.513794,450
897.630249,461
897.746582,461
897.863098,480
897.979431,461
898.095886,456
898.212341,454
898.328674,481
898.445129,457
898.561462,479
898.677795,466
898.794312,464
898.910645,458
899.026978,455
899.143433,443
899.259766,471
899.37616,464
899.492493,453
899.608765,458
899.725159,462
899.841553,449
899.957947,458
900.07428,484
900.190552,443
900.306946,478
900.423157,460
900.53949,449
900.655884,456
900.772156,451
900.888489,459
901.004822,460
901.121033,461
901.237366,462
901.353699,475
901.46991,461
901.586304,478
901.702515,456
901.818787,469
901.93512,453
902.051331,460
902.167603,448
902.283875,481
902.400085,448
902.516418,469
902.632629,464
902.74884,479
902.865112,457
902.981384,470
903.097595,457
903.213867,462
903.330017,460
903.446289,454
903.5625,481
903.67865,474
903.794922,465
903.911072,465
904.027344,462
904.143494,463
904.259705,476
904.375916,451
904.492065,474
904.608215,448
904.724426,477
904.840576,466
904.956726,454
905.072876,492
905.189087,452
905.305176,465
905.421387,479
905.537537,483
905.653687,485
905.769775,462
905.885925,460
906.002014,466
906.118164,455
906.234314,462
906.350403,449
906.466492,464
906.582642,483
906.69873,463
906.814758,462
906.930908,461
907.046936,448
907.163086,473
907.279175,477
907.395264,468
907.511353,456
907.62738,463
907.743408,465
907.859497,456
907.975525,462
908.091553,455
908.207703,473
908.32373,467
908.439758,472
908.555786,474
908.671814,466
908.787842,482
908.90387,475
909.019775,460
909.135864,479
909.251892,466
909.367859,475
909.483826,467
909.599854,472
909.715881,475
909.831848,477
909.947815,461
910.063782,479
910.179749,470
910.295776,474
910.411743,467
910.527649,459
910.643616,449
910.759583,460
910.875488,479
910.991455,485
911.107361,470
911.223267,465
911.339294,499
911.4552,449
911.571106,465
911.687073,469
911.802979,476
911.918823,459
912.034729,462
912.150635,465
912.266602,465
912.382446,455
912.498352,468
912.614197,457
912.730103,460
912.846008,459
792.44574,629
792.56488,645
792.68396,695
792.80304,666
792.92218,622
793.041199,616
793.160339,589
793.279419,600
793.398499,624
793.517578,600
793.636658,610
793.755737,628
793.874817,620
793.993896,613
794.112976,618
794.232056,590
794.351074,600
794.470215,599
794.589233,610
794.708313,581
794.827393,593
794.946411,604
795.065552,581
795.18457,609
795.303589,591
795.422668,599
795.541687,582
795.660767,585
795.779846,604
795.898865,584
796.017883,587
796.136963,586
796.255981,605
796.375061,564
796.49408,590
796.613037,573
796.732117,579
796.851135,584
796.970154,598
797.089233,601
797.208191,570
797.327271,559
797.446228,591
797.565186,592
797.684265,584
797.803223,583
797.922241,593
798.04126,574
798.160278,607
798.279297,570
798.398315,567
798.517273,590
798.636292,561
798.75531,590
798.874268,566
798.993286,618
799.112244,592
799.231323,582
799.350281,570
799.469238,584
799.588257,574
799.707153,572
799.826111,591
799.945129,575
800.064087,590
800.183044,578
800.302063,587
800.421021,600
800.539978,590
800.658936,569
800.777893,608
800.896912,575
801.015747,572
801.134705,582
801.253723,584
801.37262,601
801.491638,589
801.610535,564
801.729492,593
801.84845,608
801.967407,610
802.086243,600
802.205261,576
802.324158,576
802.443115,599
802.562073,597
802.680969,619
802.799927,592
802.918762,596
803.037659,583
803.156677,608
803.275574,614
803.39447,610
803.513428,598
803.632263,613
803.751221,610
803.870117,588
803.989014,587
804.107971,605
804.226746,610
804.345642,605
804.4646,608
804.583496,597
804.702393,602
804.821228,622
804.940125,602
805.059021,625
805.177917,626
805.296814,622
805.415649,618
805.534546,628
805.653442,600
805.772278,615
805.891113,625
806.01001,637
806.128906,617
806.247742,597
806.366577,603
806.485413,615
806.604309,630
806.723145,611
806.84198,628
806.960876,628
807.079712,613
807.198486,625
807.317383,615
807.436218,588
807.554993,595
807.673889,644
807.792725,584
807.91156,619
808.030396,615
808.14917,610
808.268005,627
808.386841,622
808.505676,615
808.624451,620
808.743286,622
808.862122,611
808.980896,630
809.099731,626
809.218506,629
809.337341,625
809.456116,649
809.57489,630
809.693726,670
809.8125,613
809.931274,618
810.050049,648
810.168884,631
810.287659,621
810.406372,648
810.525269,655
810.643982,638
810.762756,654
810.881531,607
811.000305,627
811.11908,620
811.237854,647
811.356567,643
811.475403,617
811.594116,621
811.71283,625
811.831604,640
811.950378,638
812.069153,646
812.187927,662
812.30658,619
812.425415,626
812.544128,641
812.662781,626
812.781616,664
812.900269,621
813.019043,629
813.137756,644
813.256531,643
813.375244,639
813.493896,617
813.612671,638
813.731384,629
813.850037,620
813.96875,640
814.087524,635
814.206238,622
814.324951,628
814.443604,644
814.562256,629
814.68103,624
814.799683,617
814.918335,635
815.037109,629
815.155762,619
815.274475,635
815.393188,626
815.511841,617
815.630554,629
815.749146,626
815.867859,600
815.986572,613
816.105164,610
816.223877,616
816.342529,605
816.461182,649
816.579895,597
816.698486,648
816.817139,604
816.935791,629
817.054504,604
817.173096,623
817.291748,620
817.4104,592
817.529053,600
817.647644,614
817.766235,605
817.884949,578
818.00354,571
818.122192,564
818.240845,560
818.359436,559
818.478088,532
818.59668,565
818.715271,528
818.833923,541
818.952515,531
819.071106,543
819.189758,522
819.30835,505
819.426941,498
819.545532,517
819.664124,516
819.782715,519
819.901306,485
820.019897,513
820.138489,485
820.25708,493
820.375671,494
820.494202,500
820.612732,484
820.731384,497
820.849915,496
820.968506,498
821.087097,482
821.205627,499
821.324158,491
821.442749,497
821.561279,499
821.679871,496
821.798401,486
821.916931,492
822.035461,489
822.154053,478
822.272583,503
822.391174,506
822.509583,487
822.628174,491
822.746704,478
822.865234,481
822.983765,482
823.102295,500
823.220825,473
823.339294,484
823.457825,472
823.576355,498
823.694824,480
823.813354,490
823.931885,478
824.050354,482
824.168884,486
824.287354,496
824.405823,488
824.524353,514
824.642822,502
824.761353,491
824.879822,497
824.998291,496
825.116699,472
825.235291,501
825.353699,489
825.472168,513
825.590637,489
825.709106,499
825.827576,472
825.946045,496
826.064453,487
826.182983,477
826.301392,487
826.4198,491
826.53833,479
826.656738,454
826.775208,460
826.893677,476
827.012024,482
827.130493,476
827.248962,476
827.36731,484
827.485779,472
827.604248,484
827.722595,455
827.841064,467
827.959412,469
828.077942,489
828.196289,467
828.314636,454
828.433105,466
828.551514,459
828.669861,459
828.78833,460
828.906677,450
829.025085,463
829.143433,475
829.261841,472
829.38031,466
829.498657,432
829.617004,449
829.735413,474
829.85376,446
829.972107,458
830.090515,481
830.208862,466
830.327209,438
830.445557,469
830.563904,477
830.682312,444
830.800659,465
830.919006,468
831.037354,466
831.155701,460
831.274048,455
831.392395,464
831.51062,447
831.629028,457
831.747314,482
831.865662,466
831.984009,457
832.102356,475
832.220642,459
832.338928,454
832.457275,456
832.575623,458
832.693909,467
832.812134,470
832.930481,470
833.048828,448
833.167114,470
833.2854,465
833.403687,446
833.521973,473
833.640259,447
833.758545,468
833.876831,472
833.995056,471
834.113281,450
834.231628,458
834.349915,464
834.468201,486
834.586426,472
834.704651,453
834.822998,448
834.941162,450
835.059448,457
835.177673,480
835.295959,453
835.414246,480
835.53241,472
835.650635,440
835.768921,473
835.887146,477
836.005371,456
836.123596,466
836.241821,477
836.360046,472
836.478271,458
836.596497,482
836.714722,475
836.832886,474
836.95105,472
837.069336,494
837.1875,458
837.305725,469
837.423889,479
837.542053,495
837.660339,499
837.778503,483
837.896667,469
838.014832,502
838.132996,482
838.25116,469
838.369385,471
838.487488,471
838.605713,476
838.723877,480
838.84198,484
838.960205,497
839.078308,481
839.196472,469
839.314636,477
839.4328,477
839.550964,465
839.669067,485
839.787231,464
839.905396,473
840.023499,481
840.141602,461
840.259766,462
840.377869,450
840.495972,458
840.614136,475
840.732239,454
840.850342,463
840.968445,464
841.086548,485
841.204651,473
841.322754,474
841.440918,473
841.55896,455
841.677002,483
841.795166,461
841.913208,452
842.031311,465
842.149353,445
842.267456,476
842.385498,474
842.503601,471
842.621643,476
842.739746,466
842.857788,445
842.97583,454
843.093933,444
843.211975,450
843.330017,458
843.44812,452
843.566101,446
843.684204,462
843.802246,454
843.920227,472
844.038269,441
844.156311,451
844.274292,448
844.392395,463
844.510376,443
844.628357,449
844.74646,431
844.864441,463
844.982422,456
845.100403,437
845.218384,457
845.336426,461
845.454468,468
845.572449,456
845.69043,440
845.808411,448
845.926453,444
846.044373,440
846.162354,445
846.280396,445
846.398315,453
846.516296,436
846.634216,453
846.752197,468
846.870178,457
846.988098,457
847.106079,449
847.22406,439
847.34198,459
847.4599,462
847.577881,439
847.695801,446
847.813782,454
847.931641,446
848.049561,460
848.167603,456
848.285461,459
848.403381,449
848.521362,440
848.639221,454
848.75708,439
848.875,459
848.99292,442
849.110901,444
849.22876,450
849.34668,441
849.464539,451
849.582458,454
849.700317,447
849.818176,456
849.936096,444
850.053955,439
850.171875,446
850.289673,470
850.407593,438
850.525452,453
850.643311,435
850.761169,462
850.878967,457
850.996887,470
851.114746,451
851.232544,448
851.350403,435
851.468262,453
851.58606,462
851.703979,435
851.821777,447
851.939636,464
852.057434,447
852.175232,446
852.293091,429
852.410889,448
852.528687,440
852.646545,462
852.764343,445
852.88208,452
852.999939,448
853.117676,452
853.235535,439
853.353271,455
853.471069,434
853.588928,452
853.706604,461
853.824402,458
853.9422,438
854.059998,455
854.177734,443
854.295532,462
854.413269,445
854.531006,471
854.648804,458
854.766541,447
854.884277,448
855.002014,456
855.119751,448
855.237549,438
855.355225,474
855.473022,459
855.590698,460
855.708435,453
855.826172,433
855.943848,473
856.061646,461
856.179321,458
856.296997,438
856.414795,478
856.53241,465
856.650085,456
856.767822,455
856.885559,462
857.003174,444
857.120911,465
857.238586,464
857.356201,461
857.473938,463
857.591614,463
857.709351,465
857.826965,467
857.944641,449
858.062317,477
858.179993,462
858.297668,468
858.415283,451
858.532959,460
858.650574,467
858.768188,457
858.885803,436
859.003479,473
859.121094,441
859.23877,442
859.356384,487
859.473999,448
859.591675,445
859.709229,447
859.826843,454
859.944458,460
860.062012,468
860.179626,446
860.297302,444
860.414856,434
860.532471,479
860.650024,470
860.767639,454
860.885193,460
861.002808,438
861.120361,468
861.237976,459
861.35553,449
861.473022,437
861.590698,451
861.708191,440
861.825745,475
861.943298,467
862.060852,453
862.178406,444
862.295959,452
862.413513,440
862.531006,435
862.64856,439
862.766113,444
862.883667,443
863.00116,450
863.118713,460
863.236206,450
863.353699,448
863.471252,471
863.588745,459
863.706177,450
863.82373,455
863.941162,446
864.058716,459
864.176208,459
864.29364,443
864.411194,449
864.528687,451
864.646118,428
864.763611,457
864.881042,461
864.998535,466
865.116028,459
865.233459,446
865.350891,455
865.468384,449
865.585754,483
865.703308,445
865.820679,456
865.938171,467
866.055542,440
866.173035,455
866.290466,450
866.407837,472
866.52533,444
866.6427,458
866.760071,447
866.877563,456
866.994934,454
867.112305,435
867.229736,464
867.347107,458
867.464539,467
867.58197,461
867.699341,468
867.81665,435
867.934082,480
868.051453,454
868.168823,454
868.286194,445
868.403564,458
868.520935,453
868.638306,455
868.755676,449
868.872986,467
868.990295,447
869.107727,458
869.225037,448
869.342346,476
869.459717,460
869.577026,450
869.694336,466
869.811707,461
869.929016,457
870.046326,459
870.163635,454
870.280945,469
870.398254,435
870.515564,455
870.632812,458
870.750183,461
870.867432,449
870.984741,481
871.102051,437
871.219299,475
871.336609,459
871.453918,451
871.571106,430
871.688416,451
871.805664,465
871.922852,445
872.040222,464
872.157471,444
872.274719,465
872.391968,472
872.509155,440
872.626465,449
872.743652,456
872.860962,444
872.978149,449
873.095337,456
873.212646,449
873.329834,443
873.44696,455
873.564209,464
873.681396,454
873.798645,457
873.915894,440
874.03302,465
874.150208,479
874.267456,455
874.384583,430
874.501831,458
874.618958,442
874.736145,449
874.853333,452
874.970459,453
875.087646,452
875.204834,461
875.32196,451
875.439148,450
875.556274,453
875.673401,462
875.790527,441
875.907715,462
876.024841,460
876.141968,454
876.259094,450
876.376282,477
876.493347,443
876.610474,467
876.7276,448
876.844727,467
876.961853,438
877.078918,473
877.195984,452
877.313171,444
877.430237,472
877.547302,447
877.664368,447
877.781433,446
877.898499,457
878.015625,427
878.13269,451
878.249695,457
878.366821,446
878.483887,442
878.600952,445
878.717957,465
878.834961,454
878.952087,447
879.069092,427
879.186157,452
879.303162,453
879.420227,461
879.537231,467
879.654236,446
879.77124,469
879.888306,444
880.005249,439
880.122314,465
880.239319,458
880.356323,459
880.473328,463
880.590271,466
880.707275,469
880.824341,467
880.941284,473
881.058228,446
881.175232,461
881.292236,454
881.40918,443
881.526123,442
881.643066,444
881.760071,464
881.877014,437
881.993958,466
882.11084,443
882.227783,452
882.344727,460
882.46167,455
882.578613,451
882.695618,468
882.812439,452
882.929382,458
883.046326,452
883.163208,462
883.280151,455
883.397034,446
883.513916,452
883.630798,457
883.747742,470
883.864563,473
883.981506,462
884.098389,461
884.21521,465
884.332153,436
884.448975,459
884.565796,457
884.682678,458
884.7995,442
884.916443,462
885.033264,476
885.150085,455
885.266968,458
885.383789,457
885.500671,467
885.617493,458
885.734314,447
885.851196,462
885.967896,478
886.084717,455
886.201599,461
886.318359,462
886.435181,494
886.552002,473
886.668762,478
886.785645,461
886.902344,449
887.019165,465
887.135925,459
887.252747,467
887.369446,443
887.486267,450
887.603027,463
887.719788,462
887.836548,458
887.953247,448
888.070068,460
888.186829,460
888.303528,453
888.420288,484
888.536987,452
888.653687,462
888.770447,461
888.887146,445
889.003967,436
889.120667,450
889.237305,467
889.354065,473
889.470703,447
889.587463,468
889.704163,468
889.820862,460
889.937561,473
890.054199,449
890.170837,479
890.287598,457
890.404236,470
890.520874,461
890.637634,450
890.754211,456
890.87085,452
890.987549,435
891.104187,450
891.220886,467
891.337463,466
891.454102,443
891.57074,466
891.687378,463
891.804077,459
891.920654,475
892.037231,461
892.15387,477
892.270447,470
892.387085,467
892.503723,474
892.6203,455
892.736877,455
892.853516,475
892.970032,454
893.08667,463
893.203186,472
893.319763,472
893.43634,462
893.552917,463
893.669556,474
893.786011,451
893.902588,477
894.019165,458
894.135681,463
894.252197,468
894.368835,465
894.485291,475
894.601868,455
894.718384,467
894.8349,468
894.951355,465
895.067932,458
895.184448,437
895.300964,477
895.417419,477
895.533936,480
895.650452,465
895.766907,487
895.883423,452
895.999878,471
896.116333,449
896.232849,484
896.349304,437
896.465759,479
896.582214,473
896.698669,484
896.815125,455
896.931641,471
897.048035,466
897.164551,479
897.280884,463
897.397339,489
897.513794,445
897.630249,469
897.746582,467
897.863098,471
897.979431,474
898.095886,444
898.212341,454
898.328674,479
898.445129,453
898.561462,464
898.677795,464
898.794312,479
898.910645,451
899.026978,470
899.143433,458
899.259766,467
899.37616,453
899.492493,467
899.608765,463
899.725159,466
899.841553,466
899.957947,477
900.07428,469
900.190552,480
900.306946,462
900.423157,471
900.53949,462
900.655884,476
900.772156,458
900.888489,461
901.004822,460
901.121033,467
901.237366,462
901.353699,476
901.46991,460
901.586304,481
901.702515,445
901.818787,464
901.93512,468
902.051331,479
902.167603,482
902.283875,479
902.400085,455
902.516418,486
902.632629,463
902.74884,469
902.865112,473
902.981384,468
903.097595,485
903.213867,478
903.330017,456
903.446289,463
903.5625,470
903.67865,485
903.794922,468
903.911072,477
904.027344,470
904.143494,465
904.259705,474
904.375916,467
904.492065,481
904.608215,481
904.724426,477
904.840576,484
904.956726,470
905.072876,484
905.189087,456
905.305176,468
905.421387,476
905.537537,496
905.653687,477
905.769775,460
905.885925,472
906.002014,484
906.118164,458
906.234314,457
906.350403,464
906.466492,471
906.582642,453
906.69873,477
906.814758,468
906.930908,479
907.046936,479
907.163086,476
907.279175,458
907.395264,460
907.511353,480
907.62738,482
907.743408,463
907.859497,467
907.975525,460
908.091553,468
908.207703,463
908.32373,471
908.439758,462
908.555786,482
908.671814,461
908.787842,483
908.90387,455
909.019775,474
909.135864,477
909.251892,463
909.367859,491
909.483826,489
909.599854,483
909.715881,488
909.831848,471
909.947815,471
910.063782,476
910.179749,482
910.295776,457
910.411743,504
910.527649,471
910.643616,485
910.759583,456
910.875488,468
910.991455,461
911.107361,456
911.223267,477
911.339294,465
911.4552,465
911.571106,468
911.687073,470
911.802979,492
911.918823,466
912.034729,468
912.150635,463
912.266602,468
912.382446,493
912.498352,460
912.614197,467
912.730103,447
912.846008,465
792.44574,640
792.56488,650
792.68396,691
792.80304,665
792.92218,625
793.041199,611
793.160339,615
793.279419,615
793.398499,639
793.517578,599
793.636658,615
793.755737,608
793.874817,621
793.993896,605
794.112976,617
794.232056,578
794.351074,591
794.470215,604
794.589233,595
794.708313,597
794.827393,587
794.946411,589
795.065552,587
795.18457,585
795.303589,609
795.422668,605
795.541687,587
795.660767,584
795.779846,608
795.898865,577
796.017883,569
796.136963,586
796.255981,564
796.375061,601
796.49408,571
796.613037,590
796.732117,587
796.851135,575
796.970154,615
797.089233,599
797.208191,603
797.327271,574
797.446228,579
797.565186,591
797.684265,590
797.803223,580
797.922241,599
798.04126,574
798.160278,602
798.279297,590
798.398315,592
798.517273,596
798.636292,591
798.75531,581
798.874268,586
798.993286,598
799.112244,567
799.231323,587
799.350281,601
799.469238,571
799.588257,614
799.707153,576
799.826111,607
799.945129,579
800.064087,581
800.183044,593
800.302063,579
800.421021,565
800.539978,575
800.658936,571
800.777893,577
800.896912,591
801.015747,605
801.134705,575
801.253723,576
801.37262,591
801.491638,613
801.610535,559
801.729492,568
801.84845,582
801.967407,591
802.086243,596
802.205261,597
802.324158,591
802.443115,603
802.562073,590
802.680969,596
802.799927,602
802.918762,614
803.037659,613
803.156677,599
803.275574,606
803.39447,605
803.513428,609
803.632263,605
803.751221,592
803.870117,628
803.989014,617
804.107971,610
804.226746,591
804.345642,590
804.4646,608
804.583496,592
804.702393,605
804.821228,628
804.940125,621
805.059021,624
805.177917,599
805.296814,612
805.415649,611
805.534546,615
805.653442,630
805.772278,612
805.891113,603
806.01001,624
806.128906,630
806.247742,594
806.366577,631
806.485413,608
806.604309,608
806.723145,639
806.84198,600
806.960876,611
807.079712,612
807.198486,617
807.317383,631
807.436218,604
807.554993,616
807.673889,643
807.792725,628
807.91156,636
808.030396,620
808.14917,634
808.268005,604
808.386841,614
808.505676,627
808.624451,638
808.743286,621
808.862122,593
808.980896,634
809.099731,640
809.218506,630
809.337341,620
809.456116,607
809.57489,612
809.693726,629
809.8125,632
809.931274,636
810.050049,643
810.168884,637
810.287659,649
810.406372,639
810.525269,654
810.643982,641
810.762756,655
810.881531,634
811.000305,635
811.11908,639
811.237854,638
811.356567,637
811.475403,647
811.594116,600
811.71283,606
811.831604,618
811.950378,653
812.069153,635
812.187927,631
812.30658,634
812.425415,631
812.544128,637
812.662781,651
812.781616,626
812.900269,640
813.019043,625
813.137756,636
813.256531,628
813.375244,627
813.493896,647
813.612671,640
813.731384,626
813.850037,630
813.96875,627
814.087524,624
814.206238,631
814.324951,633
814.443604,652
814.562256,635
814.68103,639
814.799683,655
814.918335,644
815.037109,645
815.155762,636
815.274475,647
815.393188,641
815.511841,638
815.630554,625
815.749146,629
815.867859,620
815.986572,608
816.105164,628
816.223877,619
816.342529,626
816.461182,635
816.579895,625
816.698486,624
816.817139,612
816.935791,632
817.054504,634
817.173096,624
817.291748,637
817.4104,612
817.529053,585
817.647644,610
817.766235,580
817.884949,602
818.00354,601
818.122192,571
818.240845,575
818.359436,542
818.478088,545
818.59668,533
818.715271,517
818.833923,527
818.952515,532
819.071106,529
819.189758,516
819.30835,536
819.426941,513
819.545532,516
819.664124,527
819.782715,513
819.901306,492
820.019897,506
820.138489,498
820.25708,506
820.375671,504
820.494202,486
820.612732,512
820.731384,497
820.849915,500
820.968506,487
821.087097,487
821.205627,509
821.324158,493
821.442749,483
821.561279,470
821.679871,490
821.798401,491
821.916931,504
822.035461,487
822.154053,489
822.272583,478
822.391174,472
822.509583,493
822.628174,489
822.746704,473
822.865234,476
822.983765,496
823.102295,491
823.220825,485
823.339294,483
823.457825,481
823.576355,507
823.694824,476
823.813354,500
823.931885,493
824.050354,495
824.168884,488
824.287354,488
824.405823,500
824.524353,499
824.642822,493
824.761353,495
824.879822,489
824.998291,503
825.116699,479
825.235291,470
825.353699,494
825.472168,475
825.590637,483
825.709106,471
825.827576,477
825.946045,473
826.064453,463
826.182983,486
826.301392,484
826.4198,473
826.53833,470
826.656738,478
826.775208,475
826.893677,499
827.012024,465
827.130493,466
827.248962,481
827.36731,476
827.485779,481
827.604248,456
827.722595,466
827.841064,482
827.959412,462
828.077942,480
828.196289,461
828.314636,487
828.433105,453
828.551514,461
828.669861,475
828.78833,463
828.906677,466
829.025085,470
829.143433,477
829.261841,462
829.38031,456
829.498657,479
829.617004,472
829.735413,457
829.85376,447
829.972107,465
830.090515,467
830.208862,477
830.327209,458
830.445557,477
830.563904,453
830.682312,452
830.800659,463
830.919006,503
831.037354,458
831.155701,454
831.274048,470
831.392395,456
831.51062,473
831.629028,455
831.747314,449
831.865662,473
831.984009,480
832.102356,462
832.220642,457
832.338928,467
832.457275,457
832.575623,462
832.693909,458
832.812134,464
832.930481,460
833.048828,476
833.167114,460
833.2854,458
833.403687,454
833.521973,462
833.640259,473
833.758545,468
833.876831,491
833.995056,451
834.113281,468
834.231628,469
834.349915,472
834.468201,454
834.586426,473
834.704651,461
834.822998,461
834.941162,485
835.059448,469
835.177673,470
835.295959,478
835.414246,462
835.53241,459
835.650635,463
835.768921,472
835.887146,447
836.005371,462
836.123596,474
836.241821,475
836.360046,480
836.478271,466
836.596497,474
836.714722,460
836.832886,490
836.95105,478
837.069336,478
837.1875,478
837.305725,481
837.423889,471
837.542053,497
837.660339,503
837.778503,479
837.896667,466
838.014832,491
838.132996,467
838.25116,485
838.369385,492
838.487488,480
838.605713,469
838.723877,472
838.84198,465
838.960205,489
839.078308,465
839.196472,486
839.314636,470
839.4328,475
839.550964,450
839.669067,480
839.787231,455
839.905396,490
840.023499,459
840.141602,484
840.259766,472
840.377869,460
840.495972,476
840.614136,476
840.732239,466
840.850342,460
840.968445,470
841.086548,456
841.204651,469
841.322754,458
841.440918,463
841.55896,482
841.677002,458
841.795166,451
841.913208,445
842.031311,476
842.149353,447
842.267456,443
842.385498,449
842.503601,465
842.621643,471
842.739746,453
842.857788,469
842.97583,453
843.093933,459
843.211975,449
843.330017,454
843.44812,466
843.566101,444
843.684204,451
843.802246,454
843.920227,435
844.038269,463
844.156311,436
844.274292,478
844.392395,460
844.510376,463
844.628357,465
844.74646,446
844.864441,468
844.982422,437
845.100403,455
845.218384,455
845.336426,456
845.454468,451
845.572449,450
845.69043,448
845.808411,453
845.926453,452
846.044373,449
846.162354,467
846.280396,446
846.398315,454
846.516296,460
846.634216,461
846.752197,451
846.870178,439
846.988098,459
847.106079,445
847.22406,468
847.34198,442
847.4599,469
847.577881,453
847.695801,452
847.813782,440
847.931641,458
848.049561,455
848.167603,444
848.285461,466
848.403381,431
848.521362,449
848.639221,433
848.75708,454
848.875,468
848.99292,446
849.110901,457
849.22876,444
849.34668,462
849.464539,443
849.582458,476
849.700317,446
849.818176,472
849.936096,442
850.053955,457
850.171875,449
850.289673,458
850.407593,443
850.525452,464
850.643311,440
850.761169,446
850.878967,454
850.996887,455
851.114746,439
851.232544,450
851.350403,448
851.468262,431
851.58606,448
851.703979,458
851.821777,445
851.939636,441
852.057434,450
852.175232,459
852.293091,462
852.410889,443
852.528687,460
852.646545,455
852.764343,478
852.88208,448
852.999939,444
853.117676,490
853.235535,450
853.353271,452
853.471069,457
853.588928,448
853.706604,473
853.824402,465
853.9422,440
854.059998,467
854.177734,442
854.295532,464
854.413269,460
854.531006,455
854.648804,458
854.766541,473
854.884277,459
855.002014,463
855.119751,460
855.237549,459
855.355225,448
855.473022,449
855.590698,458
855.708435,479
855.826172,451
855.943848,431
856.061646,457
856.179321,459
856.296997,473
856.414795,454
856.53241,447
856.650085,455
856.767822,469
856.885559,462
857.003174,464
857.120911,470
857.238586,469
857.356201,445
857.473938,466
857.591614,469
857.709351,452
857.826965,460
857.944641,457
858.062317,472
858.179993,470
858.297668,444
858.415283,454
858.532959,488
858.650574,467
858.768188,451
858.885803,456
859.003479,453
859.121094,460
859.23877,471
859.356384,463
859.473999,468
859.591675,450
859.709229,454
859.826843,481
859.944458,437
860.062012,454
860.179626,459
860.297302,465
860.414856,453
860.532471,455
860.650024,463
860.767639,461
860.885193,445
861.002808,474
861.120361,464
861.237976,435
861.35553,471
861.473022,439
861.590698,451
861.708191,437
861.825745,480
861.943298,449
862.060852,455
862.178406,431
862.295959,448
862.413513,457
862.531006,470
862.64856,443
862.766113,452
862.883667,458
863.00116,458
863.118713,460
863.236206,473
863.353699,456
863.471252,443
863.588745,447
863.706177,439
863.82373,466
863.941162,463
864.058716,455
864.176208,464
864.29364,439
864.411194,453
864.528687,464
864.646118,471
864.763611,458
864.881042,459
864.998535,457
865.116028,465
865.233459,465
865.350891,435
865.468384,468
865.585754,453
865.703308,445
865.820679,453
865.938171,453
866.055542,457
866.173035,450
866.290466,478
866.407837,460
866.52533,459
866.6427,447
866.760071,444
866.877563,462
866.994934,465
867.112305,457
867.229736,468
867.347107,475
867.464539,468
867.58197,472
867.699341,468
867.81665,473
867.934082,473
868.051453,450
868.168823,464
868.286194,466
868.403564,448
868.520935,470
868.638306,461
868.755676,452
868.872986,458
868.990295,455
869.107727,468
869.225037,448
869.342346,479
869.459717,445
869.577026,456
869.694336,443
869.811707,462
869.929016,453
870.046326,442
870.163635,451
870.280945,464
870.398254,458
870.515564,446
870.632812,451
870.750183,451
870.867432,465
870.984741,459
871.102051,466
871.219299,448
871.336609,476
871.453918,456
871.571106,448
871.688416,463
871.805664,470
871.922852,448
872.040222,433
872.157471,465
872.274719,447
872.391968,459
872.509155,461
872.626465,447
872.743652,465
872.860962,468
872.978149,433
873.095337,465
873.212646,478
873.329834,452
873.44696,462
873.564209,454
873.681396,448
873.798645,455
873.915894,462
874.03302,468
874.150208,436
874.267456,459
874.384583,452
874.501831,463
874.618958,437
874.736145,440
874.853333,454
874.970459,454
875.087646,462
875.204834,459
875.32196,455
875.439148,445
875.556274,451
875.673401,478
875.790527,438
875.907715,457
876.024841,443
876.141968,467
876.259094,451
876.376282,455
876.493347,444
876.610474,465
876.7276,450
876.844727,457
876.961853,460
877.078918,449
877.195984,460
877.313171,467
877.430237,439
877.547302,489
877.664368,439
877.781433,457
877.898499,446
878.015625,446
878.13269,459
878.249695,449
878.366821,456
878.483887,456
878.600952,464
878.717957,452
878.834961,456
878.952087,455
879.069092,436
879.186157,475
879.303162,460
879.420227,471
879.537231,473
879.654236,444
879.77124,456
879.888306,471
880.005249,458
880.122314,465
880.239319,457
880.356323,456
880.473328,445
880.590271,470
880.707275,463
880.824341,435
880.941284,434
881.058228,462
881.175232,448
881.292236,456
881.40918,452
881.526123,457
881.643066,451
881.760071,450
881.877014,452
881.993958,440
882.11084,460
882.227783,466
882.344727,447
882.46167,476
882.578613,453
882.695618,475
882.812439,452
882.929382,462
883.046326,442
883.163208,479
883.280151,438
883.397034,442
883.513916,444
883.630798,460
883.747742,472
883.864563,457
883.981506,452
884.098389,457
884.21521,448
884.332153,449
884.448975,471
884.565796,472
884.682678,459
884.7995,466
884.916443,435
885.033264,475
885.150085,449
885.266968,461
885.383789,457
885.500671,453
885.617493,446
885.734314,478
885.851196,451
885.967896,461
886.084717,442
886.201599,461
886.318359,476
886.435181,465
886.552002,460
886.668762,461
886.785645,455
886.902344,455
887.019165,454
887.135925,459
887.252747,449
887.369446,443
887.486267,462
887.603027,451
887.719788,469
887.836548,469
887.953247,477
888.070068,448
888.186829,460
888.303528,472
888.420288,459
888.536987,472
888.653687,447
888.770447,464
888.887146,476
889.003967,471
889.120667,438
889.237305,470
889.354065,453
889.470703,459
889.587463,463
889.704163,452
889.820862,450
889.937561,474
890.054199,461
890.170837,467
890.287598,449
890.404236,473
890.520874,463
890.637634,486
890.754211,460
890.87085,461
890.987549,477
891.104187,446
891.220886,455
891.337463,472
891.454102,469
891.57074,475
891.687378,463
891.804077,487
891.920654,472
892.037231,465
892.15387,466
892.270447,458
892.387085,460
892.503723,462
892.6203,469
892.736877,474
892.853516,453
892.970032,472
893.08667,479
893.203186,477
893.319763,457
893.43634,476
893.552917,453
893.669556,463
893.786011,452
893.902588,476
894.019165,460
894.135681,481
894.252197,453
894.368835,471
894.485291,470
894.601868,464
894.718384,482
894.8349,467
894.951355,462
895.067932,461
895.184448,466
895.300964,457
895.417419,460
895.533936,465
895.650452,453
895.766907,462
895.883423,450
895.999878,466
896.116333,453
896.232849,462
896.349304,462
896.465759,468
896.582214,471
896.698669,471
896.815125,440
896.931641,472
897.048035,473
897.164551,470
897.280884,460
897.397339,454
897.513794,468
897.630249,469
897.746582,448
897.863098,470
897.979431,465
898.095886,460
898.212341,476
898.328674,482
898.445129,479
898.561462,482
898.677795,469
898.794312,486
898.910645,446
899.026978,465
899.143433,479
899.259766,468
899.37616,479
899.492493,474
899.608765,469
899.725159,463
899.841553,482
899.957947,470
900.07428,450
900.190552,490
900.306946,465
900.423157,467
900.53949,461
900.655884,482
900.772156,478
900.888489,471
901.004822,457
901.121033,483
901.237366,468
901.353699,469
901.46991,483
901.586304,465
901.702515,477
901.818787,488
901.93512,473
902.051331,479
902.167603,465
902.283875,465
902.400085,478
902.516418,478
902.632629,474
902.74884,459
902.865112,484
902.981384,461
903.097595,467
903.213867,464
903.330017,463
903.446289,462
903.5625,456
903.67865,472
903.794922,473
903.911072,474
904.027344,476
904.143494,477
904.259705,472
904.375916,480
904.492065,465
904.608215,474
904.724426,457
904.840576,470
904.956726,462
905.072876,459
905.189087,464
905.305176,461
905.421387,468
905.537537,469
905.653687,464
905.769775,485
905.885925,478
906.002014,481
906.118164,466
906.234314,466
906.350403,474
906.466492,493
906.582642,472
906.69873,475
906.814758,475
906.930908,470
907.046936,456
907.163086,498
907.279175,458
907.395264,460
907.511353,458
907.62738,489
907.743408,467
907.859497,469
907.975525,463
908.091553,468
908.207703,467
908.32373,462
908.439758,472
908.555786,458
908.671814,468
908.787842,471
908.90387,471
909.019775,466
909.135864,459
909.251892,474
909.367859,496
909.483826,467
909.599854,500
909.715881,488
909.831848,484
909.947815,474
910.063782,477
910.179749,475
910.295776,454
910.411743,500
910.527649,466
910.643616,451
910.759583,463
910.875488,466
910.991455,472
911.107361,466
911.223267,464
911.339294,488
911.4552,477
911.571106,490
911.687073,488
911.802979,478
911.918823,463
912.034729,486
912.150635,473
912.266602,487
912.382446,484
912.498352,496
912.614197,487
912.730103,483
912.846008,475
