792.44574,624
792.56488,626
792.68396,674
792.80304,644
792.92218,602
793.041199,602
793.160339,603
793.279419,616
793.398499,601
793.517578,575
793.636658,611
793.755737,613
793.874817,615
793.993896,604
794.112976,590
794.232056,600
794.351074,577
794.470215,572
794.589233,574
794.708313,594
794.827393,569
794.946411,574
795.065552,583
795.18457,596
795.303589,585
795.422668,592
795.541687,573
795.660767,550
795.779846,563
795.898865,577
796.017883,574
796.136963,570
796.255981,569
796.375061,596
796.49408,586
796.613037,590
796.732117,582
796.851135,536
796.970154,586
797.089233,591
797.208191,557
797.327271,554
797.446228,573
797.565186,558
797.684265,582
797.803223,573
797.922241,574
798.04126,593
798.160278,571
798.279297,560
798.398315,583
798.517273,590
798.636292,552
798.75531,595
798.874268,582
798.993286,568
799.112244,552
799.231323,582
799.350281,572
799.469238,594
799.588257,570
799.707153,581
799.826111,571
799.945129,582
800.064087,581
800.183044,568
800.302063,579
800.421021,590
800.539978,578
800.658936,572
800.777893,566
800.896912,580
801.015747,576
801.134705,602
801.253723,577
801.37262,574
801.491638,581
801.610535,569
801.729492,594
801.84845,594
801.967407,575
802.086243,575
802.205261,576
802.324158,583
802.443115,581
802.562073,575
802.680969,579
802.799927,579
802.918762,579
803.037659,571
803.156677,589
803.275574,569
803.39447,582
803.513428,584
803.632263,574
803.751221,573
803.870117,594
803.989014,596
804.107971,595
804.226746,589
804.345642,619
804.4646,620
804.583496,600
804.702393,582
804.821228,596
804.940125,616
805.059021,577
805.177917,595
805.296814,637
805.415649,605
805.534546,598
805.653442,583
805.772278,579
805.891113,615
806.01001,608
806.128906,618
806.247742,602
806.366577,613
806.485413,615
806.604309,593
806.723145,591
806.84198,613
806.960876,592
807.079712,597
807.198486,605
807.317383,618
807.436218,598
807.554993,584
807.673889,606
807.792725,590
807.91156,605
808.030396,600
808.14917,601
808.268005,648
808.386841,606
808.505676,604
808.624451,628
808.743286,628
808.862122,631
808.980896,600
809.099731,583
809.218506,620
809.337341,614
809.456116,621
809.57489,620
809.693726,625
809.8125,602
809.931274,639
810.050049,632
810.168884,627
810.287659,625
810.406372,632
810.525269,620
810.643982,622
810.762756,620
810.881531,638
811.000305,615
811.11908,637
811.237854,603
811.356567,657
811.475403,599
811.594116,620
811.71283,612
811.831604,624
811.950378,622
812.069153,630
812.187927,624
812.30658,623
812.425415,632
812.544128,664
812.662781,652
812.781616,611
812.900269,606
813.019043,654
813.137756,598
813.256531,632
813.375244,627
813.493896,646
813.612671,622
813.731384,625
813.850037,639
813.96875,641
814.087524,614
814.206238,629
814.324951,621
814.443604,617
814.562256,622
814.68103,616
814.799683,620
814.918335,604
815.037109,609
815.155762,613
815.274475,623
815.393188,611
815.511841,583
815.630554,611
815.749146,610
815.867859,605
815.986572,599
816.105164,596
816.223877,616
816.342529,607
816.461182,614
816.579895,602
816.698486,609
816.817139,621
816.935791,607
817.054504,614
817.173096,619
817.291748,582
817.4104,596
817.529053,607
817.647644,585
817.766235,589
817.884949,564
818.00354,556
818.122192,557
818.240845,534
818.359436,564
818.478088,546
818.59668,548
818.715271,531
818.833923,537
818.952515,520
819.071106,532
819.189758,513
819.30835,485
819.426941,502
819.545532,509
819.664124,486
819.782715,493
819.901306,499
820.019897,499
820.138489,511
820.25708,497
820.375671,506
820.494202,489
820.612732,494
820.731384,480
820.849915,480
820.968506,499
821.087097,479
821.205627,476
821.324158,503
821.442749,487
821.561279,495
821.679871,469
821.798401,486
821.916931,478
822.035461,479
822.154053,464
822.272583,482
822.391174,497
822.509583,488
822.628174,478
822.746704,509
822.865234,465
822.983765,465
823.102295,470
823.220825,466
823.339294,471
823.457825,474
823.576355,485
823.694824,465
823.813354,480
823.931885,484
824.050354,483
824.168884,491
824.287354,476
824.405823,466
824.524353,479
824.642822,486
824.761353,471
824.879822,491
824.998291,479
825.116699,495
825.235291,469
825.353699,486
825.472168,476
825.590637,471
825.709106,480
825.827576,471
825.946045,460
826.064453,454
826.182983,457
826.301392,477
826.4198,476
826.53833,474
826.656738,465
826.775208,477
826.893677,463
827.012024,471
827.130493,477
827.248962,458
827.36731,455
827.485779,463
827.604248,456
827.722595,452
827.841064,466
827.959412,464
828.077942,452
828.196289,461
828.314636,455
828.433105,462
828.551514,465
828.669861,472
828.78833,461
828.906677,451
829.025085,445
829.143433,454
829.261841,464
829.38031,450
829.498657,453
829.617004,457
829.735413,461
829.85376,447
829.972107,479
830.090515,460
830.208862,467
830.327209,461
830.445557,462
830.563904,459
830.682312,442
830.800659,459
830.919006,440
831.037354,449
831.155701,474
831.274048,455
831.392395,456
831.51062,466
831.629028,474
831.747314,458
831.865662,446
831.984009,462
832.102356,462
832.220642,429
832.338928,457
832.457275,472
832.575623,462
832.693909,461
832.812134,437
832.930481,445
833.048828,484
833.167114,458
833.2854,453
833.403687,455
833.521973,445
833.640259,452
833.758545,466
833.876831,457
833.995056,444
834.113281,450
834.231628,453
834.349915,467
834.468201,455
834.586426,460
834.704651,473
834.822998,456
834.941162,465
835.059448,456
835.177673,457
835.295959,440
835.414246,438
835.53241,456
835.650635,423
835.768921,455
835.887146,463
836.005371,453
836.123596,462
836.241821,463
836.360046,457
836.478271,465
836.596497,461
836.714722,443
836.832886,437
836.95105,464
837.069336,472
837.1875,466
837.305725,457
837.423889,470
837.542053,478
837.660339,473
837.778503,484
837.896667,470
838.014832,460
838.132996,459
838.25116,458
838.369385,479
838.487488,477
838.605713,476
838.723877,468
838.84198,475
838.960205,472
839.078308,454
839.196472,465
839.314636,473
839.4328,481
839.550964,435
839.669067,486
839.787231,489
839.905396,472
840.023499,466
840.141602,463
840.259766,454
840.377869,445
840.495972,462
840.614136,472
840.732239,459
840.850342,458
840.968445,452
841.086548,455
841.204651,462
841.322754,446
841.440918,447
841.55896,455
841.677002,475
841.795166,436
841.913208,457
842.031311,447
842.149353,435
842.267456,444
842.385498,444
842.503601,442
842.621643,472
842.739746,440
842.857788,466
842.97583,438
843.093933,463
843.211975,446
843.330017,444
843.44812,431
843.566101,443
843.684204,455
843.802246,441
843.920227,454
844.038269,421
844.156311,442
844.274292,457
844.392395,454
844.510376,440
844.628357,431
844.74646,443
844.864441,444
844.982422,444
845.100403,448
845.218384,449
845.336426,443
845.454468,469
845.572449,432
845.69043,436
845.808411,440
845.926453,445
846.044373,448
846.162354,439
846.280396,441
846.398315,455
846.516296,456
846.634216,459
846.752197,429
846.870178,454
846.988098,430
847.106079,457
847.22406,438
847.34198,441
847.4599,436
847.577881,431
847.695801,451
847.813782,436
847.931641,451
848.049561,433
848.167603,445
848.285461,446
848.403381,467
848.521362,448
848.639221,442
848.75708,455
848.875,442
848.99292,445
849.110901,426
849.22876,437
849.34668,450
849.464539,432
849.582458,444
849.700317,466
849.818176,443
849.936096,439
850.053955,442
850.171875,465
850.289673,453
850.407593,452
850.525452,436
850.643311,445
850.761169,440
850.878967,449
850.996887,441
851.114746,442
851.232544,444
851.350403,456
851.468262,457
851.58606,444
851.703979,446
851.821777,448
851.939636,449
852.057434,465
852.175232,445
852.293091,447
852.410889,449
852.528687,436
852.646545,464
852.764343,436
852.88208,439
852.999939,442
853.117676,428
853.235535,435
853.353271,440
853.471069,434
853.588928,435
853.706604,436
853.824402,469
853.9422,455
854.059998,439
854.177734,434
854.295532,429
854.413269,450
854.531006,439
854.648804,444
854.766541,458
854.884277,451
855.002014,448
855.119751,443
855.237549,453
855.355225,456
855.473022,464
855.590698,444
855.708435,432
855.826172,434
855.943848,447
856.061646,449
856.179321,454
856.296997,432
856.414795,460
856.53241,455
856.650085,460
856.767822,459
856.885559,445
857.003174,453
857.120911,462
857.238586,456
857.356201,451
857.473938,444
857.591614,446
857.709351,457
857.826965,434
857.944641,448
858.062317,436
858.179993,464
858.297668,454
858.415283,454
858.532959,443
858.650574,456
858.768188,446
858.885803,455
859.003479,435
859.121094,457
859.23877,435
859.356384,456
859.473999,431
859.591675,450
859.709229,445
859.826843,449
859.944458,450
860.062012,451
860.179626,437
860.297302,460
860.414856,429
860.532471,450
860.650024,445
860.767639,444
860.885193,437
861.002808,436
861.120361,448
861.237976,453
861.35553,440
861.473022,473
861.590698,450
861.708191,433
861.825745,444
861.943298,452
862.060852,460
862.178406,459
862.295959,437
862.413513,447
862.531006,450
862.64856,445
862.766113,452
862.883667,441
863.00116,452
863.118713,447
863.236206,439
863.353699,433
863.471252,444
863.588745,435
863.706177,439
863.82373,452
863.941162,457
864.058716,443
864.176208,470
864.29364,456
864.411194,431
864.528687,451
864.646118,449
864.763611,468
864.881042,435
864.998535,456
865.116028,453
865.233459,466
865.350891,436
865.468384,433
865.585754,450
865.703308,457
865.820679,465
865.938171,465
866.055542,457
866.173035,455
866.290466,443
866.407837,436
866.52533,460
866.6427,471
866.760071,456
866.877563,451
866.994934,457
867.112305,461
867.229736,443
867.347107,439
867.464539,422
867.58197,447
867.699341,444
867.81665,484
867.934082,449
868.051453,454
868.168823,457
868.286194,440
868.403564,421
868.520935,447
868.638306,443
868.755676,452
868.872986,460
868.990295,447
869.107727,442
869.225037,454
869.342346,453
869.459717,454
869.577026,452
869.694336,446
869.811707,436
869.929016,439
870.046326,442
870.163635,453
870.280945,449
870.398254,445
870.515564,446
870.632812,453
870.750183,444
870.867432,449
870.984741,437
871.102051,462
871.219299,446
871.336609,435
871.453918,431
871.571106,447
871.688416,447
871.805664,468
871.922852,439
872.040222,428
872.157471,463
872.274719,466
872.391968,463
872.509155,447
872.626465,449
872.743652,453
872.860962,458
872.978149,434
873.095337,453
873.212646,468
873.329834,440
873.44696,442
873.564209,453
873.681396,458
873.798645,449
873.915894,443
874.03302,447
874.150208,445
874.267456,459
874.384583,452
874.501831,461
874.618958,450
874.736145,452
874.853333,440
874.970459,437
875.087646,443
875.204834,439
875.32196,448
875.439148,451
875.556274,447
875.673401,459
875.790527,436
875.907715,440
876.024841,463
876.141968,445
876.259094,443
876.376282,450
876.493347,451
876.610474,449
876.7276,449
876.844727,444
876.961853,456
877.078918,449
877.195984,441
877.313171,447
877.430237,448
877.547302,449
877.664368,432
877.781433,435
877.898499,470
878.015625,464
878.13269,436
878.249695,453
878.366821,461
878.483887,438
878.600952,439
878.717957,433
878.834961,437
878.952087,452
879.069092,454
879.186157,445
879.303162,439
879.420227,436
879.537231,441
879.654236,453
879.77124,440
879.888306,443
880.005249,440
880.122314,454
880.239319,462
880.356323,453
880.473328,476
880.590271,430
880.707275,444
880.824341,439
880.941284,454
881.058228,447
881.175232,447
881.292236,439
881.40918,438
881.526123,443
881.643066,456
881.760071,445
881.877014,466
881.993958,457
882.11084,463
882.227783,448
882.344727,449
882.46167,456
882.578613,433
882.695618,444
882.812439,463
882.929382,447
883.046326,465
883.163208,460
883.280151,419
883.397034,433
883.513916,450
883.630798,470
883.747742,455
883.864563,456
883.981506,463
884.098389,463
884.21521,462
884.332153,453
884.448975,446
884.565796,456
884.682678,414
884.7995,450
884.916443,450
885.033264,457
885.150085,438
885.266968,459
885.383789,447
885.500671,466
885.617493,442
885.734314,452
885.851196,460
885.967896,472
886.084717,456
886.201599,449
886.318359,450
886.435181,437
886.552002,463
886.668762,464
886.785645,454
886.902344,449
887.019165,443
887.135925,456
887.252747,454
887.369446,445
887.486267,475
887.603027,443
887.719788,460
887.836548,470
887.953247,457
888.070068,461
888.186829,450
888.303528,450
888.420288,440
888.536987,467
888.653687,444
888.770447,450
888.887146,463
889.003967,448
889.120667,465
889.237305,440
889.354065,469
889.470703,472
889.587463,462
889.704163,455
889.820862,458
889.937561,447
890.054199,462
890.170837,445
890.287598,458
890.404236,473
890.520874,449
890.637634,443
890.754211,459
890.87085,431
890.987549,466
891.104187,440
891.220886,469
891.337463,467
891.454102,476
891.57074,440
891.687378,455
891.804077,443
891.920654,467
892.037231,442
892.15387,480
892.270447,476
892.387085,467
892.503723,449
892.6203,461
892.736877,469
892.853516,457
892.970032,443
893.08667,462
893.203186,447
893.319763,452
893.43634,462
893.552917,450
893.669556,478
893.786011,434
893.902588,461
894.019165,468
894.135681,475
894.252197,453
894.368835,461
894.485291,451
894.601868,448
894.718384,458
894.8349,469
894.951355,460
895.067932,477
895.184448,442
895.300964,456
895.417419,474
895.533936,443
895.650452,473
895.766907,463
895.883423,457
895.999878,455
896.116333,455
896.232849,446
896.349304,471
896.465759,452
896.582214,465
896.698669,473
896.815125,452
896.931641,440
897.048035,461
897.164551,453
897.280884,475
897.397339,452
897.513794,467
897.630249,437
897.746582,454
897.863098,459
897.979431,474
898.095886,460
898.212341,446
898.328674,463
898.445129,453
898.561462,461
898.677795,473
898.794312,464
898.910645,466
899.026978,460
899.143433,467
899.259766,472
899.37616,446
899.492493,468
899.608765,464
899.725159,461
899.841553,487
899.957947,447
900.07428,454
900.190552,450
900.306946,467
900.423157,468
900.53949,452
900.655884,469
900.772156,453
900.888489,453
901.004822,468
901.121033,473
901.237366,468
901.353699,460
901.46991,469
901.586304,469
901.702515,468
901.818787,470
901.93512,469
902.051331,465
902.167603,466
902.283875,466
902.400085,475
902.516418,465
902.632629,468
902.74884,451
902.865112,484
902.981384,466
903.097595,438
903.213867,475
903.330017,475
903.446289,449
903.5625,472
903.67865,441
903.794922,457
903.911072,460
904.027344,470
904.143494,472
904.259705,457
904.375916,475
904.492065,459
904.608215,463
904.724426,465
904.840576,451
904.956726,464
905.072876,467
905.189087,451
905.305176,464
905.421387,457
905.537537,454
905.653687,478
905.769775,469
905.885925,462
906.002014,461
906.118164,461
906.234314,464
906.350403,466
906.466492,455
906.582642,482
906.69873,475
906.814758,474
906.930908,461
907.046936,472
907.163086,460
907.279175,480
907.395264,467
907.511353,470
907.62738,481
907.743408,480
907.859497,446
907.975525,476
908.091553,483
908.207703,480
908.32373,444
908.439758,473
908.555786,455
908.671814,468
908.787842,468
908.90387,464
909.019775,463
909.135864,455
909.251892,467
909.367859,473
909.483826,455
909.599854,456
909.715881,459
909.831848,479
909.947815,455
910.063782,467
910.179749,458
910.295776,480
910.411743,472
910.527649,465
910.643616,469
910.759583,486
910.875488,470
910.991455,458
911.107361,470
911.223267,459
911.339294,491
911.4552,460
911.571106,463
911.687073,479
911.802979,468
911.918823,473
912.034729,459
912.150635,450
912.266602,444
912.382446,468
912.498352,477
912.614197,452
912.730103,462
912.846008,458
792.44574,589
792.56488,621
792.68396,676
792.80304,652
792.92218,589
793.041199,582
793.160339,589
793.279419,605
793.398499,605
793.517578,589
793.636658,563
793.755737,594
793.874817,599
793.993896,618
794.112976,601
794.232056,615
794.351074,593
794.470215,593
794.589233,604
794.708313,562
794.827393,583
794.946411,584
795.065552,609
795.18457,592
795.303589,620
795.422668,586
795.541687,598
795.660767,606
795.779846,575
795.898865,565
796.017883,598
796.136963,598
796.255981,580
796.375061,607
796.49408,572
796.613037,570
796.732117,582
796.851135,591
796.970154,573
797.089233,550
797.208191,577
797.327271,570
797.446228,564
797.565186,580
797.684265,570
797.803223,573
797.922241,575
798.04126,549
798.160278,584
798.279297,575
798.398315,559
798.517273,561
798.636292,581
798.75531,595
798.874268,572
798.993286,556
799.112244,581
799.231323,560
799.350281,566
799.469238,586
799.588257,557
799.707153,559
799.826111,571
799.945129,568
800.064087,604
800.183044,553
800.302063,599
800.421021,584
800.539978,579
800.658936,592
800.777893,574
800.896912,571
801.015747,601
801.134705,574
801.253723,608
801.37262,576
801.491638,577
801.610535,565
801.729492,590
801.84845,580
801.967407,578
802.086243,576
802.205261,582
802.324158,602
802.443115,598
802.562073,603
802.680969,573
802.799927,581
802.918762,597
803.037659,576
803.156677,589
803.275574,582
803.39447,617
803.513428,587
803.632263,582
803.751221,577
803.870117,571
803.989014,590
804.107971,578
804.226746,598
804.345642,591
804.4646,597
804.583496,607
804.702393,591
804.821228,601
804.940125,583
805.059021,621
805.177917,597
805.296814,575
805.415649,603
805.534546,603
805.653442,612
805.772278,608
805.891113,607
806.01001,619
806.128906,592
806.247742,604
806.366577,611
806.485413,597
806.604309,615
806.723145,618
806.84198,614
806.960876,601
807.079712,614
807.198486,606
807.317383,609
807.436218,622
807.554993,623
807.673889,614
807.792725,616
807.91156,627
808.030396,619
808.14917,604
808.268005,590
808.386841,612
808.505676,621
808.624451,613
808.743286,621
808.862122,637
808.980896,604
809.099731,606
809.218506,631
809.337341,623
809.456116,605
809.57489,634
809.693726,652
809.8125,625
809.931274,600
810.050049,638
810.168884,617
810.287659,628
810.406372,640
810.525269,611
810.643982,630
810.762756,624
810.881531,644
811.000305,636
811.11908,636
811.237854,609
811.356567,618
811.475403,597
811.594116,629
811.71283,627
811.831604,611
811.950378,630
812.069153,627
812.187927,652
812.30658,624
812.425415,625
812.544128,629
812.662781,645
812.781616,633
812.900269,629
813.019043,628
813.137756,620
813.256531,634
813.375244,625
813.493896,611
813.612671,635
813.731384,656
813.850037,621
813.96875,638
814.087524,612
814.206238,649
814.324951,643
814.443604,612
814.562256,601
814.68103,615
814.799683,628
814.918335,624
815.037109,627
815.155762,600
815.274475,628
815.393188,610
815.511841,618
815.630554,626
815.749146,627
815.867859,609
815.986572,608
816.105164,609
816.223877,620
816.342529,594
816.461182,603
816.579895,613
816.698486,634
816.817139,600
816.935791,635
817.054504,623
817.173096,612
817.291748,595
817.4104,622
817.529053,604
817.647644,598
817.766235,580
817.884949,572
818.00354,566
818.122192,557
818.240845,562
818.359436,542
818.478088,542
818.59668,556
818.715271,521
818.833923,535
818.952515,526
819.071106,526
819.189758,510
819.30835,521
819.426941,496
819.545532,495
819.664124,529
819.782715,507
819.901306,493
820.019897,504
820.138489,494
820.25708,524
820.375671,502
820.494202,517
820.612732,507
820.731384,476
820.849915,484
820.968506,482
821.087097,489
821.205627,507
821.324158,484
821.442749,498
821.561279,493
821.679871,485
821.798401,488
821.916931,461
822.035461,507
822.154053,469
822.272583,437
822.391174,490
822.509583,476
822.628174,462
822.746704,472
822.865234,487
822.983765,474
823.102295,484
823.220825,484
823.339294,491
823.457825,472
823.576355,469
823.694824,479
823.813354,486
823.931885,466
824.050354,479
824.168884,486
824.287354,476
824.405823,485
824.524353,487
824.642822,500
824.761353,486
824.879822,479
824.998291,490
825.116699,479
825.235291,463
825.353699,490
825.472168,465
825.590637,497
825.709106,468
825.827576,481
825.946045,495
826.064453,471
826.182983,449
826.301392,467
826.4198,463
826.53833,473
826.656738,462
826.775208,470
826.893677,487
827.012024,465
827.130493,443
827.248962,473
827.36731,475
827.485779,462
827.604248,455
827.722595,480
827.841064,447
827.959412,468
828.077942,447
828.196289,454
828.314636,467
828.433105,466
828.551514,459
828.669861,448
828.78833,468
828.906677,449
829.025085,472
829.143433,454
829.261841,446
829.38031,459
829.498657,475
829.617004,452
829.735413,462
829.85376,456
829.972107,469
830.090515,474
830.208862,474
830.327209,459
830.445557,472
830.563904,459
830.682312,471
830.800659,435
830.919006,448
831.037354,456
831.155701,455
831.274048,442
831.392395,471
831.51062,476
831.629028,464
831.747314,456
831.865662,453
831.984009,474
832.102356,448
832.220642,439
832.338928,461
832.457275,469
832.575623,472
832.693909,468
832.812134,457
832.930481,454
833.048828,468
833.167114,440
833.2854,441
833.403687,457
833.521973,457
833.640259,468
833.758545,457
833.876831,454
833.995056,461
834.113281,450
834.231628,430
834.349915,463
834.468201,463
834.586426,455
834.704651,471
834.822998,474
834.941162,469
835.059448,469
835.177673,456
835.295959,453
835.414246,471
835.53241,464
835.650635,474
835.768921,457
835.887146,451
836.005371,454
836.123596,471
836.241821,465
836.360046,475
836.478271,459
836.596497,471
836.714722,475
836.832886,476
836.95105,471
837.069336,466
837.1875,476
837.305725,464
837.423889,477
837.542053,465
837.660339,461
837.778503,489
837.896667,447
838.014832,476
838.132996,470
838.25116,476
838.369385,445
838.487488,488
838.605713,473
838.723877,478
838.84198,487
838.960205,483
839.078308,443
839.196472,451
839.314636,459
839.4328,460
839.550964,467
839.669067,477
839.787231,467
839.905396,453
840.023499,465
840.141602,483
840.259766,468
840.377869,491
840.495972,454
840.614136,463
840.732239,455
840.850342,461
840.968445,453
841.086548,453
841.204651,453
841.322754,462
841.440918,463
841.55896,456
841.677002,453
841.795166,465
841.913208,467
842.031311,444
842.149353,460
842.267456,448
842.385498,439
842.503601,473
842.621643,434
842.739746,447
842.857788,444
842.97583,425
843.093933,433
843.211975,462
843.330017,449
843.44812,452
843.566101,435
843.684204,447
843.802246,448
843.920227,445
844.038269,452
844.156311,443
844.274292,466
844.392395,434
844.510376,460
844.628357,441
844.74646,442
844.864441,460
844.982422,435
845.100403,439
845.218384,455
845.336426,459
845.454468,460
845.572449,439
845.69043,449
845.808411,440
845.926453,436
846.044373,436
846.162354,450
846.280396,450
846.398315,450
846.516296,437
846.634216,459
846.752197,431
846.870178,452
846.988098,445
847.106079,464
847.22406,457
847.34198,437
847.4599,454
847.577881,444
847.695801,451
847.813782,456
847.931641,424
848.049561,463
848.167603,453
848.285461,461
848.403381,450
848.521362,438
848.639221,446
848.75708,438
848.875,449
848.99292,447
849.110901,437
849.22876,446
849.34668,453
849.464539,441
849.582458,445
849.700317,450
849.818176,444
849.936096,427
850.053955,442
850.171875,452
850.289673,438
850.407593,455
850.525452,437
850.643311,464
850.761169,413
850.878967,433
850.996887,479
851.114746,453
851.232544,453
851.350403,425
851.468262,442
851.58606,456
851.703979,433
851.821777,445
851.939636,462
852.057434,432
852.175232,435
852.293091,433
852.410889,449
852.528687,451
852.646545,424
852.764343,460
852.88208,462
852.999939,438
853.117676,465
853.235535,454
853.353271,461
853.471069,429
853.588928,457
853.706604,446
853.824402,455
853.9422,473
854.059998,456
854.177734,423
854.295532,442
854.413269,445
854.531006,477
854.648804,445
854.766541,441
854.884277,463
855.002014,457
855.119751,439
855.237549,446
855.355225,437
855.473022,456
855.590698,442
855.708435,462
855.826172,439
855.943848,449
856.061646,448
856.179321,458
856.296997,437
856.414795,464
856.53241,469
856.650085,448
856.767822,447
856.885559,463
857.003174,456
857.120911,435
857.238586,458
857.356201,466
857.473938,456
857.591614,461
857.709351,437
857.826965,466
857.944641,463
858.062317,456
858.179993,438
858.297668,442
858.415283,453
858.532959,453
858.650574,449
858.768188,466
858.885803,451
859.003479,458
859.121094,446
859.23877,451
859.356384,463
859.473999,454
859.591675,456
859.709229,447
859.826843,441
859.944458,450
860.062012,443
860.179626,463
860.297302,438
860.414856,449
860.532471,468
860.650024,432
860.767639,481
860.885193,455
861.002808,447
861.120361,437
861.237976,448
861.35553,443
861.473022,447
861.590698,469
861.708191,453
861.825745,470
861.943298,457
862.060852,446
862.178406,442
862.295959,444
862.413513,445
862.531006,448
862.64856,448
862.766113,460
862.883667,440
863.00116,460
863.118713,447
863.236206,448
863.353699,457
863.471252,457
863.588745,459
863.706177,477
863.82373,451
863.941162,438
864.058716,456
864.176208,438
864.29364,440
864.411194,446
864.528687,459
864.646118,465
864.763611,447
864.881042,440
864.998535,451
865.116028,450
865.233459,430
865.350891,447
865.468384,454
865.585754,469
865.703308,450
865.820679,461
865.938171,436
866.055542,470
866.173035,445
866.290466,447
866.407837,453
866.52533,441
866.6427,449
866.760071,435
866.877563,449
866.994934,462
867.112305,440
867.229736,457
867.347107,433
867.464539,481
867.58197,454
867.699341,462
867.81665,449
867.934082,461
868.051453,458
868.168823,438
868.286194,446
868.403564,448
868.520935,447
868.638306,442
868.755676,431
868.872986,453
868.990295,442
869.107727,458
869.225037,449
869.342346,445
869.459717,457
869.577026,438
869.694336,458
869.811707,456
869.929016,453
870.046326,462
870.163635,459
870.280945,456
870.398254,438
870.515564,452
870.632812,445
870.750183,440
870.867432,425
870.984741,451
871.102051,439
871.219299,439
871.336609,436
871.453918,448
871.571106,443
871.688416,431
871.805664,425
871.922852,463
872.040222,465
872.157471,451
872.274719,442
872.391968,457
872.509155,448
872.626465,439
872.743652,437
872.860962,442
872.978149,449
873.095337,450
873.212646,433
873.329834,457
873.44696,446
873.564209,462
873.681396,452
873.798645,450
873.915894,460
874.03302,451
874.150208,452
874.267456,473
874.384583,453
874.501831,468
874.618958,446
874.736145,468
874.853333,442
874.970459,463
875.087646,465
875.204834,461
875.32196,436
875.439148,455
875.556274,471
875.673401,459
875.790527,447
875.907715,451
876.024841,445
876.141968,445
876.259094,470
876.376282,451
876.493347,450
876.610474,468
876.7276,444
876.844727,462
876.961853,452
877.078918,477
877.195984,445
877.313171,451
877.430237,442
877.547302,435
877.664368,445
877.781433,445
877.898499,460
878.015625,463
878.13269,441
878.249695,448
878.366821,443
878.483887,443
878.600952,471
878.717957,470
878.834961,455
878.952087,467
879.069092,445
879.186157,473
879.303162,444
879.420227,435
879.537231,453
879.654236,441
879.77124,455
879.888306,449
880.005249,460
880.122314,459
880.239319,461
880.356323,442
880.473328,454
880.590271,454
880.707275,443
880.824341,475
880.941284,434
881.058228,434
881.175232,473
881.292236,458
881.40918,456
881.526123,451
881.643066,433
881.760071,451
881.877014,435
881.993958,464
882.11084,446
882.227783,467
882.344727,464
882.46167,460
882.578613,441
882.695618,478
882.812439,459
882.929382,472
883.046326,464
883.163208,457
883.280151,450
883.397034,444
883.513916,459
883.630798,462
883.747742,449
883.864563,424
883.981506,440
884.098389,470
884.21521,454
884.332153,452
884.448975,458
884.565796,447
884.682678,430
884.7995,451
884.916443,458
885.033264,438
885.150085,465
885.266968,480
885.383789,473
885.500671,450
885.617493,458
885.734314,461
885.851196,454
885.967896,462
886.084717,451
886.201599,459
886.318359,447
886.435181,462
886.552002,448
886.668762,454
886.785645,432
886.902344,467
887.019165,443
887.135925,445
887.252747,470
887.369446,465
887.486267,446
887.603027,478
887.719788,446
887.836548,460
887.953247,430
888.070068,469
888.186829,447
888.303528,461
888.420288,470
888.536987,463
888.653687,460
888.770447,461
888.887146,448
889.003967,455
889.120667,457
889.237305,468
889.354065,455
889.470703,460
889.587463,457
889.704163,468
889.820862,467
889.937561,472
890.054199,455
890.170837,466
890.287598,433
890.404236,472
890.520874,468
890.637634,452
890.754211,453
890.87085,473
890.987549,468
891.104187,469
891.220886,459
891.337463,472
891.454102,457
891.57074,477
891.687378,439
891.804077,471
891.920654,452
892.037231,464
892.15387,464
892.270447,442
892.387085,455
892.503723,458
892.6203,470
892.736877,475
892.853516,429
892.970032,457
893.08667,467
893.203186,446
893.319763,448
893.43634,466
893.552917,466
893.669556,467
893.786011,455
893.902588,472
894.019165,456
894.135681,470
894.252197,463
894.368835,463
894.485291,474
894.601868,474
894.718384,479
894.8349,448
894.951355,456
895.067932,461
895.184448,455
895.300964,470
895.417419,459
895.533936,475
895.650452,464
895.766907,481
895.883423,474
895.999878,470
896.116333,453
896.232849,467
896.349304,461
896.465759,432
896.582214,456
896.698669,483
896.815125,456
896.931641,466
897.048035,470
897.164551,446
897.280884,485
897.397339,463
897.513794,450
897.630249,472
897.746582,459
897.863098,459
897.979431,451
898.095886,466
898.212341,464
898.328674,466
898.445129,453
898.561462,466
898.677795,440
898.794312,486
898.910645,458
899.026978,457
899.143433,443
899.259766,463
899.37616,476
899.492493,484
899.608765,476
899.725159,464
899.841553,456
899.957947,461
900.07428,462
900.190552,470
900.306946,457
900.423157,461
900.53949,458
900.655884,483
900.772156,449
900.888489,472
901.004822,461
901.121033,454
901.237366,476
901.353699,463
901.46991,471
901.586304,485
901.702515,478
901.818787,472
901.93512,452
902.051331,480
902.167603,485
902.283875,478
902.400085,453
902.516418,471
902.632629,440
902.74884,454
902.865112,471
902.981384,446
903.097595,451
903.213867,457
903.330017,483
903.446289,471
903.5625,486
903.67865,464
903.794922,451
903.911072,471
904.027344,460
904.143494,450
904.259705,448
904.375916,476
904.492065,466
904.608215,473
904.724426,470
904.840576,453
904.956726,451
905.072876,468
905.189087,463
905.305176,467
905.421387,471
905.537537,470
905.653687,474
905.769775,461
905.885925,486
906.002014,480
906.118164,460
906.234314,478
906.350403,465
906.466492,471
906.582642,456
906.69873,468
906.814758,453
906.930908,467
907.046936,471
907.163086,475
907.279175,480
907.395264,478
907.511353,472
907.62738,485
907.743408,474
907.859497,473
907.975525,470
908.091553,478
908.207703,457
908.32373,472
908.439758,476
908.555786,462
908.671814,465
908.787842,471
908.90387,469
909.019775,486
909.135864,452
909.251892,470
909.367859,474
909.483826,471
909.599854,468
909.715881,474
909.831848,466
909.947815,475
910.063782,470
910.179749,471
910.295776,483
910.411743,488
910.527649,467
910.643616,463
910.759583,458
910.875488,501
910.991455,480
911.107361,471
911.223267,500
911.339294,474
911.4552,450
911.571106,491
911.687073,474
911.802979,459
911.918823,476
912.034729,460
912.150635,464
912.266602,468
912.382446,477
912.498352,479
912.614197,469
912.730103,471
912.846008,465
792.44574,633
792.56488,656
792.68396,663
792.80304,651
792.92218,630
793.041199,592
793.160339,593
793.279419,600
793.398499,602
793.517578,586
793.636658,600
793.755737,600
793.874817,611
793.993896,639
794.112976,597
794.232056,573
794.351074,570
794.470215,578
794.589233,588
794.708313,603
794.827393,600
794.946411,576
795.065552,581
795.18457,567
795.303589,605
795.422668,570
795.541687,587
795.660767,585
795.779846,570
795.898865,585
796.017883,546
796.136963,565
796.255981,581
796.375061,575
796.49408,589
796.613037,576
796.732117,569
796.851135,593
796.970154,579
797.089233,570
797.208191,584
797.327271,583
797.446228,586
797.565186,594
797.684265,575
797.803223,573
797.922241,555
798.04126,572
798.160278,573
798.279297,574
798.398315,577
798.517273,573
798.636292,575
798.75531,569
798.874268,592
798.993286,573
799.112244,553
799.231323,583
799.350281,582
799.469238,557
799.588257,555
799.707153,573
799.826111,574
799.945129,578
800.064087,563
800.183044,572
800.302063,574
800.421021,573
800.539978,552
800.658936,581
800.777893,579
800.896912,575
801.015747,555
801.134705,593
801.253723,578
801.37262,573
801.491638,584
801.610535,597
801.729492,597
801.84845,586
801.967407,587
802.086243,566
802.205261,567
802.324158,595
802.443115,575
802.562073,586
802.680969,587
802.799927,608
802.918762,566
803.037659,581
803.156677,576
803.275574,614
803.39447,583
803.513428,598
803.632263,591
803.751221,587
803.870117,587
803.989014,609
804.107971,606
804.226746,596
804.345642,593
804.4646,571
804.583496,597
804.702393,613
804.821228,608
804.940125,606
805.059021,590
805.177917,617
805.296814,601
805.415649,620
805.534546,630
805.653442,608
805.772278,624
805.891113,604
806.01001,605
806.128906,620
806.247742,595
806.366577,602
806.485413,585
806.604309,630
806.723145,630
806.84198,595
806.960876,619
807.079712,596
807.198486,605
807.317383,621
807.436218,625
807.554993,602
807.673889,604
807.792725,624
807.91156,593
808.030396,614
808.14917,617
808.268005,622
808.386841,608
808.505676,630
808.624451,598
808.743286,631
808.862122,625
808.980896,614
809.099731,635
809.218506,642
809.337341,631
809.456116,616
809.57489,636
809.693726,644
809.8125,589
809.931274,647
810.050049,623
810.168884,634
810.287659,630
810.406372,650
810.525269,617
810.643982,619
810.762756,610
810.881531,637
811.000305,603
811.11908,618
811.237854,593
811.356567,639
811.475403,627
811.594116,643
811.71283,642
811.831604,620
811.950378,631
812.069153,630
812.187927,633
812.30658,618
812.425415,628
812.544128,649
812.662781,623
812.781616,647
812.900269,628
813.019043,622
813.137756,640
813.256531,628
813.375244,644
813.493896,649
813.612671,610
813.731384,638
813.850037,624
813.96875,623
814.087524,619
814.206238,615
814.324951,620
814.443604,628
814.562256,617
814.68103,639
814.799683,631
814.918335,636
815.037109,622
815.155762,616
815.274475,608
815.393188,604
815.511841,616
815.630554,602
815.749146,627
815.867859,627
815.986572,617
816.105164,609
816.223877,596
816.342529,602
816.461182,617
816.579895,620
816.698486,613
816.817139,614
816.935791,615
817.054504,613
817.173096,589
817.291748,613
817.4104,599
817.529053,587
817.647644,553
817.766235,599
817.884949,591
818.00354,574
818.122192,556
818.240845,557
818.359436,534
818.478088,541
818.59668,510
818.715271,570
818.833923,525
818.952515,510
819.071106,501
819.189758,501
819.30835,503
819.426941,497
819.545532,503
819.664124,528
819.782715,504
819.901306,495
820.019897,490
820.138489,510
820.25708,500
820.375671,504
820.494202,493
820.612732,510
820.731384,484
820.849915,477
820.968506,491
821.087097,486
821.205627,482
821.324158,485
821.442749,482
821.561279,507
821.679871,484
821.798401,475
821.916931,478
822.035461,473
822.154053,487
822.272583,488
822.391174,483
822.509583,482
822.628174,470
822.746704,484
822.865234,479
822.983765,488
823.102295,475
823.220825,475
823.339294,490
823.457825,480
823.576355,486
823.694824,478
823.813354,478
823.931885,480
824.050354,483
824.168884,492
824.287354,485
824.405823,473
824.524353,473
824.642822,504
824.761353,509
824.879822,477
824.998291,490
825.116699,471
825.235291,466
825.353699,459
825.472168,466
825.590637,485
825.709106,479
825.827576,463
825.946045,473
826.064453,483
826.182983,485
826.301392,451
826.4198,483
826.53833,464
826.656738,487
826.775208,454
826.893677,464
827.012024,471
827.130493,456
827.248962,462
827.36731,487
827.485779,453
827.604248,454
827.722595,464
827.841064,466
827.959412,457
828.077942,459
828.196289,446
828.314636,457
828.433105,460
828.551514,458
828.669861,458
828.78833,451
828.906677,476
829.025085,457
829.143433,483
829.261841,459
829.38031,459
829.498657,471
829.617004,461
829.735413,467
829.85376,461
829.972107,462
830.090515,457
830.208862,453
830.327209,470
830.445557,467
830.563904,466
830.682312,462
830.800659,456
830.919006,443
831.037354,459
831.155701,465
831.274048,472
831.392395,457
831.51062,448
831.629028,457
831.747314,446
831.865662,456
831.984009,464
832.102356,465
832.220642,459
832.338928,455
832.457275,464
832.575623,457
832.693909,469
832.812134,467
832.930481,456
833.048828,450
833.167114,457
833.2854,448
833.403687,465
833.521973,463
833.640259,479
833.758545,436
833.876831,458
833.995056,476
834.113281,456
834.231628,461
834.349915,455
834.468201,444
834.586426,456
834.704651,465
834.822998,467
834.941162,455
835.059448,464
835.177673,439
835.295959,463
835.414246,459
835.53241,456
835.650635,453
835.768921,465
835.887146,456
836.005371,451
836.123596,465
836.241821,484
836.360046,465
836.478271,473
836.596497,457
836.714722,470
836.832886,459
836.95105,478
837.069336,464
837.1875,455
837.305725,490
837.423889,490
837.542053,480
837.660339,462
837.778503,460
837.896667,458
838.014832,492
838.132996,465
838.25116,463
838.369385,482
838.487488,479
838.605713,468
838.723877,478
838.84198,475
838.960205,480
839.078308,466
839.196472,457
839.314636,488
839.4328,490
839.550964,472
839.669067,458
839.787231,486
839.905396,478
840.023499,476
840.141602,464
840.259766,481
840.377869,469
840.495972,475
840.614136,469
840.732239,478
840.850342,456
840.968445,454
841.086548,467
841.204651,464
841.322754,464
841.440918,469
841.55896,475
841.677002,463
841.795166,471
841.913208,461
842.031311,449
842.149353,455
842.267456,437
842.385498,446
842.503601,447
842.621643,462
842.739746,472
842.857788,441
842.97583,444
843.093933,442
843.211975,445
843.330017,459
843.44812,454
843.566101,444
843.684204,450
843.802246,436
843.920227,456
844.038269,463
844.156311,447
844.274292,461
844.392395,449
844.510376,450
844.628357,423
844.74646,471
844.864441,435
844.982422,462
845.100403,452
845.218384,457
845.336426,446
845.454468,451
845.572449,449
845.69043,442
845.808411,435
845.926453,445
846.044373,441
846.162354,430
846.280396,446
846.398315,445
846.516296,457
846.634216,431
846.752197,463
846.870178,441
846.988098,455
847.106079,440
847.22406,454
847.34198,471
847.4599,441
847.577881,445
847.695801,438
847.813782,456
847.931641,442
848.049561,461
848.167603,443
848.285461,454
848.403381,455
848.521362,453
848.639221,436
848.75708,455
848.875,454
848.99292,445
849.110901,447
849.22876,442
849.34668,464
849.464539,461
849.582458,451
849.700317,444
849.818176,446
849.936096,440
850.053955,457
850.171875,455
850.289673,451
850.407593,445
850.525452,453
850.643311,428
850.761169,447
850.878967,456
850.996887,454
851.114746,446
851.232544,434
851.350403,447
851.468262,448
851.58606,444
851.703979,443
851.821777,434
851.939636,460
852.057434,440
852.175232,454
852.293091,459
852.410889,457
852.528687,468
852.646545,453
852.764343,434
852.88208,446
852.999939,433
853.117676,453
853.235535,448
853.353271,454
853.471069,468
853.588928,448
853.706604,454
853.824402,442
853.9422,467
854.059998,455
854.177734,451
854.295532,439
854.413269,444
854.531006,444
854.648804,454
854.766541,446
854.884277,467
855.002014,426
855.119751,452
855.237549,446
855.355225,465
855.473022,442
855.590698,452
855.708435,463
855.826172,458
855.943848,441
856.061646,455
856.179321,458
856.296997,456
856.414795,477
856.53241,460
856.650085,449
856.767822,476
856.885559,459
857.003174,444
857.120911,468
857.238586,463
857.356201,453
857.473938,452
857.591614,456
857.709351,440
857.826965,458
857.944641,446
858.062317,467
858.179993,434
858.297668,444
858.415283,458
858.532959,456
858.650574,463
858.768188,442
858.885803,448
859.003479,453
859.121094,437
859.23877,453
859.356384,466
859.473999,454
859.591675,447
859.709229,447
859.826843,462
859.944458,446
860.062012,457
860.179626,464
860.297302,448
860.414856,433
860.532471,453
860.650024,459
860.767639,443
860.885193,438
861.002808,470
861.120361,460
861.237976,459
861.35553,453
861.473022,435
861.590698,459
861.708191,465
861.825745,430
861.943298,455
862.060852,447
862.178406,455
862.295959,449
862.413513,449
862.531006,454
862.64856,430
862.766113,445
862.883667,466
863.00116,443
863.118713,454
863.236206,451
863.353699,452
863.471252,445
863.588745,462
863.706177,453
863.82373,429
863.941162,461
864.058716,460
864.176208,448
864.29364,472
864.411194,422
864.528687,448
864.646118,456
864.763611,437
864.881042,457
864.998535,461
865.116028,455
865.233459,432
865.350891,451
865.468384,470
865.585754,450
865.703308,462
865.820679,439
865.938171,459
866.055542,441
866.173035,451
866.290466,447
866.407837,441
866.52533,457
866.6427,436
866.760071,456
866.877563,474
866.994934,446
867.112305,450
867.229736,453
867.347107,441
867.464539,456
867.58197,444
867.699341,447
867.81665,455
867.934082,460
868.051453,455
868.168823,454
868.286194,482
868.403564,436
868.520935,454
868.638306,450
868.755676,440
868.872986,461
868.990295,458
869.107727,448
869.225037,460
869.342346,465
869.459717,454
869.577026,456
869.694336,453
869.811707,450
869.929016,456
870.046326,451
870.163635,437
870.280945,447
870.398254,449
870.515564,444
870.632812,456
870.750183,449
870.867432,457
870.984741,459
871.102051,446
871.219299,462
871.336609,451
871.453918,443
871.571106,451
871.688416,444
871.805664,445
871.922852,440
872.040222,439
872.157471,454
872.274719,457
872.391968,436
872.509155,452
872.626465,465
872.743652,451
872.860962,448
872.978149,427
873.095337,455
873.212646,450
873.329834,462
873.44696,455
873.564209,440
873.681396,449
873.798645,444
873.915894,462
874.03302,437
874.150208,452
874.267456,450
874.384583,452
874.501831,445
874.618958,450
874.736145,432
874.853333,430
874.970459,457
875.087646,451
875.204834,451
875.32196,465
875.439148,448
875.556274,458
875.673401,463
875.790527,453
875.907715,455
876.024841,462
876.141968,438
876.259094,465
876.376282,457
876.493347,461
876.610474,457
876.7276,443
876.844727,447
876.961853,469
877.078918,447
877.195984,450
877.313171,442
877.430237,458
877.547302,448
877.664368,449
877.781433,462
877.898499,441
878.015625,441
878.13269,460
878.249695,462
878.366821,481
878.483887,444
878.600952,451
878.717957,449
878.834961,443
878.952087,454
879.069092,452
879.186157,461
879.303162,442
879.420227,464
879.537231,442
879.654236,452
879.77124,442
879.888306,429
880.005249,468
880.122314,433
880.239319,462
880.356323,412
880.473328,455
880.590271,459
880.707275,459
880.824341,459
880.941284,453
881.058228,459
881.175232,455
881.292236,443
881.40918,453
881.526123,436
881.643066,440
881.760071,435
881.877014,459
881.993958,459
882.11084,457
882.227783,454
882.344727,458
882.46167,457
882.578613,468
882.695618,441
882.812439,462
882.929382,456
883.046326,449
883.163208,484
883.280151,452
883.397034,450
883.513916,445
883.630798,442
883.747742,478
883.864563,470
883.981506,447
884.098389,460
884.21521,454
884.332153,435
884.448975,473
884.565796,459
884.682678,459
884.7995,463
884.916443,460
885.033264,452
885.150085,464
885.266968,467
885.383789,469
885.500671,459
885.617493,462
885.734314,454
885.851196,459
885.967896,453
886.084717,452
886.201599,457
886.318359,446
886.435181,432
886.552002,467
886.668762,473
886.785645,465
886.902344,447
887.019165,441
887.135925,468
887.252747,457
887.369446,453
887.486267,463
887.603027,455
887.719788,449
887.836548,470
887.953247,445
888.070068,464
888.186829,464
888.303528,462
888.420288,466
888.536987,469
888.653687,462
888.770447,459
888.887146,469
889.003967,480
889.120667,457
889.237305,451
889.354065,455
889.470703,455
889.587463,461
889.704163,455
889.820862,455
889.937561,457
890.054199,461
890.170837,456
890.287598,438
890.404236,461
890.520874,456
890.637634,447
890.754211,461
890.87085,462
890.987549,454
891.104187,485
891.220886,465
891.337463,457
891.454102,457
891.57074,461
891.687378,458
891.804077,458
891.920654,451
892.037231,468
892.15387,455
892.270447,460
892.387085,464
892.503723,453
892.6203,463
892.736877,465
892.853516,458
892.970032,459
893.08667,477
893.203186,461
893.319763,473
893.43634,458
893.552917,461
893.669556,463
893.786011,472
893.902588,470
894.019165,457
894.135681,450
894.252197,469
894.368835,456
894.485291,462
894.601868,446
894.718384,464
894.8349,451
894.951355,453
895.067932,486
895.184448,476
895.300964,466
895.417419,471
895.533936,465
895.650452,486
895.766907,464
895.883423,475
895.999878,464
896.116333,462
896.232849,463
896.349304,465
896.465759,461
896.582214,489
896.698669,462
896.815125,459
896.931641,466
897.048035,468
897.164551,486
897.280884,472
897.397339,453
897.513794,467
897.630249,459
897.746582,469
897.863098,463
897.979431,469
898.095886,452
898.212341,477
898.328674,463
898.445129,465
898.561462,488
898.677795,468
898.794312,462
898.910645,457
899.026978,469
899.143433,465
899.259766,451
899.37616,465
899.492493,458
899.608765,475
899.725159,461
899.841553,454
899.957947,469
900.07428,469
900.190552,475
900.306946,455
900.423157,464
900.53949,459
900.655884,462
900.772156,471
900.888489,474
901.004822,457
901.121033,483
901.237366,465
901.353699,457
901.46991,477
901.586304,467
901.702515,452
901.818787,467
901.93512,471
902.051331,464
902.167603,448
902.283875,470
902.400085,442
902.516418,458
902.632629,465
902.74884,471
902.865112,468
902.981384,453
903.097595,481
903.213867,455
903.330017,465
903.446289,481
903.5625,484
903.67865,471
903.794922,472
903.911072,450
904.027344,468
904.143494,442
904.259705,467
904.375916,459
904.492065,477
904.608215,465
904.724426,475
904.840576,447
904.956726,474
905.072876,484
905.189087,480
905.305176,452
905.421387,463
905.537537,458
905.653687,478
905.769775,455
905.885925,472
906.002014,482
906.118164,482
906.234314,437
906.350403,485
906.466492,465
906.582642,462
906.69873,468
906.814758,472
906.930908,470
907.046936,484
907.163086,468
907.279175,471
907.395264,477
907.511353,477
907.62738,466
907.743408,478
907.859497,483
907.975525,475
908.091553,488
908.207703,489
908.32373,476
908.439758,475
908.555786,470
908.671814,448
908.787842,470
908.90387,478
909.019775,488
909.135864,480
909.251892,448
909.367859,457
909.483826,481
909.599854,482
909.715881,462
909.831848,480
909.947815,475
910.063782,496
910.179749,465
910.295776,469
910.411743,465
910.527649,476
910.643616,472
910.759583,459
910.875488,474
910.991455,472
911.107361,467
911.223267,483
911.339294,475
911.4552,465
911.571106,461
911.687073,460
911.802979,482
911.918823,495
912.034729,478
912.150635,479
912.266602,462
912.382446,469
912.498352,489
912.614197,469
912.730103,478
912.846008,468
