792.44574,710
792.56488,754
792.68396,768
792.80304,757
792.92218,673
793.041199,685
793.160339,703
793.279419,683
793.398499,652
793.517578,673
793.636658,681
793.755737,661
793.874817,679
793.993896,674
794.112976,654
794.232056,643
794.351074,619
794.470215,659
794.589233,638
794.708313,635
794.827393,653
794.946411,639
795.065552,643
795.18457,632
795.303589,629
795.422668,623
795.541687,604
795.660767,635
795.779846,619
795.898865,613
796.017883,595
796.136963,611
796.255981,596
796.375061,597
796.49408,598
796.613037,616
796.732117,604
796.851135,616
796.970154,569
797.089233,597
797.208191,597
797.327271,610
797.446228,586
797.565186,599
797.684265,593
797.803223,596
797.922241,586
798.04126,601
798.160278,569
798.279297,590
798.398315,616
798.517273,601
798.636292,567
798.75531,580
798.874268,587
798.993286,586
799.112244,615
799.231323,596
799.350281,598
799.469238,603
799.588257,568
799.707153,585
799.826111,602
799.945129,590
800.064087,594
800.183044,577
800.302063,592
800.421021,599
800.539978,568
800.658936,579
800.777893,596
800.896912,581
801.015747,600
801.134705,578
801.253723,593
801.37262,581
801.491638,571
801.610535,588
801.729492,598
801.84845,585
801.967407,586
802.086243,580
802.205261,599
802.324158,592
802.443115,585
802.562073,593
802.680969,590
802.799927,590
802.918762,612
803.037659,593
803.156677,600
803.275574,602
803.39447,590
803.513428,610
803.632263,580
803.751221,582
803.870117,614
803.989014,585
804.107971,579
804.226746,588
804.345642,606
804.4646,588
804.583496,579
804.702393,598
804.821228,576
804.940125,616
805.059021,599
805.177917,592
805.296814,613
805.415649,604
805.534546,602
805.653442,603
805.772278,592
805.891113,614
806.01001,591
806.128906,586
806.247742,607
806.366577,605
806.485413,606
806.604309,576
806.723145,585
806.84198,582
806.960876,611
807.079712,613
807.198486,585
807.317383,584
807.436218,588
807.554993,617
807.673889,599
807.792725,581
807.91156,600
808.030396,596
808.14917,610
808.268005,617
808.386841,616
808.505676,595
808.624451,601
808.743286,596
808.862122,602
808.980896,613
809.099731,621
809.218506,614
809.337341,619
809.456116,626
809.57489,585
809.693726,638
809.8125,617
809.931274,613
810.050049,604
810.168884,617
810.287659,607
810.406372,612
810.525269,623
810.643982,615
810.762756,605
810.881531,637
811.000305,632
811.11908,615
811.237854,595
811.356567,644
811.475403,626
811.594116,640
811.71283,629
811.831604,612
811.950378,618
812.069153,612
812.187927,622
812.30658,651
812.425415,622
812.544128,658
812.662781,620
812.781616,637
812.900269,594
813.019043,621
813.137756,624
813.256531,644
813.375244,598
813.493896,607
813.612671,608
813.731384,614
813.850037,605
813.96875,605
814.087524,619
814.206238,592
814.324951,620
814.443604,612
814.562256,613
814.68103,593
814.799683,615
814.918335,607
815.037109,622
815.155762,595
815.274475,591
815.393188,609
815.511841,598
815.630554,588
815.749146,588
815.867859,598
815.986572,596
816.105164,596
816.223877,604
816.342529,594
816.461182,603
816.579895,581
816.698486,608
816.817139,615
816.935791,616
817.054504,589
817.173096,594
817.291748,607
817.4104,595
817.529053,586
817.647644,579
817.766235,590
817.884949,580
818.00354,566
818.122192,562
818.240845,539
818.359436,562
818.478088,526
818.59668,558
818.715271,522
818.833923,518
818.952515,526
819.071106,518
819.189758,532
819.30835,524
819.426941,509
819.545532,517
819.664124,503
819.782715,530
819.901306,495
820.019897,502
820.138489,516
820.25708,499
820.375671,499
820.494202,468
820.612732,488
820.731384,498
820.849915,472
820.968506,487
821.087097,500
821.205627,471
821.324158,483
821.442749,478
821.561279,472
821.679871,481
821.798401,510
821.916931,491
822.035461,480
822.154053,479
822.272583,504
822.391174,486
822.509583,487
822.628174,478
822.746704,486
822.865234,496
822.983765,505
823.102295,496
823.220825,499
823.339294,482
823.457825,481
823.576355,490
823.694824,473
823.813354,503
823.931885,466
824.050354,490
824.168884,487
824.287354,487
824.405823,496
824.524353,510
824.642822,488
824.761353,500
824.879822,480
824.998291,488
825.116699,485
825.235291,486
825.353699,489
825.472168,488
825.590637,481
825.709106,488
825.827576,484
825.946045,512
826.064453,487
826.182983,473
826.301392,494
826.4198,473
826.53833,483
826.656738,457
826.775208,461
826.893677,470
827.012024,462
827.130493,470
827.248962,489
827.36731,467
827.485779,467
827.604248,445
827.722595,459
827.841064,468
827.959412,477
828.077942,452
828.196289,474
828.314636,457
828.433105,467
828.551514,446
828.669861,484
828.78833,479
828.906677,451
829.025085,468
829.143433,475
829.261841,466
829.38031,461
829.498657,458
829.617004,469
829.735413,455
829.85376,459
829.972107,467
830.090515,450
830.208862,452
830.327209,447
830.445557,474
830.563904,475
830.682312,448
830.800659,462
830.919006,453
831.037354,469
831.155701,446
831.274048,468
831.392395,465
831.51062,470
831.629028,458
831.747314,455
831.865662,463
831.984009,448
832.102356,458
832.220642,468
832.338928,489
832.457275,466
832.575623,464
832.693909,469
832.812134,470
832.930481,475
833.048828,473
833.167114,452
833.2854,464
833.403687,472
833.521973,477
833.640259,460
833.758545,452
833.876831,464
833.995056,454
834.113281,475
834.231628,462
834.349915,464
834.468201,465
834.586426,454
834.704651,468
834.822998,457
834.941162,463
835.059448,452
835.177673,460
835.295959,476
835.414246,463
835.53241,485
835.650635,460
835.768921,463
835.887146,451
836.005371,451
836.123596,452
836.241821,467
836.360046,466
836.478271,463
836.596497,477
836.714722,470
836.832886,478
836.95105,494
837.069336,484
837.1875,451
837.305725,477
837.423889,489
837.542053,463
837.660339,477
837.778503,474
837.896667,491
838.014832,477
838.132996,471
838.25116,489
838.369385,480
838.487488,483
838.605713,465
838.723877,496
838.84198,474
838.960205,455
839.078308,485
839.196472,485
839.314636,498
839.4328,465
839.550964,491
839.669067,479
839.787231,480
839.905396,481
840.023499,475
840.141602,461
840.259766,494
840.377869,484
840.495972,497
840.614136,480
840.732239,472
840.850342,480
840.968445,465
841.086548,464
841.204651,484
841.322754,470
841.440918,487
841.55896,480
841.677002,476
841.795166,490
841.913208,452
842.031311,466
842.149353,465
842.267456,475
842.385498,467
842.503601,465
842.621643,486
842.739746,466
842.857788,474
842.97583,477
843.093933,470
843.211975,474
843.330017,475
843.44812,467
843.566101,479
843.684204,451
843.802246,461
843.920227,464
844.038269,476
844.156311,464
844.274292,444
844.392395,458
844.510376,443
844.628357,453
844.74646,476
844.864441,465
844.982422,466
845.100403,451
845.218384,467
845.336426,478
845.454468,479
845.572449,459
845.69043,472
845.808411,453
845.926453,490
846.044373,444
846.162354,460
846.280396,448
846.398315,469
846.516296,453
846.634216,463
846.752197,476
846.870178,477
846.988098,454
847.106079,462
847.22406,455
847.34198,456
847.4599,468
847.577881,450
847.695801,444
847.813782,485
847.931641,457
848.049561,450
848.167603,465
848.285461,459
848.403381,457
848.521362,454
848.639221,449
848.75708,473
848.875,462
848.99292,457
849.110901,453
849.22876,465
849.34668,478
849.464539,450
849.582458,459
849.700317,473
849.818176,448
849.936096,481
850.053955,458
850.171875,463
850.289673,456
850.407593,460
850.525452,459
850.643311,485
850.761169,438
850.878967,453
850.996887,447
851.114746,468
851.232544,463
851.350403,467
851.468262,451
851.58606,460
851.703979,436
851.821777,464
851.939636,431
852.057434,458
852.175232,463
852.293091,475
852.410889,461
852.528687,474
852.646545,468
852.764343,460
852.88208,474
852.999939,467
853.117676,468
853.235535,471
853.353271,455
853.471069,460
853.588928,448
853.706604,463
853.824402,474
853.9422,479
854.059998,475
854.177734,468
854.295532,453
854.413269,458
854.531006,468
854.648804,473
854.766541,471
854.884277,457
855.002014,474
855.119751,483
855.237549,479
855.355225,477
855.473022,471
855.590698,456
855.708435,457
855.826172,481
855.943848,481
856.061646,466
856.179321,464
856.296997,463
856.414795,479
856.53241,477
856.650085,470
856.767822,492
856.885559,467
857.003174,459
857.120911,473
857.238586,472
857.356201,463
857.473938,462
857.591614,475
857.709351,472
857.826965,468
857.944641,465
858.062317,456
858.179993,476
858.297668,481
858.415283,480
858.532959,483
858.650574,475
858.768188,477
858.885803,474
859.003479,453
859.121094,477
859.23877,467
859.356384,471
859.473999,458
859.591675,485
859.709229,453
859.826843,466
859.944458,450
860.062012,464
860.179626,444
860.297302,461
860.414856,466
860.532471,473
860.650024,458
860.767639,469
860.885193,471
861.002808,452
861.120361,449
861.237976,459
861.35553,469
861.473022,453
861.590698,482
861.708191,467
861.825745,459
861.943298,461
862.060852,461
862.178406,470
862.295959,468
862.413513,456
862.531006,454
862.64856,460
862.766113,456
862.883667,465
863.00116,426
863.118713,468
863.236206,450
863.353699,475
863.471252,460
863.588745,469
863.706177,452
863.82373,466
863.941162,456
864.058716,485
864.176208,451
864.29364,450
864.411194,456
864.528687,465
864.646118,446
864.763611,461
864.881042,448
864.998535,447
865.116028,461
865.233459,483
865.350891,458
865.468384,453
865.585754,467
865.703308,466
865.820679,480
865.938171,470
866.055542,440
866.173035,459
866.290466,457
866.407837,462
866.52533,468
866.6427,474
866.760071,466
866.877563,456
866.994934,450
867.112305,452
867.229736,450
867.347107,452
867.464539,452
867.58197,478
867.699341,441
867.81665,461
867.934082,462
868.051453,437
868.168823,450
868.286194,479
868.403564,437
868.520935,460
868.638306,448
868.755676,438
868.872986,472
868.990295,478
869.107727,481
869.225037,451
869.342346,459
869.459717,453
869.577026,452
869.694336,464
869.811707,467
869.929016,469
870.046326,474
870.163635,452
870.280945,456
870.398254,455
870.515564,471
870.632812,453
870.750183,470
870.867432,467
870.984741,457
871.102051,473
871.219299,452
871.336609,487
871.453918,465
871.571106,468
871.688416,484
871.805664,453
871.922852,469
872.040222,454
872.157471,449
872.274719,465
872.391968,469
872.509155,480
872.626465,460
872.743652,453
872.860962,465
872.978149,484
873.095337,491
873.212646,462
873.329834,454
873.44696,443
873.564209,464
873.681396,482
873.798645,447
873.915894,468
874.03302,471
874.150208,473
874.267456,476
874.384583,473
874.501831,468
874.618958,479
874.736145,452
874.853333,460
874.970459,453
875.087646,485
875.204834,456
875.32196,462
875.439148,463
875.556274,491
875.673401,471
875.790527,454
875.907715,443
876.024841,463
876.141968,472
876.259094,458
876.376282,470
876.493347,458
876.610474,456
876.7276,452
876.844727,458
876.961853,491
877.078918,467
877.195984,465
877.313171,463
877.430237,445
877.547302,476
877.664368,472
877.781433,468
877.898499,452
878.015625,463
878.13269,458
878.249695,490
878.366821,464
878.483887,456
878.600952,461
878.717957,472
878.834961,478
878.952087,449
879.069092,483
879.186157,464
879.303162,458
879.420227,466
879.537231,462
879.654236,466
879.77124,482
879.888306,461
880.005249,475
880.122314,446
880.239319,454
880.356323,439
880.473328,465
880.590271,455
880.707275,461
880.824341,447
880.941284,446
881.058228,469
881.175232,446
881.292236,446
881.40918,456
881.526123,454
881.643066,465
881.760071,481
881.877014,461
881.993958,445
882.11084,456
882.227783,458
882.344727,464
882.46167,454
882.578613,456
882.695618,474
882.812439,467
882.929382,464
883.046326,460
883.163208,474
883.280151,463
883.397034,445
883.513916,448
883.630798,453
883.747742,471
883.864563,455
883.981506,447
884.098389,466
884.21521,449
884.332153,459
884.448975,457
884.565796,461
884.682678,480
884.7995,454
884.916443,465
885.033264,480
885.150085,493
885.266968,462
885.383789,502
885.500671,498
885.617493,495
885.734314,480
885.851196,479
885.967896,479
886.084717,481
886.201599,452
886.318359,492
886.435181,483
886.552002,473
886.668762,456
886.785645,487
886.902344,470
887.019165,461
887.135925,485
887.252747,469
887.369446,483
887.486267,484
887.603027,465
887.719788,468
887.836548,476
887.953247,478
888.070068,455
888.186829,505
888.303528,466
888.420288,453
888.536987,446
888.653687,450
888.770447,443
888.887146,458
889.003967,451
889.120667,460
889.237305,470
889.354065,457
889.470703,471
889.587463,469
889.704163,445
889.820862,479
889.937561,467
890.054199,441
890.170837,463
890.287598,445
890.404236,468
890.520874,475
890.637634,457
890.754211,454
890.87085,437
890.987549,457
891.104187,474
891.220886,455
891.337463,456
891.454102,469
891.57074,448
891.687378,448
891.804077,465
891.920654,457
892.037231,448
892.15387,469
892.270447,468
892.387085,464
892.503723,473
892.6203,447
892.736877,461
892.853516,478
892.970032,425
893.08667,469
893.203186,448
893.319763,460
893.43634,451
893.552917,455
893.669556,461
893.786011,469
893.902588,465
894.019165,470
894.135681,464
894.252197,468
894.368835,446
894.485291,475
894.601868,475
894.718384,454
894.8349,462
894.951355,473
895.067932,465
895.184448,461
895.300964,454
895.417419,445
895.533936,470
895.650452,455
895.766907,473
895.883423,458
895.999878,462
896.116333,470
896.232849,461
896.349304,462
896.465759,460
896.582214,473
896.698669,471
896.815125,466
896.931641,474
897.048035,454
897.164551,462
897.280884,463
897.397339,458
897.513794,471
897.630249,463
897.746582,470
897.863098,468
897.979431,477
898.095886,463
898.212341,456
898.328674,463
898.445129,466
898.561462,475
898.677795,500
898.794312,435
898.910645,442
899.026978,451
899.143433,453
899.259766,443
899.37616,468
899.492493,454
899.608765,465
899.725159,461
899.841553,463
899.957947,469
900.07428,461
900.190552,464
900.306946,459
900.423157,459
900.53949,473
900.655884,463
900.772156,461
900.888489,473
901.004822,460
901.121033,455
901.237366,462
901.353699,486
901.46991,470
901.586304,455
901.702515,466
901.818787,469
901.93512,465
902.051331,478
902.167603,455
902.283875,459
902.400085,493
902.516418,465
902.632629,476
902.74884,481
902.865112,491
902.981384,479
903.097595,475
903.213867,496
903.330017,493
903.446289,489
903.5625,506
903.67865,465
903.794922,480
903.911072,469
904.027344,476
904.143494,480
904.259705,470
904.375916,458
904.492065,471
904.608215,469
904.724426,483
904.840576,465
904.956726,476
905.072876,484
905.189087,475
905.305176,471
905.421387,465
905.537537,481
905.653687,471
905.769775,469
905.885925,490
906.002014,467
906.118164,472
906.234314,457
906.350403,465
906.466492,453
906.582642,461
906.69873,468
906.814758,473
906.930908,457
907.046936,470
907.163086,488
907.279175,488
907.395264,450
907.511353,463
907.62738,467
907.743408,456
907.859497,468
907.975525,469
908.091553,471
908.207703,461
908.32373,470
908.439758,474
908.555786,440
908.671814,482
908.787842,474
908.90387,477
909.019775,474
909.135864,471
909.251892,450
909.367859,468
909.483826,456
909.599854,469
909.715881,454
909.831848,467
909.947815,452
910.063782,469
910.179749,464
910.295776,482
910.411743,467
910.527649,463
910.643616,471
910.759583,472
910.875488,478
910.991455,455
911.107361,483
911.223267,464
911.339294,469
911.4552,474
911.571106,468
911.687073,473
911.802979,486
911.918823,451
912.034729,468
912.150635,447
912.266602,461
912.382446,464
912.498352,447
912.614197,471
912.730103,475
912.846008,462
792.44574,705
792.56488,740
792.68396,794
792.80304,744
792.92218,691
793.041199,687
793.160339,679
793.279419,724
793.398499,695
793.517578,667
793.636658,664
793.755737,674
793.874817,680
793.993896,685
794.112976,621
794.232056,662
794.351074,637
794.470215,669
794.589233,638
794.708313,631
794.827393,641
794.946411,635
795.065552,640
795.18457,636
795.303589,628
795.422668,619
795.541687,643
795.660767,632
795.779846,621
795.898865,614
796.017883,628
796.136963,626
796.255981,629
796.375061,612
796.49408,618
796.613037,612
796.732117,606
796.851135,609
796.970154,600
797.089233,616
797.208191,599
797.327271,602
797.446228,634
797.565186,583
797.684265,610
797.803223,611
797.922241,613
798.04126,585
798.160278,574
798.279297,618
798.398315,589
798.517273,612
798.636292,602
798.75531,589
798.874268,605
798.993286,594
799.112244,596
799.231323,582
799.350281,590
799.469238,586
799.588257,600
799.707153,595
799.826111,603
799.945129,594
800.064087,613
800.183044,593
800.302063,618
800.421021,596
800.539978,582
800.658936,571
800.777893,600
800.896912,609
801.015747,581
801.134705,601
801.253723,582
801.37262,599
801.491638,589
801.610535,584
801.729492,604
801.84845,575
801.967407,580
802.086243,592
802.205261,596
802.324158,597
802.443115,604
802.562073,594
802.680969,616
802.799927,583
802.918762,594
803.037659,583
803.156677,579
803.275574,592
803.39447,592
803.513428,576
803.632263,590
803.751221,601
803.870117,604
803.989014,607
804.107971,592
804.226746,597
804.345642,603
804.4646,602
804.583496,593
804.702393,598
804.821228,578
804.940125,627
805.059021,603
805.177917,613
805.296814,609
805.415649,616
805.534546,605
805.653442,614
805.772278,631
805.891113,590
806.01001,620
806.128906,607
806.247742,596
806.366577,625
806.485413,604
806.604309,609
806.723145,610
806.84198,634
806.960876,593
807.079712,590
807.198486,610
807.317383,607
807.436218,608
807.554993,611
807.673889,605
807.792725,601
807.91156,594
808.030396,599
808.14917,615
808.268005,608
808.386841,614
808.505676,621
808.624451,600
808.743286,614
808.862122,616
808.980896,623
809.099731,634
809.218506,598
809.337341,618
809.456116,617
809.57489,595
809.693726,590
809.8125,624
809.931274,624
810.050049,613
810.168884,628
810.287659,624
810.406372,609
810.525269,627
810.643982,594
810.762756,624
810.881531,612
811.000305,609
811.11908,655
811.237854,625
811.356567,629
811.475403,618
811.594116,611
811.71283,636
811.831604,632
811.950378,621
812.069153,612
812.187927,635
812.30658,623
812.425415,592
812.544128,632
812.662781,609
812.781616,605
812.900269,620
813.019043,627
813.137756,633
813.256531,607
813.375244,600
813.493896,623
813.612671,627
813.731384,611
813.850037,605
813.96875,606
814.087524,617
814.206238,623
814.324951,616
814.443604,599
814.562256,601
814.68103,615
814.799683,619
814.918335,616
815.037109,616
815.155762,620
815.274475,609
815.393188,604
815.511841,598
815.630554,624
815.749146,607
815.867859,613
815.986572,598
816.105164,590
816.223877,604
816.342529,599
816.461182,608
816.579895,604
816.698486,599
816.817139,637
816.935791,602
817.054504,618
817.173096,603
817.291748,610
817.4104,609
817.529053,586
817.647644,589
817.766235,578
817.884949,581
818.00354,555
818.122192,570
818.240845,555
818.359436,564
818.478088,548
818.59668,556
818.715271,531
818.833923,521
818.952515,530
819.071106,522
819.189758,520
819.30835,516
819.426941,513
819.545532,534
819.664124,518
819.782715,512
819.901306,519
820.019897,524
820.138489,520
820.25708,505
820.375671,508
820.494202,508
820.612732,499
820.731384,510
820.849915,512
820.968506,487
821.087097,490
821.205627,489
821.324158,497
821.442749,512
821.561279,493
821.679871,501
821.798401,481
821.916931,502
822.035461,499
822.154053,495
822.272583,504
822.391174,483
822.509583,486
822.628174,481
822.746704,505
822.865234,482
822.983765,482
823.102295,492
823.220825,481
823.339294,491
823.457825,515
823.576355,501
823.694824,503
823.813354,489
823.931885,504
824.050354,463
824.168884,499
824.287354,479
824.405823,500
824.524353,481
824.642822,484
824.761353,499
824.879822,465
824.998291,486
825.116699,490
825.235291,488
825.353699,480
825.472168,489
825.590637,489
825.709106,496
825.827576,484
825.946045,494
826.064453,477
826.182983,465
826.301392,485
826.4198,467
826.53833,468
826.656738,465
826.775208,486
826.893677,474
827.012024,469
827.130493,484
827.248962,481
827.36731,455
827.485779,470
827.604248,477
827.722595,471
827.841064,446
827.959412,451
828.077942,473
828.196289,488
828.314636,480
828.433105,471
828.551514,465
828.669861,444
828.78833,481
828.906677,460
829.025085,462
829.143433,468
829.261841,468
829.38031,468
829.498657,474
829.617004,492
829.735413,463
829.85376,467
829.972107,484
830.090515,456
830.208862,476
830.327209,470
830.445557,457
830.563904,475
830.682312,475
830.800659,453
830.919006,475
831.037354,484
831.155701,468
831.274048,496
831.392395,457
831.51062,469
831.629028,470
831.747314,456
831.865662,485
831.984009,476
832.102356,481
832.220642,444
832.338928,491
832.457275,462
832.575623,469
832.693909,445
832.812134,467
832.930481,486
833.048828,462
833.167114,454
833.2854,475
833.403687,472
833.521973,461
833.640259,471
833.758545,464
833.876831,444
833.995056,473
834.113281,474
834.231628,492
834.349915,477
834.468201,458
834.586426,473
834.704651,468
834.822998,471
834.941162,464
835.059448,473
835.177673,457
835.295959,452
835.414246,469
835.53241,458
835.650635,463
835.768921,466
835.887146,465
836.005371,477
836.123596,469
836.241821,462
836.360046,487
836.478271,469
836.596497,473
836.714722,478
836.832886,457
836.95105,479
837.069336,470
837.1875,475
837.305725,481
837.423889,483
837.542053,464
837.660339,489
837.778503,507
837.896667,474
838.014832,480
838.132996,469
838.25116,488
838.369385,476
838.487488,487
838.605713,487
838.723877,474
838.84198,495
838.960205,482
839.078308,483
839.196472,467
839.314636,456
839.4328,467
839.550964,487
839.669067,459
839.787231,467
839.905396,487
840.023499,478
840.141602,496
840.259766,479
840.377869,473
840.495972,490
840.614136,473
840.732239,501
840.850342,467
840.968445,477
841.086548,477
841.204651,488
841.322754,478
841.440918,470
841.55896,492
841.677002,465
841.795166,468
841.913208,461
842.031311,466
842.149353,476
842.267456,483
842.385498,482
842.503601,476
842.621643,453
842.739746,464
842.857788,480
842.97583,450
843.093933,461
843.211975,463
843.330017,459
843.44812,491
843.566101,470
843.684204,449
843.802246,469
843.920227,463
844.038269,450
844.156311,487
844.274292,469
844.392395,462
844.510376,451
844.628357,464
844.74646,472
844.864441,472
844.982422,455
845.100403,475
845.218384,460
845.336426,457
845.454468,472
845.572449,452
845.69043,454
845.808411,472
845.926453,475
846.044373,458
846.162354,448
846.280396,464
846.398315,465
846.516296,461
846.634216,471
846.752197,469
846.870178,478
846.988098,463
847.106079,471
847.22406,470
847.34198,468
847.4599,471
847.577881,451
847.695801,464
847.813782,465
847.931641,458
848.049561,470
848.167603,447
848.285461,471
848.403381,458
848.521362,472
848.639221,474
848.75708,457
848.875,456
848.99292,460
849.110901,443
849.22876,469
849.34668,457
849.464539,479
849.582458,455
849.700317,463
849.818176,462
849.936096,468
850.053955,452
850.171875,466
850.289673,473
850.407593,462
850.525452,461
850.643311,479
850.761169,458
850.878967,463
850.996887,457
851.114746,475
851.232544,462
851.350403,464
851.468262,443
851.58606,461
851.703979,465
851.821777,463
851.939636,478
852.057434,453
852.175232,468
852.293091,472
852.410889,471
852.528687,468
852.646545,467
852.764343,477
852.88208,486
852.999939,469
853.117676,456
853.235535,466
853.353271,457
853.471069,491
853.588928,451
853.706604,463
853.824402,464
853.9422,458
854.059998,469
854.177734,464
854.295532,453
854.413269,464
854.531006,477
854.648804,471
854.766541,467
854.884277,463
855.002014,457
855.119751,488
855.237549,454
855.355225,478
855.473022,460
855.590698,454
855.708435,482
855.826172,473
855.943848,485
856.061646,465
856.179321,461
856.296997,468
856.414795,483
856.53241,484
856.650085,474
856.767822,471
856.885559,465
857.003174,460
857.120911,465
857.238586,484
857.356201,462
857.473938,450
857.591614,478
857.709351,478
857.826965,481
857.944641,466
858.062317,471
858.179993,463
858.297668,476
858.415283,484
858.532959,483
858.650574,456
858.768188,463
858.885803,500
859.003479,474
859.121094,468
859.23877,468
859.356384,473
859.473999,456
859.591675,493
859.709229,461
859.826843,491
859.944458,448
860.062012,454
860.179626,461
860.297302,474
860.414856,439
860.532471,474
860.650024,482
860.767639,444
860.885193,482
861.002808,460
861.120361,459
861.237976,467
861.35553,452
861.473022,457
861.590698,448
861.708191,465
861.825745,469
861.943298,452
862.060852,465
862.178406,458
862.295959,468
862.413513,457
862.531006,466
862.64856,460
862.766113,467
862.883667,460
863.00116,462
863.118713,469
863.236206,464
863.353699,450
863.471252,464
863.588745,478
863.706177,454
863.82373,469
863.941162,459
864.058716,477
864.176208,463
864.29364,471
864.411194,445
864.528687,452
864.646118,468
864.763611,469
864.881042,470
864.998535,482
865.116028,469
865.233459,463
865.350891,452
865.468384,465
865.585754,462
865.703308,486
865.820679,452
865.938171,475
866.055542,445
866.173035,453
866.290466,488
866.407837,457
866.52533,472
866.6427,471
866.760071,468
866.877563,459
866.994934,440
867.112305,462
867.229736,465
867.347107,474
867.464539,452
867.58197,472
867.699341,454
867.81665,483
867.934082,456
868.051453,462
868.168823,470
868.286194,461
868.403564,476
868.520935,463
868.638306,448
868.755676,464
868.872986,465
868.990295,447
869.107727,479
869.225037,496
869.342346,468
869.459717,462
869.577026,473
869.694336,469
869.811707,458
869.929016,465
870.046326,448
870.163635,498
870.280945,476
870.398254,474
870.515564,481
870.632812,478
870.750183,477
870.867432,474
870.984741,473
871.102051,466
871.219299,463
871.336609,474
871.453918,470
871.571106,452
871.688416,472
871.805664,467
871.922852,487
872.040222,486
872.157471,458
872.274719,478
872.391968,478
872.509155,482
872.626465,453
872.743652,473
872.860962,459
872.978149,462
873.095337,472
873.212646,482
873.329834,472
873.44696,456
873.564209,471
873.681396,454
873.798645,439
873.915894,469
874.03302,472
874.150208,459
874.267456,477
874.384583,467
874.501831,468
874.618958,492
874.736145,475
874.853333,470
874.970459,468
875.087646,481
875.204834,469
875.32196,472
875.439148,465
875.556274,466
875.673401,465
875.790527,474
875.907715,467
876.024841,482
876.141968,456
876.259094,478
876.376282,465
876.493347,472
876.610474,450
876.7276,462
876.844727,476
876.961853,479
877.078918,461
877.195984,484
877.313171,473
877.430237,464
877.547302,448
877.664368,465
877.781433,468
877.898499,463
878.015625,473
878.13269,456
878.249695,456
878.366821,486
878.483887,464
878.600952,460
878.717957,456
878.834961,482
878.952087,464
879.069092,466
879.186157,465
879.303162,468
879.420227,461
879.537231,461
879.654236,459
879.77124,454
879.888306,464
880.005249,449
880.122314,452
880.239319,447
880.356323,476
880.473328,482
880.590271,460
880.707275,469
880.824341,452
880.941284,456
881.058228,463
881.175232,457
881.292236,441
881.40918,463
881.526123,461
881.643066,447
881.760071,469
881.877014,466
881.993958,475
882.11084,456
882.227783,449
882.344727,454
882.46167,455
882.578613,438
882.695618,464
882.812439,460
882.929382,464
883.046326,465
883.163208,454
883.280151,469
883.397034,480
883.513916,481
883.630798,456
883.747742,468
883.864563,441
883.981506,460
884.098389,481
884.21521,460
884.332153,451
884.448975,473
884.565796,478
884.682678,463
884.7995,481
884.916443,457
885.033264,466
885.150085,472
885.266968,462
885.383789,472
885.500671,499
885.617493,497
885.734314,476
885.851196,471
885.967896,500
886.084717,463
886.201599,511
886.318359,498
886.435181,465
886.552002,486
886.668762,479
886.785645,491
886.902344,463
887.019165,489
887.135925,479
887.252747,479
887.369446,471
887.486267,498
887.603027,463
887.719788,478
887.836548,479
887.953247,471
888.070068,463
888.186829,470
888.303528,471
888.420288,482
888.536987,467
888.653687,476
888.770447,468
888.887146,479
889.003967,466
889.120667,458
889.237305,463
889.354065,467
889.470703,462
889.587463,454
889.704163,463
889.820862,452
889.937561,472
890.054199,460
890.170837,442
890.287598,480
890.404236,450
890.520874,462
890.637634,469
890.754211,464
890.87085,470
890.987549,457
891.104187,464
891.220886,464
891.337463,467
891.454102,466
891.57074,462
891.687378,477
891.804077,462
891.920654,448
892.037231,468
892.15387,462
892.270447,461
892.387085,441
892.503723,465
892.6203,481
892.736877,475
892.853516,472
892.970032,454
893.08667,474
893.203186,453
893.319763,462
893.43634,455
893.552917,451
893.669556,453
893.786011,465
893.902588,461
894.019165,462
894.135681,467
894.252197,464
894.368835,467
894.485291,490
894.601868,472
894.718384,458
894.8349,467
894.951355,474
895.067932,463
895.184448,469
895.300964,490
895.417419,453
895.533936,460
895.650452,452
895.766907,468
895.883423,459
895.999878,446
896.116333,474
896.232849,458
896.349304,460
896.465759,454
896.582214,479
896.698669,498
896.815125,479
896.931641,462
897.048035,474
897.164551,474
897.280884,467
897.397339,472
897.513794,463
897.630249,471
897.746582,476
897.863098,472
897.979431,467
898.095886,447
898.212341,464
898.328674,454
898.445129,468
898.561462,458
898.677795,467
898.794312,467
898.910645,470
899.026978,481
899.143433,465
899.259766,467
899.37616,466
899.492493,454
899.608765,475
899.725159,446
899.841553,484
899.957947,488
900.07428,473
900.190552,466
900.306946,476
900.423157,457
900.53949,483
900.655884,461
900.772156,468
900.888489,476
901.004822,484
901.121033,460
901.237366,461
901.353699,488
901.46991,467
901.586304,479
901.702515,494
901.818787,460
901.93512,461
902.051331,478
902.167603,484
902.283875,479
902.400085,473
902.516418,482
902.632629,464
902.74884,481
902.865112,481
902.981384,473
903.097595,487
903.213867,480
903.330017,500
903.446289,474
903.5625,469
903.67865,468
903.794922,484
903.911072,488
904.027344,471
904.143494,477
904.259705,469
904.375916,476
904.492065,454
904.608215,479
904.724426,449
904.840576,465
904.956726,470
905.072876,464
905.189087,474
905.305176,451
905.421387,483
905.537537,463
905.653687,466
905.769775,478
905.885925,484
906.002014,457
906.118164,472
906.234314,465
906.350403,477
906.466492,474
906.582642,485
906.69873,464
906.814758,478
906.930908,473
907.046936,462
907.163086,471
907.279175,495
907.395264,474
907.511353,472
907.62738,459
907.743408,465
907.859497,456
907.975525,472
908.091553,480
908.207703,478
908.32373,458
908.439758,464
908.555786,478
908.671814,463
908.787842,470
908.90387,451
909.019775,463
909.135864,468
909.251892,464
909.367859,475
909.483826,454
909.599854,473
909.715881,461
909.831848,464
909.947815,460
910.063782,476
910.179749,454
910.295776,470
910.411743,474
910.527649,469
910.643616,466
910.759583,472
910.875488,470
910.991455,468
911.107361,465
911.223267,472
911.339294,471
911.4552,470
911.571106,452
911.687073,481
911.802979,476
911.918823,471
912.034729,455
912.150635,477
912.266602,452
912.382446,478
912.498352,458
912.614197,465
912.730103,479
912.846008,472
792.44574,723
792.56488,747
792.68396,786
792.80304,764
792.92218,715
793.041199,701
793.160339,689
793.279419,701
793.398499,688
793.517578,657
793.636658,672
793.755737,660
793.874817,686
793.993896,690
794.112976,672
794.232056,643
794.351074,639
794.470215,660
794.589233,627
794.708313,609
794.827393,632
794.946411,644
795.065552,663
795.18457,635
795.303589,633
795.422668,632
795.541687,630
795.660767,632
795.779846,633
795.898865,623
796.017883,622
796.136963,614
796.255981,611
796.375061,600
796.49408,638
796.613037,620
796.732117,599
796.851135,611
796.970154,595
797.089233,605
797.208191,620
797.327271,590
797.446228,608
797.565186,580
797.684265,607
797.803223,583
797.922241,595
798.04126,604
798.160278,617
798.279297,601
798.398315,598
798.517273,586
798.636292,598
798.75531,596
798.874268,607
798.993286,581
799.112244,588
799.231323,585
799.350281,596
799.469238,617
799.588257,587
799.707153,586
799.826111,590
799.945129,592
800.064087,610
800.183044,563
800.302063,602
800.421021,604
800.539978,593
800.658936,584
800.777893,598
800.896912,568
801.015747,586
801.134705,581
801.253723,599
801.37262,623
801.491638,589
801.610535,587
801.729492,575
801.84845,586
801.967407,580
802.086243,594
802.205261,606
802.324158,581
802.443115,596
802.562073,573
802.680969,619
802.799927,592
802.918762,582
803.037659,610
803.156677,598
803.275574,595
803.39447,591
803.513428,590
803.632263,596
803.751221,593
803.870117,602
803.989014,600
804.107971,612
804.226746,605
804.345642,575
804.4646,595
804.583496,603
804.702393,592
804.821228,606
804.940125,607
805.059021,610
805.177917,616
805.296814,625
805.415649,603
805.534546,604
805.653442,609
805.772278,607
805.891113,590
806.01001,596
806.128906,609
806.247742,611
806.366577,601
806.485413,632
806.604309,612
806.723145,609
806.84198,623
806.960876,612
807.079712,607
807.198486,611
807.317383,605
807.436218,619
807.554993,609
807.673889,595
807.792725,589
807.91156,603
808.030396,610
808.14917,621
808.268005,615
808.386841,596
808.505676,644
808.624451,597
808.743286,615
808.862122,610
808.980896,610
809.099731,628
809.218506,625
809.337341,621
809.456116,611
809.57489,632
809.693726,621
809.8125,620
809.931274,620
810.050049,598
810.168884,629
810.287659,633
810.406372,617
810.525269,601
810.643982,626
810.762756,630
810.881531,637
811.000305,621
811.11908,629
811.237854,634
811.356567,631
811.475403,620
811.594116,620
811.71283,601
811.831604,614
811.950378,643
812.069153,650
812.187927,624
812.30658,623
812.425415,636
812.544128,613
812.662781,609
812.781616,608
812.900269,605
813.019043,637
813.137756,633
813.256531,617
813.375244,628
813.493896,623
813.612671,655
813.731384,584
813.850037,594
813.96875,622
814.087524,614
814.206238,622
814.324951,630
814.443604,607
814.562256,635
814.68103,619
814.799683,620
814.918335,620
815.037109,612
815.155762,602
815.274475,629
815.393188,595
815.511841,608
815.630554,627
815.749146,625
815.867859,591
815.986572,608
816.105164,593
816.223877,593
816.342529,619
816.461182,604
816.579895,602
816.698486,613
816.817139,610
816.935791,593
817.054504,619
817.173096,617
817.291748,599
817.4104,622
817.529053,598
817.647644,599
817.766235,601
817.884949,605
818.00354,552
818.122192,562
818.240845,554
818.359436,547
818.478088,552
818.59668,544
818.715271,537
818.833923,544
818.952515,534
819.071106,495
819.189758,521
819.30835,521
819.426941,520
819.545532,506
819.664124,520
819.782715,519
819.901306,505
820.019897,512
820.138489,508
820.25708,501
820.375671,506
820.494202,478
820.612732,498
820.731384,504
820.849915,507
820.968506,493
821.087097,475
821.205627,516
821.324158,488
821.442749,479
821.561279,506
821.679871,481
821.798401,480
821.916931,477
822.035461,481
822.154053,496
822.272583,469
822.391174,510
822.509583,486
822.628174,489
822.746704,499
822.865234,477
822.983765,487
823.102295,506
823.220825,493
823.339294,477
823.457825,481
823.576355,496
823.694824,479
823.813354,496
823.931885,493
824.050354,470
824.168884,498
824.287354,510
824.405823,484
824.524353,484
824.642822,493
824.761353,478
824.879822,496
824.998291,482
825.116699,478
825.235291,516
825.353699,501
825.472168,500
825.590637,494
825.709106,489
825.827576,481
825.946045,462
826.064453,494
826.182983,489
826.301392,485
826.4198,475
826.53833,466
826.656738,473
826.775208,453
826.893677,477
827.012024,496
827.130493,467
827.248962,461
827.36731,472
827.485779,489
827.604248,480
827.722595,464
827.841064,466
827.959412,460
828.077942,469
828.196289,482
828.314636,473
828.433105,469
828.551514,477
828.669861,458
828.78833,468
828.906677,454
829.025085,479
829.143433,450
829.261841,480
829.38031,470
829.498657,464
829.617004,461
829.735413,480
829.85376,479
829.972107,478
830.090515,470
830.208862,448
830.327209,471
830.445557,476
830.563904,452
830.682312,469
830.800659,469
830.919006,465
831.037354,484
831.155701,457
831.274048,447
831.392395,461
831.51062,479
831.629028,462
831.747314,458
831.865662,450
831.984009,458
832.102356,466
832.220642,476
832.338928,466
832.457275,466
832.575623,463
832.693909,458
832.812134,470
832.930481,458
833.048828,457
833.167114,475
833.2854,457
833.403687,465
833.521973,470
833.640259,468
833.758545,475
833.876831,480
833.995056,474
834.113281,493
834.231628,480
834.349915,456
834.468201,470
834.586426,474
834.704651,485
834.822998,448
834.941162,499
835.059448,469
835.177673,488
835.295959,471
835.414246,474
835.53241,465
835.650635,466
835.768921,466
835.887146,475
836.005371,482
836.123596,465
836.241821,465
836.360046,464
836.478271,487
836.596497,473
836.714722,480
836.832886,503
836.95105,478
837.069336,459
837.1875,478
837.305725,471
837.423889,477
837.542053,486
837.660339,472
837.778503,497
837.896667,479
838.014832,497
838.132996,469
838.25116,497
838.369385,500
838.487488,481
838.605713,475
838.723877,471
838.84198,445
838.960205,484
839.078308,504
839.196472,481
839.314636,494
839.4328,469
839.550964,476
839.669067,477
839.787231,477
839.905396,499
840.023499,463
840.141602,470
840.259766,485
840.377869,482
840.495972,468
840.614136,488
840.732239,469
840.850342,474
840.968445,472
841.086548,466
841.204651,463
841.322754,478
841.440918,448
841.55896,497
841.677002,492
841.795166,483
841.913208,478
842.031311,479
842.149353,477
842.267456,472
842.385498,460
842.503601,483
842.621643,452
842.739746,460
842.857788,466
842.97583,468
843.093933,455
843.211975,486
843.330017,477
843.44812,482
843.566101,446
843.684204,451
843.802246,475
843.920227,494
844.038269,452
844.156311,463
844.274292,477
844.392395,478
844.510376,460
844.628357,465
844.74646,452
844.864441,454
844.982422,479
845.100403,465
845.218384,462
845.336426,462
845.454468,484
845.572449,457
845.69043,453
845.808411,465
845.926453,452
846.044373,494
846.162354,474
846.280396,462
846.398315,463
846.516296,455
846.634216,462
846.752197,484
846.870178,471
846.988098,476
847.106079,457
847.22406,462
847.34198,459
847.4599,463
847.577881,472
847.695801,463
847.813782,449
847.931641,462
848.049561,484
848.167603,450
848.285461,445
848.403381,490
848.521362,476
848.639221,462
848.75708,463
848.875,440
848.99292,463
849.110901,481
849.22876,477
849.34668,473
849.464539,460
849.582458,470
849.700317,447
849.818176,468
849.936096,458
850.053955,462
850.171875,469
850.289673,450
850.407593,453
850.525452,454
850.643311,459
850.761169,478
850.878967,465
850.996887,460
851.114746,457
851.232544,470
851.350403,464
851.468262,452
851.58606,453
851.703979,468
851.821777,472
851.939636,468
852.057434,449
852.175232,460
852.293091,475
852.410889,468
852.528687,476
852.646545,474
852.764343,484
852.88208,470
852.999939,477
853.117676,471
853.235535,475
853.353271,482
853.471069,474
853.588928,462
853.706604,447
853.824402,472
853.9422,454
854.059998,463
854.177734,477
854.295532,474
854.413269,450
854.531006,477
854.648804,463
854.766541,482
854.884277,475
855.002014,472
855.119751,477
855.237549,479
855.355225,470
855.473022,470
855.590698,479
855.708435,450
855.826172,473
855.943848,475
856.061646,476
856.179321,481
856.296997,481
856.414795,486
856.53241,459
856.650085,486
856.767822,471
856.885559,485
857.003174,478
857.120911,474
857.238586,486
857.356201,466
857.473938,495
857.591614,484
857.709351,463
857.826965,467
857.944641,489
858.062317,457
858.179993,468
858.297668,474
858.415283,481
858.532959,477
858.650574,481
858.768188,452
858.885803,451
859.003479,485
859.121094,469
859.23877,473
859.356384,483
859.473999,445
859.591675,475
859.709229,464
859.826843,467
859.944458,465
860.062012,464
860.179626,455
860.297302,472
860.414856,472
860.532471,461
860.650024,463
860.767639,455
860.885193,469
861.002808,466
861.120361,462
861.237976,468
861.35553,467
861.473022,456
861.590698,468
861.708191,476
861.825745,466
861.943298,442
862.060852,473
862.178406,450
862.295959,450
862.413513,445
862.531006,467
862.64856,460
862.766113,446
862.883667,458
863.00116,464
863.118713,462
863.236206,461
863.353699,461
863.471252,452
863.588745,469
863.706177,480
863.82373,446
863.941162,458
864.058716,475
864.176208,488
864.29364,454
864.411194,473
864.528687,446
864.646118,449
864.763611,473
864.881042,475
864.998535,453
865.116028,475
865.233459,461
865.350891,468
865.468384,470
865.585754,458
865.703308,459
865.820679,458
865.938171,457
866.055542,467
866.173035,459
866.290466,472
866.407837,453
866.52533,467
866.6427,450
866.760071,469
866.877563,453
866.994934,473
867.112305,460
867.229736,465
867.347107,455
867.464539,466
867.58197,453
867.699341,460
867.81665,468
867.934082,473
868.051453,471
868.168823,476
868.286194,455
868.403564,468
868.520935,476
868.638306,452
868.755676,466
868.872986,455
868.990295,473
869.107727,466
869.225037,477
869.342346,479
869.459717,468
869.577026,446
869.694336,465
869.811707,465
869.929016,462
870.046326,468
870.163635,471
870.280945,485
870.398254,472
870.515564,489
870.632812,464
870.750183,479
870.867432,468
870.984741,477
871.102051,463
871.219299,476
871.336609,454
871.453918,478
871.571106,468
871.688416,458
871.805664,468
871.922852,474
872.040222,488
872.157471,469
872.274719,471
872.391968,459
872.509155,483
872.626465,480
872.743652,460
872.860962,470
872.978149,461
873.095337,483
873.212646,431
873.329834,481
873.44696,477
873.564209,471
873.681396,465
873.798645,503
873.915894,463
874.03302,459
874.150208,453
874.267456,459
874.384583,452
874.501831,492
874.618958,466
874.736145,466
874.853333,462
874.970459,473
875.087646,466
875.204834,469
875.32196,472
875.439148,477
875.556274,452
875.673401,476
875.790527,458
875.907715,474
876.024841,484
876.141968,452
876.259094,476
876.376282,468
876.493347,464
876.610474,490
876.7276,470
876.844727,464
876.961853,450
877.078918,470
877.195984,467
877.313171,461
877.430237,475
877.547302,483
877.664368,451
877.781433,467
877.898499,469
878.015625,468
878.13269,455
878.249695,463
878.366821,474
878.483887,473
878.600952,467
878.717957,467
878.834961,485
878.952087,492
879.069092,447
879.186157,470
879.303162,444
879.420227,469
879.537231,454
879.654236,475
879.77124,469
879.888306,471
880.005249,449
880.122314,464
880.239319,476
880.356323,455
880.473328,442
880.590271,476
880.707275,459
880.824341,453
880.941284,473
881.058228,460
881.175232,451
881.292236,459
881.40918,463
881.526123,467
881.643066,453
881.760071,452
881.877014,448
881.993958,469
882.11084,456
882.227783,457
882.344727,443
882.46167,463
882.578613,439
882.695618,468
882.812439,469
882.929382,450
883.046326,435
883.163208,455
883.280151,471
883.397034,462
883.513916,453
883.630798,468
883.747742,454
883.864563,478
883.981506,473
884.098389,457
884.21521,471
884.332153,464
884.448975,472
884.565796,487
884.682678,473
884.7995,475
884.916443,471
885.033264,487
885.150085,465
885.266968,493
885.383789,468
885.500671,479
885.617493,482
885.734314,491
885.851196,490
885.967896,493
886.084717,477
886.201599,477
886.318359,488
886.435181,478
886.552002,471
886.668762,492
886.785645,474
886.902344,487
887.019165,490
887.135925,472
887.252747,488
887.369446,474
887.486267,466
887.603027,498
887.719788,474
887.836548,472
887.953247,459
888.070068,470
888.186829,464
888.303528,474
888.420288,470
888.536987,456
888.653687,454
888.770447,450
888.887146,451
889.003967,478
889.120667,473
889.237305,471
889.354065,449
889.470703,444
889.587463,443
889.704163,463
889.820862,442
889.937561,468
890.054199,461
890.170837,454
890.287598,445
890.404236,473
890.520874,469
890.637634,455
890.754211,461
890.87085,486
890.987549,448
891.104187,450
891.220886,458
891.337463,469
891.454102,471
891.57074,474
891.687378,453
891.804077,478
891.920654,456
892.037231,470
892.15387,458
892.270447,473
892.387085,470
892.503723,473
892.6203,459
892.736877,440
892.853516,467
892.970032,474
893.08667,450
893.203186,485
893.319763,467
893.43634,460
893.552917,468
893.669556,485
893.786011,476
893.902588,469
894.019165,463
894.135681,482
894.252197,465
894.368835,476
894.485291,486
894.601868,477
894.718384,464
894.8349,449
894.951355,465
895.067932,462
895.184448,464
895.300964,471
895.417419,476
895.533936,477
895.650452,458
895.766907,481
895.883423,446
895.999878,455
896.116333,453
896.232849,481
896.349304,461
896.465759,468
896.582214,461
896.698669,477
896.815125,465
896.931641,470
897.048035,450
897.164551,483
897.280884,465
897.397339,475
897.513794,459
897.630249,469
897.746582,455
897.863098,468
897.979431,472
898.095886,466
898.212341,460
898.328674,460
898.445129,473
898.561462,469
898.677795,467
898.794312,469
898.910645,476
899.026978,471
899.143433,446
899.259766,449
899.37616,468
899.492493,453
899.608765,481
899.725159,470
899.841553,448
899.957947,497
900.07428,458
900.190552,468
900.306946,457
900.423157,461
900.53949,472
900.655884,488
900.772156,468
900.888489,477
901.004822,466
901.121033,473
901.237366,458
901.353699,476
901.46991,465
901.586304,488
901.702515,459
901.818787,464
901.93512,450
902.051331,478
902.167603,479
902.283875,485
902.400085,472
902.516418,487
902.632629,480
902.74884,471
902.865112,480
902.981384,479
903.097595,499
903.213867,469
903.330017,486
903.446289,501
903.5625,482
903.67865,489
903.794922,492
903.911072,484
904.027344,472
904.143494,486
904.259705,486
904.375916,500
904.492065,474
904.608215,496
904.724426,467
904.840576,487
904.956726,456
905.072876,480
905.189087,455
905.305176,464
905.421387,475
905.537537,472
905.653687,483
905.769775,488
905.885925,463
906.002014,473
906.118164,478
906.234314,473
906.350403,471
906.466492,479
906.582642,482
906.69873,466
906.814758,456
906.930908,464
907.046936,460
907.163086,471
907.279175,483
907.395264,469
907.511353,449
907.62738,471
907.743408,443
907.859497,490
907.975525,463
908.091553,474
908.207703,444
908.32373,473
908.439758,465
908.555786,465
908.671814,453
908.787842,482
908.90387,465
909.019775,482
909.135864,455
909.251892,472
909.367859,450
909.483826,479
909.599854,473
909.715881,475
909.831848,475
909.947815,449
910.063782,476
910.179749,461
910.295776,469
910.411743,476
910.527649,463
910.643616,464
910.759583,484
910.875488,486
910.991455,476
911.107361,487
911.223267,472
911.339294,477
911.4552,469
911.571106,458
911.687073,457
911.802979,486
911.918823,476
912.034729,472
912.150635,463
912.266602,483
912.382446,492
912.498352,472
912.614197,458
912.730103,466
912.846008,464
