792.44574,602
792.56488,642
792.68396,691
792.80304,668
792.92218,627
793.041199,613
793.160339,595
793.279419,620
793.398499,630
793.517578,592
793.636658,594
793.755737,602
793.874817,617
793.993896,601
794.112976,629
794.232056,578
794.351074,601
794.470215,585
794.589233,589
794.708313,576
794.827393,582
794.946411,579
795.065552,602
795.18457,598
795.303589,586
795.422668,569
795.541687,587
795.660767,605
795.779846,620
795.898865,573
796.017883,586
796.136963,594
796.255981,592
796.375061,568
796.49408,577
796.613037,570
796.732117,591
796.851135,569
796.970154,606
797.089233,571
797.208191,578
797.327271,588
797.446228,596
797.565186,595
797.684265,594
797.803223,583
797.922241,587
798.04126,587
798.160278,595
798.279297,595
798.398315,596
798.517273,562
798.636292,569
798.75531,559
798.874268,588
798.993286,581
799.112244,582
799.231323,566
799.350281,577
799.469238,570
799.588257,599
799.707153,571
799.826111,575
799.945129,567
800.064087,584
800.183044,566
800.302063,548
800.421021,575
800.539978,573
800.658936,551
800.777893,556
800.896912,577
801.015747,564
801.134705,573
801.253723,598
801.37262,591
801.491638,577
801.610535,582
801.729492,588
801.84845,570
801.967407,566
802.086243,587
802.205261,571
802.324158,579
802.443115,589
802.562073,589
802.680969,561
802.799927,587
802.918762,595
803.037659,581
803.156677,627
803.275574,563
803.39447,597
803.513428,598
803.632263,593
803.751221,614
803.870117,594
803.989014,611
804.107971,597
804.226746,589
804.345642,586
804.4646,586
804.583496,564
804.702393,586
804.821228,618
804.940125,598
805.059021,587
805.177917,637
805.296814,623
805.415649,600
805.534546,612
805.653442,593
805.772278,620
805.891113,606
806.01001,598
806.128906,628
806.247742,601
806.366577,632
806.485413,623
806.604309,600
806.723145,602
806.84198,627
806.960876,624
807.079712,585
807.198486,616
807.317383,622
807.436218,606
807.554993,617
807.673889,625
807.792725,623
807.91156,619
808.030396,605
808.14917,629
808.268005,609
808.386841,613
808.505676,624
808.624451,623
808.743286,600
808.862122,625
808.980896,618
809.099731,624
809.218506,638
809.337341,595
809.456116,616
809.57489,638
809.693726,635
809.8125,612
809.931274,637
810.050049,631
810.168884,653
810.287659,617
810.406372,612
810.525269,616
810.643982,651
810.762756,626
810.881531,605
811.000305,653
811.11908,638
811.237854,641
811.356567,618
811.475403,638
811.594116,632
811.71283,643
811.831604,612
811.950378,634
812.069153,642
812.187927,650
812.30658,644
812.425415,635
812.544128,596
812.662781,633
812.781616,640
812.900269,623
813.019043,641
813.137756,643
813.256531,620
813.375244,638
813.493896,637
813.612671,632
813.731384,617
813.850037,622
813.96875,632
814.087524,618
814.206238,609
814.324951,624
814.443604,626
814.562256,617
814.68103,618
814.799683,618
814.918335,634
815.037109,620
815.155762,622
815.274475,652
815.393188,624
815.511841,616
815.630554,602
815.749146,605
815.867859,600
815.986572,603
816.105164,623
816.223877,624
816.342529,628
816.461182,620
816.579895,622
816.698486,619
816.817139,595
816.935791,656
817.054504,601
817.173096,618
817.291748,605
817.4104,618
817.529053,614
817.647644,613
817.766235,597
817.884949,581
818.00354,572
818.122192,562
818.240845,576
818.359436,566
818.478088,547
818.59668,531
818.715271,544
818.833923,539
818.952515,525
819.071106,510
819.189758,534
819.30835,527
819.426941,494
819.545532,511
819.664124,514
819.782715,504
819.901306,506
820.019897,505
820.138489,479
820.25708,521
820.375671,505
820.494202,513
820.612732,491
820.731384,496
820.849915,466
820.968506,497
821.087097,465
821.205627,517
821.324158,467
821.442749,484
821.561279,497
821.679871,474
821.798401,479
821.916931,492
822.035461,487
822.154053,497
822.272583,486
822.391174,483
822.509583,476
822.628174,488
822.746704,481
822.865234,467
822.983765,472
823.102295,481
823.220825,486
823.339294,493
823.457825,472
823.576355,493
823.694824,479
823.813354,485
823.931885,484
824.050354,477
824.168884,505
824.287354,497
824.405823,503
824.524353,500
824.642822,478
824.761353,499
824.879822,507
824.998291,486
825.116699,486
825.235291,488
825.353699,509
825.472168,473
825.590637,490
825.709106,470
825.827576,483
825.946045,489
826.064453,480
826.182983,469
826.301392,479
826.4198,474
826.53833,455
826.656738,470
826.775208,457
826.893677,479
827.012024,472
827.130493,473
827.248962,472
827.36731,472
827.485779,475
827.604248,461
827.722595,460
827.841064,470
827.959412,467
828.077942,470
828.196289,455
828.314636,471
828.433105,451
828.551514,467
828.669861,449
828.78833,471
828.906677,460
829.025085,476
829.143433,450
829.261841,450
829.38031,436
829.498657,436
829.617004,479
829.735413,463
829.85376,472
829.972107,463
830.090515,460
830.208862,460
830.327209,477
830.445557,456
830.563904,428
830.682312,448
830.800659,457
830.919006,459
831.037354,432
831.155701,453
831.274048,447
831.392395,459
831.51062,455
831.629028,463
831.747314,445
831.865662,479
831.984009,464
832.102356,468
832.220642,456
832.338928,452
832.457275,463
832.575623,461
832.693909,449
832.812134,476
832.930481,458
833.048828,432
833.167114,464
833.2854,449
833.403687,444
833.521973,455
833.640259,457
833.758545,463
833.876831,453
833.995056,467
834.113281,470
834.231628,446
834.349915,470
834.468201,461
834.586426,457
834.704651,440
834.822998,464
834.941162,474
835.059448,454
835.177673,460
835.295959,472
835.414246,463
835.53241,458
835.650635,459
835.768921,453
835.887146,457
836.005371,468
836.123596,467
836.241821,479
836.360046,466
836.478271,481
836.596497,474
836.714722,462
836.832886,477
836.95105,447
837.069336,475
837.1875,480
837.305725,462
837.423889,485
837.542053,468
837.660339,483
837.778503,487
837.896667,475
838.014832,484
838.132996,463
838.25116,494
838.369385,460
838.487488,489
838.605713,486
838.723877,473
838.84198,453
838.960205,493
839.078308,460
839.196472,466
839.314636,465
839.4328,465
839.550964,461
839.669067,481
839.787231,472
839.905396,484
840.023499,462
840.141602,468
840.259766,452
840.377869,467
840.495972,463
840.614136,471
840.732239,453
840.850342,480
840.968445,465
841.086548,469
841.204651,459
841.322754,458
841.440918,469
841.55896,458
841.677002,471
841.795166,465
841.913208,461
842.031311,462
842.149353,449
842.267456,478
842.385498,438
842.503601,442
842.621643,438
842.739746,456
842.857788,465
842.97583,447
843.093933,465
843.211975,453
843.330017,447
843.44812,452
843.566101,454
843.684204,436
843.802246,422
843.920227,449
844.038269,449
844.156311,463
844.274292,446
844.392395,461
844.510376,460
844.628357,460
844.74646,451
844.864441,451
844.982422,460
845.100403,477
845.218384,465
845.336426,444
845.454468,451
845.572449,462
845.69043,456
845.808411,446
845.926453,455
846.044373,463
846.162354,439
846.280396,460
846.398315,418
846.516296,456
846.634216,436
846.752197,457
846.870178,433
846.988098,460
847.106079,442
847.22406,463
847.34198,444
847.4599,473
847.577881,445
847.695801,442
847.813782,465
847.931641,432
848.049561,417
848.167603,465
848.285461,436
848.403381,453
848.521362,439
848.639221,462
848.75708,442
848.875,439
848.99292,444
849.110901,439
849.22876,445
849.34668,456
849.464539,442
849.582458,441
849.700317,443
849.818176,450
849.936096,433
850.053955,453
850.171875,442
850.289673,458
850.407593,433
850.525452,447
850.643311,440
850.761169,463
850.878967,439
850.996887,446
851.114746,447
851.232544,431
851.350403,476
851.468262,438
851.58606,450
851.703979,451
851.821777,434
851.939636,454
852.057434,457
852.175232,451
852.293091,456
852.410889,455
852.528687,438
852.646545,456
852.764343,453
852.88208,447
852.999939,433
853.117676,446
853.235535,441
853.353271,428
853.471069,459
853.588928,448
853.706604,443
853.824402,438
853.9422,433
854.059998,466
854.177734,440
854.295532,454
854.413269,447
854.531006,454
854.648804,450
854.766541,442
854.884277,441
855.002014,453
855.119751,439
855.237549,465
855.355225,445
855.473022,464
855.590698,440
855.708435,453
855.826172,443
855.943848,447
856.061646,474
856.179321,457
856.296997,434
856.414795,460
856.53241,469
856.650085,466
856.767822,472
856.885559,444
857.003174,471
857.120911,452
857.238586,459
857.356201,456
857.473938,447
857.591614,472
857.709351,454
857.826965,473
857.944641,450
858.062317,454
858.179993,441
858.297668,459
858.415283,441
858.532959,465
858.650574,433
858.768188,467
858.885803,461
859.003479,453
859.121094,447
859.23877,452
859.356384,452
859.473999,456
859.591675,449
859.709229,454
859.826843,446
859.944458,443
860.062012,448
860.179626,453
860.297302,454
860.414856,453
860.532471,462
860.650024,457
860.767639,458
860.885193,474
861.002808,454
861.120361,449
861.237976,448
861.35553,446
861.473022,436
861.590698,432
861.708191,443
861.825745,462
861.943298,431
862.060852,459
862.178406,448
862.295959,453
862.413513,445
862.531006,456
862.64856,460
862.766113,445
862.883667,464
863.00116,470
863.118713,439
863.236206,461
863.353699,447
863.471252,448
863.588745,460
863.706177,458
863.82373,430
863.941162,465
864.058716,459
864.176208,445
864.29364,438
864.411194,442
864.528687,433
864.646118,459
864.763611,448
864.881042,439
864.998535,452
865.116028,460
865.233459,435
865.350891,438
865.468384,462
865.585754,460
865.703308,456
865.820679,446
865.938171,455
866.055542,463
866.173035,452
866.290466,459
866.407837,454
866.52533,443
866.6427,447
866.760071,475
866.877563,457
866.994934,451
867.112305,437
867.229736,446
867.347107,440
867.464539,451
867.58197,456
867.699341,459
867.81665,444
867.934082,452
868.051453,447
868.168823,455
868.286194,435
868.403564,461
868.520935,448
868.638306,468
868.755676,452
868.872986,460
868.990295,464
869.107727,454
869.225037,431
869.342346,457
869.459717,442
869.577026,447
869.694336,474
869.811707,455
869.929016,437
870.046326,475
870.163635,462
870.280945,461
870.398254,449
870.515564,465
870.632812,451
870.750183,448
870.867432,470
870.984741,449
871.102051,455
871.219299,447
871.336609,445
871.453918,446
871.571106,460
871.688416,439
871.805664,431
871.922852,444
872.040222,459
872.157471,459
872.274719,450
872.391968,473
872.509155,447
872.626465,477
872.743652,451
872.860962,461
872.978149,436
873.095337,457
873.212646,446
873.329834,443
873.44696,446
873.564209,451
873.681396,459
873.798645,469
873.915894,455
874.03302,436
874.150208,452
874.267456,440
874.384583,461
874.501831,451
874.618958,455
874.736145,452
874.853333,465
874.970459,465
875.087646,440
875.204834,450
875.32196,455
875.439148,448
875.556274,458
875.673401,434
875.790527,424
875.907715,462
876.024841,433
876.141968,447
876.259094,447
876.376282,440
876.493347,459
876.610474,457
876.7276,445
876.844727,441
876.961853,435
877.078918,459
877.195984,449
877.313171,456
877.430237,459
877.547302,470
877.664368,441
877.781433,442
877.898499,437
878.015625,484
878.13269,449
878.249695,444
878.366821,450
878.483887,461
878.600952,444
878.717957,464
878.834961,447
878.952087,468
879.069092,466
879.186157,458
879.303162,472
879.420227,461
879.537231,448
879.654236,447
879.77124,440
879.888306,453
880.005249,472
880.122314,448
880.239319,463
880.356323,459
880.473328,432
880.590271,431
880.707275,461
880.824341,449
880.941284,455
881.058228,442
881.175232,446
881.292236,458
881.40918,451
881.526123,455
881.643066,446
881.760071,440
881.877014,450
881.993958,457
882.11084,448
882.227783,426
882.344727,452
882.46167,456
882.578613,451
882.695618,471
882.812439,432
882.929382,450
883.046326,440
883.163208,462
883.280151,443
883.397034,469
883.513916,450
883.630798,474
883.747742,448
883.864563,436
883.981506,455
884.098389,457
884.21521,448
884.332153,448
884.448975,454
884.565796,467
884.682678,453
884.7995,450
884.916443,481
885.033264,459
885.150085,456
885.266968,457
885.383789,456
885.500671,466
885.617493,454
885.734314,467
885.851196,452
885.967896,450
886.084717,459
886.201599,467
886.318359,459
886.435181,450
886.552002,457
886.668762,484
886.785645,462
886.902344,467
887.019165,442
887.135925,445
887.252747,473
887.369446,466
887.486267,444
887.603027,441
887.719788,455
887.836548,464
887.953247,449
888.070068,462
888.186829,464
888.303528,478
888.420288,461
888.536987,439
888.653687,459
888.770447,439
888.887146,453
889.003967,457
889.120667,449
889.237305,449
889.354065,432
889.470703,459
889.587463,473
889.704163,480
889.820862,457
889.937561,469
890.054199,468
890.170837,450
890.287598,436
890.404236,445
890.520874,445
890.637634,462
890.754211,461
890.87085,453
890.987549,463
891.104187,476
891.220886,465
891.337463,457
891.454102,457
891.57074,451
891.687378,469
891.804077,486
891.920654,445
892.037231,449
892.15387,465
892.270447,452
892.387085,467
892.503723,460
892.6203,447
892.736877,462
892.853516,454
892.970032,478
893.08667,464
893.203186,449
893.319763,493
893.43634,475
893.552917,462
893.669556,479
893.786011,444
893.902588,457
894.019165,462
894.135681,488
894.252197,439
894.368835,465
894.485291,464
894.601868,478
894.718384,468
894.8349,454
894.951355,471
895.067932,478
895.184448,450
895.300964,472
895.417419,457
895.533936,452
895.650452,469
895.766907,465
895.883423,468
895.999878,474
896.116333,448
896.232849,467
896.349304,466
896.465759,480
896.582214,451
896.698669,440
896.815125,464
896.931641,451
897.048035,463
897.164551,458
897.280884,458
897.397339,461
897.513794,454
897.630249,480
897.746582,442
897.863098,466
897.979431,442
898.095886,495
898.212341,454
898.328674,480
898.445129,458
898.561462,480
898.677795,450
898.794312,474
898.910645,471
899.026978,456
899.143433,468
899.259766,458
899.37616,475
899.492493,450
899.608765,438
899.725159,473
899.841553,464
899.957947,465
900.07428,466
900.190552,457
900.306946,453
900.423157,469
900.53949,453
900.655884,464
900.772156,462
900.888489,477
901.004822,465
901.121033,474
901.237366,451
901.353699,465
901.46991,462
901.586304,477
901.702515,467
901.818787,501
901.93512,433
902.051331,477
902.167603,470
902.283875,468
902.400085,484
902.516418,483
902.632629,481
902.74884,470
902.865112,478
902.981384,454
903.097595,449
903.213867,482
903.330017,441
903.446289,445
903.5625,480
903.67865,453
903.794922,468
903.911072,466
904.027344,488
904.143494,447
904.259705,457
904.375916,450
904.492065,452
904.608215,464
904.724426,445
904.840576,458
904.956726,453
905.072876,466
905.189087,464
905.305176,481
905.421387,447
905.537537,458
905.653687,489
905.769775,483
905.885925,463
906.002014,467
906.118164,485
906.234314,460
906.350403,469
906.466492,460
906.582642,453
906.69873,464
906.814758,471
906.930908,461
907.046936,462
907.163086,467
907.279175,460
907.395264,475
907.511353,454
907.62738,461
907.743408,454
907.859497,482
907.975525,448
908.091553,477
908.207703,473
908.32373,470
908.439758,464
908.555786,466
908.671814,478
908.787842,471
908.90387,442
909.019775,468
909.135864,455
909.251892,473
909.367859,448
909.483826,458
909.599854,481
909.715881,453
909.831848,466
909.947815,478
910.063782,453
910.179749,461
910.295776,473
910.411743,453
910.527649,468
910.643616,453
910.759583,456
910.875488,456
910.991455,467
911.107361,477
911.223267,492
911.339294,479
911.4552,457
911.571106,472
911.687073,463
911.802979,479
911.918823,474
912.034729,477
912.150635,456
912.266602,476
912.382446,466
912.498352,462
912.614197,445
912.730103,469
912.846008,469
792.44574,634
792.56488,646
792.68396,715
792.80304,689
792.92218,599
793.041199,598
793.160339,607
793.279419,597
793.398499,640
793.517578,581
793.636658,595
793.755737,610
793.874817,634
793.993896,628
794.112976,631
794.232056,576
794.351074,606
794.470215,588
794.589233,606
794.708313,601
794.827393,576
794.946411,611
795.065552,597
795.18457,580
795.303589,616
795.422668,606
795.541687,602
795.660767,620
795.779846,604
795.898865,577
796.017883,602
796.136963,584
796.255981,608
796.375061,592
796.49408,578
796.613037,591
796.732117,599
796.851135,594
796.970154,583
797.089233,592
797.208191,578
797.327271,565
797.446228,572
797.565186,580
797.684265,578
797.803223,563
797.922241,602
798.04126,562
798.160278,575
798.279297,578
798.398315,578
798.517273,570
798.636292,570
798.75531,574
798.874268,593
798.993286,584
799.112244,583
799.231323,590
799.350281,563
799.469238,582
799.588257,583
799.707153,570
799.826111,568
799.945129,574
800.064087,585
800.183044,603
800.302063,572
800.421021,574
800.539978,585
800.658936,561
800.777893,557
800.896912,561
801.015747,584
801.134705,561
801.253723,585
801.37262,585
801.491638,586
801.610535,586
801.729492,568
801.84845,595
801.967407,578
802.086243,571
802.205261,580
802.324158,604
802.443115,585
802.562073,605
802.680969,601
802.799927,598
802.918762,592
803.037659,587
803.156677,583
803.275574,570
803.39447,601
803.513428,609
803.632263,613
803.751221,609
803.870117,608
803.989014,598
804.107971,589
804.226746,594
804.345642,621
804.4646,622
804.583496,593
804.702393,605
804.821228,583
804.940125,610
805.059021,600
805.177917,615
805.296814,617
805.415649,625
805.534546,603
805.653442,580
805.772278,609
805.891113,619
806.01001,623
806.128906,615
806.247742,600
806.366577,610
806.485413,614
806.604309,621
806.723145,625
806.84198,622
806.960876,592
807.079712,600
807.198486,614
807.317383,620
807.436218,595
807.554993,620
807.673889,620
807.792725,611
807.91156,621
808.030396,627
808.14917,645
808.268005,633
808.386841,632
808.505676,612
808.624451,635
808.743286,644
808.862122,612
808.980896,620
809.099731,658
809.218506,610
809.337341,635
809.456116,632
809.57489,644
809.693726,627
809.8125,640
809.931274,642
810.050049,636
810.168884,622
810.287659,651
810.406372,631
810.525269,622
810.643982,625
810.762756,624
810.881531,630
811.000305,631
811.11908,631
811.237854,597
811.356567,616
811.475403,645
811.594116,630
811.71283,639
811.831604,635
811.950378,617
812.069153,615
812.187927,618
812.30658,638
812.425415,622
812.544128,644
812.662781,645
812.781616,620
812.900269,624
813.019043,636
813.137756,625
813.256531,595
813.375244,620
813.493896,623
813.612671,634
813.731384,639
813.850037,633
813.96875,627
814.087524,636
814.206238,624
814.324951,627
814.443604,639
814.562256,621
814.68103,625
814.799683,622
814.918335,627
815.037109,590
815.155762,628
815.274475,616
815.393188,610
815.511841,616
815.630554,628
815.749146,625
815.867859,622
815.986572,606
816.105164,613
816.223877,608
816.342529,637
816.461182,627
816.579895,635
816.698486,614
816.817139,623
816.935791,631
817.054504,638
817.173096,600
817.291748,606
817.4104,604
817.529053,607
817.647644,606
817.766235,597
817.884949,603
818.00354,558
818.122192,560
818.240845,575
818.359436,552
818.478088,568
818.59668,539
818.715271,545
818.833923,539
818.952515,509
819.071106,527
819.189758,514
819.30835,521
819.426941,516
819.545532,506
819.664124,509
819.782715,511
819.901306,496
820.019897,511
820.138489,505
820.25708,505
820.375671,495
820.494202,484
820.612732,502
820.731384,525
820.849915,499
820.968506,499
821.087097,479
821.205627,488
821.324158,487
821.442749,487
821.561279,490
821.679871,484
821.798401,482
821.916931,496
822.035461,490
822.154053,489
822.272583,488
822.391174,481
822.509583,492
822.628174,496
822.746704,479
822.865234,490
822.983765,478
823.102295,471
823.220825,481
823.339294,482
823.457825,488
823.576355,490
823.694824,464
823.813354,491
823.931885,483
824.050354,492
824.168884,484
824.287354,488
824.405823,488
824.524353,518
824.642822,485
824.761353,516
824.879822,501
824.998291,478
825.116699,475
825.235291,490
825.353699,464
825.472168,483
825.590637,483
825.709106,482
825.827576,487
825.946045,478
826.064453,464
826.182983,472
826.301392,475
826.4198,477
826.53833,465
826.656738,454
826.775208,486
826.893677,484
827.012024,467
827.130493,455
827.248962,473
827.36731,469
827.485779,475
827.604248,470
827.722595,489
827.841064,455
827.959412,476
828.077942,462
828.196289,482
828.314636,459
828.433105,458
828.551514,457
828.669861,464
828.78833,451
828.906677,444
829.025085,477
829.143433,451
829.261841,439
829.38031,447
829.498657,451
829.617004,478
829.735413,457
829.85376,464
829.972107,467
830.090515,472
830.208862,459
830.327209,453
830.445557,473
830.563904,472
830.682312,446
830.800659,453
830.919006,453
831.037354,477
831.155701,475
831.274048,455
831.392395,467
831.51062,457
831.629028,450
831.747314,466
831.865662,468
831.984009,466
832.102356,459
832.220642,460
832.338928,458
832.457275,457
832.575623,477
832.693909,451
832.812134,457
832.930481,458
833.048828,452
833.167114,458
833.2854,459
833.403687,474
833.521973,449
833.640259,460
833.758545,456
833.876831,468
833.995056,460
834.113281,462
834.231628,467
834.349915,458
834.468201,464
834.586426,489
834.704651,486
834.822998,459
834.941162,443
835.059448,469
835.177673,448
835.295959,464
835.414246,451
835.53241,468
835.650635,461
835.768921,464
835.887146,464
836.005371,474
836.123596,480
836.241821,505
836.360046,467
836.478271,479
836.596497,479
836.714722,473
836.832886,463
836.95105,487
837.069336,486
837.1875,456
837.305725,476
837.423889,482
837.542053,460
837.660339,483
837.778503,471
837.896667,482
838.014832,481
838.132996,483
838.25116,455
838.369385,473
838.487488,493
838.605713,470
838.723877,476
838.84198,476
838.960205,477
839.078308,460
839.196472,486
839.314636,470
839.4328,465
839.550964,487
839.669067,475
839.787231,483
839.905396,478
840.023499,478
840.141602,466
840.259766,468
840.377869,452
840.495972,487
840.614136,468
840.732239,463
840.850342,453
840.968445,458
841.086548,464
841.204651,459
841.322754,464
841.440918,470
841.55896,465
841.677002,470
841.795166,459
841.913208,466
842.031311,461
842.149353,473
842.267456,468
842.385498,453
842.503601,458
842.621643,444
842.739746,446
842.857788,460
842.97583,452
843.093933,467
843.211975,441
843.330017,462
843.44812,462
843.566101,442
843.684204,444
843.802246,439
843.920227,465
844.038269,445
844.156311,455
844.274292,443
844.392395,434
844.510376,472
844.628357,450
844.74646,464
844.864441,465
844.982422,449
845.100403,465
845.218384,452
845.336426,440
845.454468,457
845.572449,456
845.69043,453
845.808411,437
845.926453,458
846.044373,446
846.162354,453
846.280396,473
846.398315,428
846.516296,469
846.634216,439
846.752197,447
846.870178,433
846.988098,453
847.106079,462
847.22406,447
847.34198,461
847.4599,458
847.577881,459
847.695801,437
847.813782,460
847.931641,452
848.049561,453
848.167603,451
848.285461,452
848.403381,446
848.521362,458
848.639221,442
848.75708,457
848.875,439
848.99292,442
849.110901,433
849.22876,457
849.34668,463
849.464539,439
849.582458,458
849.700317,447
849.818176,436
849.936096,451
850.053955,450
850.171875,448
850.289673,449
850.407593,455
850.525452,445
850.643311,439
850.761169,437
850.878967,452
850.996887,460
851.114746,450
851.232544,468
851.350403,439
851.468262,435
851.58606,444
851.703979,457
851.821777,450
851.939636,453
852.057434,453
852.175232,473
852.293091,469
852.410889,445
852.528687,451
852.646545,443
852.764343,473
852.88208,432
852.999939,427
853.117676,447
853.235535,469
853.353271,460
853.471069,440
853.588928,444
853.706604,461
853.824402,465
853.9422,432
854.059998,433
854.177734,462
854.295532,464
854.413269,471
854.531006,446
854.648804,451
854.766541,449
854.884277,438
855.002014,455
855.119751,432
855.237549,444
855.355225,469
855.473022,434
855.590698,455
855.708435,454
855.826172,445
855.943848,466
856.061646,450
856.179321,466
856.296997,460
856.414795,450
856.53241,462
856.650085,436
856.767822,458
856.885559,459
857.003174,453
857.120911,466
857.238586,472
857.356201,455
857.473938,458
857.591614,430
857.709351,457
857.826965,465
857.944641,444
858.062317,454
858.179993,475
858.297668,473
858.415283,452
858.532959,441
858.650574,469
858.768188,460
858.885803,472
859.003479,446
859.121094,456
859.23877,450
859.356384,468
859.473999,453
859.591675,467
859.709229,470
859.826843,475
859.944458,453
860.062012,437
860.179626,463
860.297302,458
860.414856,451
860.532471,450
860.650024,456
860.767639,465
860.885193,449
861.002808,460
861.120361,458
861.237976,457
861.35553,465
861.473022,462
861.590698,440
861.708191,447
861.825745,442
861.943298,450
862.060852,449
862.178406,445
862.295959,448
862.413513,453
862.531006,452
862.64856,453
862.766113,440
862.883667,469
863.00116,455
863.118713,455
863.236206,438
863.353699,451
863.471252,452
863.588745,454
863.706177,462
863.82373,441
863.941162,462
864.058716,448
864.176208,444
864.29364,457
864.411194,448
864.528687,445
864.646118,454
864.763611,447
864.881042,454
864.998535,447
865.116028,455
865.233459,457
865.350891,443
865.468384,434
865.585754,471
865.703308,459
865.820679,427
865.938171,457
866.055542,452
866.173035,450
866.290466,450
866.407837,477
866.52533,450
866.6427,447
866.760071,461
866.877563,434
866.994934,459
867.112305,452
867.229736,462
867.347107,460
867.464539,453
867.58197,466
867.699341,452
867.81665,455
867.934082,435
868.051453,452
868.168823,448
868.286194,435
868.403564,456
868.520935,443
868.638306,464
868.755676,460
868.872986,456
868.990295,477
869.107727,456
869.225037,464
869.342346,466
869.459717,457
869.577026,447
869.694336,457
869.811707,465
869.929016,462
870.046326,451
870.163635,457
870.280945,444
870.398254,476
870.515564,457
870.632812,436
870.750183,462
870.867432,460
870.984741,449
871.102051,470
871.219299,460
871.336609,448
871.453918,432
871.571106,448
871.688416,464
871.805664,454
871.922852,455
872.040222,438
872.157471,461
872.274719,469
872.391968,451
872.509155,450
872.626465,452
872.743652,460
872.860962,458
872.978149,460
873.095337,451
873.212646,450
873.329834,438
873.44696,471
873.564209,458
873.681396,447
873.798645,453
873.915894,470
874.03302,451
874.150208,451
874.267456,441
874.384583,460
874.501831,445
874.618958,465
874.736145,444
874.853333,464
874.970459,451
875.087646,467
875.204834,462
875.32196,460
875.439148,450
875.556274,453
875.673401,467
875.790527,454
875.907715,458
876.024841,434
876.141968,447
876.259094,448
876.376282,435
876.493347,465
876.610474,456
876.7276,448
876.844727,462
876.961853,447
877.078918,460
877.195984,459
877.313171,444
877.430237,467
877.547302,467
877.664368,459
877.781433,435
877.898499,460
878.015625,469
878.13269,448
878.249695,458
878.366821,477
878.483887,449
878.600952,446
878.717957,435
878.834961,441
878.952087,448
879.069092,449
879.186157,453
879.303162,448
879.420227,461
879.537231,433
879.654236,448
879.77124,466
879.888306,439
880.005249,460
880.122314,458
880.239319,444
880.356323,439
880.473328,445
880.590271,442
880.707275,472
880.824341,456
880.941284,450
881.058228,464
881.175232,459
881.292236,431
881.40918,456
881.526123,456
881.643066,473
881.760071,464
881.877014,462
881.993958,460
882.11084,441
882.227783,456
882.344727,452
882.46167,438
882.578613,449
882.695618,467
882.812439,456
882.929382,448
883.046326,455
883.163208,454
883.280151,471
883.397034,446
883.513916,469
883.630798,472
883.747742,451
883.864563,452
883.981506,445
884.098389,436
884.21521,444
884.332153,440
884.448975,450
884.565796,461
884.682678,457
884.7995,458
884.916443,460
885.033264,453
885.150085,457
885.266968,463
885.383789,470
885.500671,460
885.617493,454
885.734314,453
885.851196,464
885.967896,460
886.084717,457
886.201599,460
886.318359,458
886.435181,474
886.552002,478
886.668762,470
886.785645,478
886.902344,453
887.019165,472
887.135925,476
887.252747,444
887.369446,452
887.486267,467
887.603027,436
887.719788,458
887.836548,456
887.953247,472
888.070068,486
888.186829,468
888.303528,463
888.420288,471
888.536987,458
888.653687,472
888.770447,443
888.887146,440
889.003967,452
889.120667,479
889.237305,457
889.354065,457
889.470703,456
889.587463,468
889.704163,482
889.820862,465
889.937561,448
890.054199,456
890.170837,459
890.287598,453
890.404236,454
890.520874,471
890.637634,465
890.754211,463
890.87085,463
890.987549,460
891.104187,462
891.220886,459
891.337463,457
891.454102,469
891.57074,478
891.687378,474
891.804077,467
891.920654,469
892.037231,473
892.15387,449
892.270447,475
892.387085,459
892.503723,467
892.6203,459
892.736877,469
892.853516,471
892.970032,464
893.08667,455
893.203186,446
893.319763,451
893.43634,458
893.552917,491
893.669556,463
893.786011,466
893.902588,464
894.019165,469
894.135681,475
894.252197,478
894.368835,475
894.485291,471
894.601868,476
894.718384,467
894.8349,475
894.951355,473
895.067932,447
895.184448,468
895.300964,468
895.417419,443
895.533936,466
895.650452,458
895.766907,463
895.883423,469
895.999878,453
896.116333,463
896.232849,458
896.349304,462
896.465759,457
896.582214,479
896.698669,449
896.815125,472
896.931641,457
897.048035,462
897.164551,459
897.280884,473
897.397339,463
897.513794,463
897.630249,465
897.746582,470
897.863098,464
897.979431,463
898.095886,470
898.212341,450
898.328674,477
898.445129,454
898.561462,469
898.677795,474
898.794312,470
898.910645,473
899.026978,480
899.143433,469
899.259766,466
899.37616,478
899.492493,473
899.608765,453
899.725159,454
899.841553,455
899.957947,449
900.07428,474
900.190552,476
900.306946,473
900.423157,454
900.53949,464
900.655884,468
900.772156,479
900.888489,465
901.004822,474
901.121033,456
901.237366,456
901.353699,453
901.46991,485
901.586304,455
901.702515,456
901.818787,453
901.93512,475
902.051331,456
902.167603,463
902.283875,494
902.400085,460
902.516418,485
902.632629,469
902.74884,461
902.865112,471
902.981384,474
903.097595,475
903.213867,470
903.330017,490
903.446289,457
903.5625,454
903.67865,483
903.794922,471
903.911072,462
904.027344,467
904.143494,475
904.259705,466
904.375916,459
904.492065,472
904.608215,462
904.724426,477
904.840576,466
904.956726,468
905.072876,459
905.189087,480
905.305176,463
905.421387,473
905.537537,470
905.653687,487
905.769775,468
905.885925,470
906.002014,461
906.118164,457
906.234314,468
906.350403,469
906.466492,456
906.582642,472
906.69873,473
906.814758,476
906.930908,471
907.046936,478
907.163086,477
907.279175,458
907.395264,465
907.511353,474
907.62738,461
907.743408,471
907.859497,464
907.975525,465
908.091553,488
908.207703,464
908.32373,479
908.439758,482
908.555786,457
908.671814,473
908.787842,462
908.90387,478
909.019775,461
909.135864,459
909.251892,461
909.367859,479
909.483826,466
909.599854,467
909.715881,463
909.831848,465
909.947815,465
910.063782,477
910.179749,471
910.295776,470
910.411743,460
910.527649,477
910.643616,466
910.759583,480
910.875488,461
910.991455,480
911.107361,472
911.223267,469
911.339294,472
911.4552,478
911.571106,468
911.687073,482
911.802979,481
911.918823,465
912.034729,460
912.150635,488
912.266602,489
912.382446,487
912.498352,480
912.614197,492
912.730103,482
912.846008,450
792.44574,643
792.56488,649
792.68396,688
792.80304,663
792.92218,619
793.041199,596
793.160339,603
793.279419,613
793.398499,626
793.517578,585
793.636658,609
793.755737,623
793.874817,636
793.993896,614
794.112976,612
794.232056,627
794.351074,594
794.470215,612
794.589233,581
794.708313,599
794.827393,597
794.946411,613
795.065552,615
795.18457,597
795.303589,570
795.422668,589
795.541687,627
795.660767,613
795.779846,624
795.898865,605
796.017883,595
796.136963,592
796.255981,602
796.375061,603
796.49408,599
796.613037,579
796.732117,549
796.851135,588
796.970154,572
797.089233,595
797.208191,579
797.327271,599
797.446228,580
797.565186,596
797.684265,581
797.803223,574
797.922241,589
798.04126,585
798.160278,575
798.279297,579
798.398315,579
798.517273,588
798.636292,592
798.75531,588
798.874268,584
798.993286,601
799.112244,571
799.231323,574
799.350281,583
799.469238,599
799.588257,572
799.707153,588
799.826111,586
799.945129,599
800.064087,573
800.183044,584
800.302063,593
800.421021,581
800.539978,584
800.658936,577
800.777893,588
800.896912,599
801.015747,600
801.134705,582
801.253723,579
801.37262,604
801.491638,587
801.610535,590
801.729492,559
801.84845,585
801.967407,582
802.086243,610
802.205261,586
802.324158,585
802.443115,581
802.562073,598
802.680969,589
802.799927,614
802.918762,591
803.037659,589
803.156677,597
803.275574,624
803.39447,608
803.513428,597
803.632263,603
803.751221,609
803.870117,627
803.989014,588
804.107971,604
804.226746,593
804.345642,604
804.4646,601
804.583496,591
804.702393,627
804.821228,594
804.940125,603
805.059021,600
805.177917,613
805.296814,635
805.415649,611
805.534546,605
805.653442,622
805.772278,629
805.891113,598
806.01001,643
806.128906,628
806.247742,620
806.366577,598
806.485413,629
806.604309,624
806.723145,621
806.84198,629
806.960876,626
807.079712,618
807.198486,620
807.317383,629
807.436218,601
807.554993,622
807.673889,608
807.792725,624
807.91156,612
808.030396,622
808.14917,642
808.268005,639
808.386841,617
808.505676,594
808.624451,631
808.743286,610
808.862122,642
808.980896,640
809.099731,627
809.218506,627
809.337341,615
809.456116,618
809.57489,617
809.693726,637
809.8125,626
809.931274,607
810.050049,631
810.168884,623
810.287659,633
810.406372,610
810.525269,645
810.643982,634
810.762756,635
810.881531,618
811.000305,634
811.11908,634
811.237854,645
811.356567,621
811.475403,651
811.594116,611
811.71283,627
811.831604,653
811.950378,629
812.069153,664
812.187927,639
812.30658,627
812.425415,643
812.544128,633
812.662781,648
812.781616,641
812.900269,635
813.019043,646
813.137756,638
813.256531,597
813.375244,637
813.493896,631
813.612671,619
813.731384,643
813.850037,647
813.96875,630
814.087524,623
814.206238,637
814.324951,620
814.443604,628
814.562256,632
814.68103,639
814.799683,628
814.918335,639
815.037109,622
815.155762,648
815.274475,625
815.393188,609
815.511841,637
815.630554,597
815.749146,625
815.867859,597
815.986572,591
816.105164,599
816.223877,604
816.342529,599
816.461182,624
816.579895,606
816.698486,617
816.817139,633
816.935791,618
817.054504,609
817.173096,592
817.291748,589
817.4104,617
817.529053,600
817.647644,602
817.766235,583
817.884949,597
818.00354,580
818.122192,573
818.240845,577
818.359436,545
818.478088,557
818.59668,537
818.715271,534
818.833923,538
818.952515,546
819.071106,527
819.189758,515
819.30835,504
819.426941,516
819.545532,505
819.664124,504
819.782715,500
819.901306,484
820.019897,493
820.138489,487
820.25708,487
820.375671,495
820.494202,497
820.612732,512
820.731384,508
820.849915,495
820.968506,493
821.087097,495
821.205627,496
821.324158,508
821.442749,480
821.561279,497
821.679871,483
821.798401,487
821.916931,477
822.035461,506
822.154053,471
822.272583,476
822.391174,473
822.509583,491
822.628174,490
822.746704,468
822.865234,480
822.983765,485
823.102295,487
823.220825,482
823.339294,468
823.457825,495
823.576355,470
823.694824,480
823.813354,489
823.931885,504
824.050354,461
824.168884,490
824.287354,485
824.405823,503
824.524353,486
824.642822,484
824.761353,479
824.879822,504
824.998291,497
825.116699,504
825.235291,491
825.353699,488
825.472168,500
825.590637,495
825.709106,475
825.827576,465
825.946045,458
826.064453,478
826.182983,478
826.301392,468
826.4198,477
826.53833,473
826.656738,468
826.775208,495
826.893677,484
827.012024,471
827.130493,475
827.248962,477
827.36731,470
827.485779,476
827.604248,476
827.722595,488
827.841064,459
827.959412,477
828.077942,456
828.196289,468
828.314636,472
828.433105,471
828.551514,475
828.669861,475
828.78833,475
828.906677,471
829.025085,475
829.143433,473
829.261841,458
829.38031,461
829.498657,467
829.617004,473
829.735413,458
829.85376,475
829.972107,459
830.090515,462
830.208862,471
830.327209,450
830.445557,469
830.563904,465
830.682312,457
830.800659,465
830.919006,457
831.037354,482
831.155701,431
831.274048,467
831.392395,450
831.51062,467
831.629028,483
831.747314,459
831.865662,456
831.984009,475
832.102356,459
832.220642,472
832.338928,456
832.457275,468
832.575623,450
832.693909,457
832.812134,470
832.930481,451
833.048828,466
833.167114,450
833.2854,455
833.403687,484
833.521973,459
833.640259,477
833.758545,461
833.876831,449
833.995056,466
834.113281,460
834.231628,460
834.349915,453
834.468201,451
834.586426,462
834.704651,455
834.822998,468
834.941162,473
835.059448,453
835.177673,456
835.295959,446
835.414246,464
835.53241,455
835.650635,463
835.768921,457
835.887146,455
836.005371,467
836.123596,471
836.241821,463
836.360046,481
836.478271,469
836.596497,464
836.714722,466
836.832886,460
836.95105,465
837.069336,464
837.1875,479
837.305725,490
837.423889,483
837.542053,473
837.660339,487
837.778503,476
837.896667,467
838.014832,476
838.132996,487
838.25116,474
838.369385,482
838.487488,493
838.605713,477
838.723877,488
838.84198,461
838.960205,460
839.078308,485
839.196472,456
839.314636,461
839.4328,479
839.550964,476
839.669067,458
839.787231,483
839.905396,491
840.023499,482
840.141602,476
840.259766,476
840.377869,476
840.495972,479
840.614136,478
840.732239,483
840.850342,484
840.968445,449
841.086548,470
841.204651,457
841.322754,444
841.440918,456
841.55896,463
841.677002,476
841.795166,466
841.913208,485
842.031311,479
842.149353,444
842.267456,482
842.385498,465
842.503601,455
842.621643,444
842.739746,446
842.857788,450
842.97583,453
843.093933,459
843.211975,451
843.330017,460
843.44812,449
843.566101,449
843.684204,471
843.802246,432
843.920227,464
844.038269,446
844.156311,454
844.274292,471
844.392395,469
844.510376,435
844.628357,440
844.74646,459
844.864441,463
844.982422,461
845.100403,463
845.218384,466
845.336426,451
845.454468,461
845.572449,437
845.69043,461
845.808411,455
845.926453,453
846.044373,455
846.162354,473
846.280396,452
846.398315,467
846.516296,438
846.634216,468
846.752197,440
846.870178,438
846.988098,434
847.106079,461
847.22406,441
847.34198,439
847.4599,443
847.577881,466
847.695801,445
847.813782,449
847.931641,435
848.049561,431
848.167603,467
848.285461,464
848.403381,449
848.521362,451
848.639221,465
848.75708,441
848.875,455
848.99292,454
849.110901,436
849.22876,451
849.34668,447
849.464539,436
849.582458,449
849.700317,460
849.818176,451
849.936096,457
850.053955,462
850.171875,431
850.289673,435
850.407593,475
850.525452,450
850.643311,461
850.761169,449
850.878967,462
850.996887,474
851.114746,464
851.232544,436
851.350403,436
851.468262,452
851.58606,456
851.703979,448
851.821777,446
851.939636,443
852.057434,444
852.175232,430
852.293091,471
852.410889,442
852.528687,441
852.646545,470
852.764343,459
852.88208,477
852.999939,451
853.117676,463
853.235535,473
853.353271,442
853.471069,455
853.588928,458
853.706604,461
853.824402,442
853.9422,441
854.059998,456
854.177734,436
854.295532,464
854.413269,462
854.531006,464
854.648804,463
854.766541,456
854.884277,448
855.002014,442
855.119751,449
855.237549,440
855.355225,450
855.473022,444
855.590698,469
855.708435,445
855.826172,459
855.943848,463
856.061646,460
856.179321,457
856.296997,472
856.414795,470
856.53241,448
856.650085,461
856.767822,452
856.885559,468
857.003174,435
857.120911,462
857.238586,465
857.356201,446
857.473938,433
857.591614,474
857.709351,449
857.826965,456
857.944641,446
858.062317,459
858.179993,466
858.297668,464
858.415283,456
858.532959,460
858.650574,468
858.768188,477
858.885803,467
859.003479,445
859.121094,451
859.23877,436
859.356384,466
859.473999,470
859.591675,451
859.709229,446
859.826843,454
859.944458,432
860.062012,440
860.179626,468
860.297302,468
860.414856,448
860.532471,460
860.650024,447
860.767639,464
860.885193,464
861.002808,460
861.120361,441
861.237976,444
861.35553,446
861.473022,458
861.590698,454
861.708191,461
861.825745,465
861.943298,446
862.060852,465
862.178406,446
862.295959,441
862.413513,438
862.531006,445
862.64856,444
862.766113,462
862.883667,460
863.00116,456
863.118713,465
863.236206,468
863.353699,443
863.471252,461
863.588745,457
863.706177,450
863.82373,453
863.941162,432
864.058716,436
864.176208,439
864.29364,468
864.411194,459
864.528687,447
864.646118,451
864.763611,448
864.881042,449
864.998535,464
865.116028,473
865.233459,452
865.350891,456
865.468384,479
865.585754,467
865.703308,464
865.820679,434
865.938171,467
866.055542,448
866.173035,468
866.290466,434
866.407837,433
866.52533,472
866.6427,464
866.760071,473
866.877563,460
866.994934,457
867.112305,462
867.229736,442
867.347107,461
867.464539,458
867.58197,471
867.699341,443
867.81665,453
867.934082,455
868.051453,462
868.168823,456
868.286194,468
868.403564,446
868.520935,446
868.638306,446
868.755676,450
868.872986,461
868.990295,469
869.107727,446
869.225037,441
869.342346,454
869.459717,461
869.577026,445
869.694336,448
869.811707,463
869.929016,452
870.046326,454
870.163635,452
870.280945,456
870.398254,449
870.515564,441
870.632812,437
870.750183,462
870.867432,463
870.984741,449
871.102051,454
871.219299,448
871.336609,461
871.453918,477
871.571106,465
871.688416,464
871.805664,463
871.922852,441
872.040222,472
872.157471,456
872.274719,456
872.391968,467
872.509155,453
872.626465,459
872.743652,460
872.860962,454
872.978149,454
873.095337,472
873.212646,452
873.329834,443
873.44696,480
873.564209,451
873.681396,456
873.798645,462
873.915894,454
874.03302,467
874.150208,450
874.267456,449
874.384583,462
874.501831,449
874.618958,453
874.736145,430
874.853333,449
874.970459,443
875.087646,463
875.204834,439
875.32196,468
875.439148,446
875.556274,461
875.673401,454
875.790527,461
875.907715,454
876.024841,454
876.141968,456
876.259094,451
876.376282,458
876.493347,450
876.610474,452
876.7276,440
876.844727,456
876.961853,456
877.078918,462
877.195984,472
877.313171,456
877.430237,448
877.547302,444
877.664368,476
877.781433,470
877.898499,457
878.015625,485
878.13269,455
878.249695,473
878.366821,482
878.483887,444
878.600952,465
878.717957,476
878.834961,467
878.952087,460
879.069092,457
879.186157,467
879.303162,481
879.420227,464
879.537231,453
879.654236,485
879.77124,442
879.888306,461
880.005249,477
880.122314,460
880.239319,460
880.356323,442
880.473328,458
880.590271,446
880.707275,456
880.824341,452
880.941284,473
881.058228,452
881.175232,449
881.292236,459
881.40918,472
881.526123,444
881.643066,470
881.760071,450
881.877014,471
881.993958,459
882.11084,455
882.227783,445
882.344727,458
882.46167,453
882.578613,451
882.695618,448
882.812439,447
882.929382,478
883.046326,452
883.163208,463
883.280151,450
883.397034,470
883.513916,461
883.630798,452
883.747742,463
883.864563,473
883.981506,460
884.098389,446
884.21521,480
884.332153,465
884.448975,456
884.565796,459
884.682678,446
884.7995,463
884.916443,454
885.033264,453
885.150085,458
885.266968,457
885.383789,467
885.500671,461
885.617493,471
885.734314,459
885.851196,462
885.967896,470
886.084717,465
886.201599,448
886.318359,482
886.435181,455
886.552002,467
886.668762,453
886.785645,476
886.902344,458
887.019165,469
887.135925,471
887.252747,454
887.369446,442
887.486267,486
887.603027,466
887.719788,452
887.836548,455
887.953247,479
888.070068,447
888.186829,456
888.303528,458
888.420288,473
888.536987,451
888.653687,473
888.770447,454
888.887146,468
889.003967,471
889.120667,464
889.237305,447
889.354065,467
889.470703,474
889.587463,485
889.704163,468
889.820862,477
889.937561,464
890.054199,471
890.170837,473
890.287598,457
890.404236,445
890.520874,464
890.637634,443
890.754211,464
890.87085,466
890.987549,488
891.104187,446
891.220886,460
891.337463,453
891.454102,465
891.57074,465
891.687378,475
891.804077,468
891.920654,459
892.037231,464
892.15387,469
892.270447,454
892.387085,480
892.503723,471
892.6203,449
892.736877,465
892.853516,439
892.970032,444
893.08667,488
893.203186,479
893.319763,472
893.43634,458
893.552917,468
893.669556,443
893.786011,460
893.902588,452
894.019165,464
894.135681,454
894.252197,468
894.368835,472
894.485291,453
894.601868,479
894.718384,458
894.8349,464
894.951355,469
895.067932,474
895.184448,475
895.300964,452
895.417419,460
895.533936,450
895.650452,450
895.766907,442
895.883423,469
895.999878,446
896.116333,480
896.232849,459
896.349304,458
896.465759,452
896.582214,481
896.698669,471
896.815125,469
896.931641,466
897.048035,461
897.164551,444
897.280884,455
897.397339,464
897.513794,478
897.630249,474
897.746582,471
897.863098,465
897.979431,462
898.095886,450
898.212341,471
898.328674,468
898.445129,450
898.561462,450
898.677795,468
898.794312,466
898.910645,465
899.026978,462
899.143433,482
899.259766,464
899.37616,461
899.492493,456
899.608765,472
899.725159,464
899.841553,481
899.957947,483
900.07428,459
900.190552,451
900.306946,465
900.423157,475
900.53949,491
900.655884,443
900.772156,458
900.888489,461
901.004822,463
901.121033,462
901.237366,450
901.353699,454
901.46991,463
901.586304,472
901.702515,458
901.818787,478
901.93512,452
902.051331,470
902.167603,463
902.283875,459
902.400085,478
902.516418,469
902.632629,467
902.74884,462
902.865112,475
902.981384,486
903.097595,453
903.213867,460
903.330017,482
903.446289,471
903.5625,492
903.67865,463
903.794922,467
903.911072,453
904.027344,453
904.143494,461
904.259705,458
904.375916,475
904.492065,462
904.608215,471
904.724426,470
904.840576,453
904.956726,478
905.072876,462
905.189087,470
905.305176,479
905.421387,464
905.537537,461
905.653687,462
905.769775,461
905.885925,472
906.002014,472
906.118164,474
906.234314,450
906.350403,479
906.466492,474
906.582642,483
906.69873,470
906.814758,480
906.930908,469
907.046936,478
907.163086,462
907.279175,468
907.395264,472
907.511353,475
907.62738,474
907.743408,490
907.859497,452
907.975525,464
908.091553,493
908.207703,468
908.32373,461
908.439758,473
908.555786,464
908.671814,460
908.787842,464
908.90387,473
909.019775,458
909.135864,479
909.251892,472
909.367859,466
909.483826,476
909.599854,475
909.715881,474
909.831848,482
909.947815,448
910.063782,475
910.179749,455
910.295776,466
910.411743,477
910.527649,481
910.643616,489
910.759583,468
910.875488,477
910.991455,459
911.107361,475
911.223267,455
911.339294,479
911.4552,454
911.571106,468
911.687073,468
911.802979,473
911.918823,473
912.034729,470
912.150635,494
912.266602,473
912.382446,471
912.498352,457
912.614197,482
912.730103,474
912.846008,454
