792.44574,1112
792.56488,1082
792.68396,1136
792.80304,1081
792.92218,1023
793.041199,996
793.160339,999
793.279419,956
793.398499,967
793.517578,921
793.636658,893
793.755737,884
793.874817,872
793.993896,905
794.112976,857
794.232056,839
794.351074,833
794.470215,829
794.589233,803
794.708313,797
794.827393,788
794.946411,815
795.065552,783
795.18457,781
795.303589,760
795.422668,754
795.541687,758
795.660767,745
795.779846,740
795.898865,746
796.017883,713
796.136963,707
796.255981,686
796.375061,704
796.49408,701
796.613037,673
796.732117,694
796.851135,699
796.970154,682
797.089233,682
797.208191,675
797.327271,664
797.446228,670
797.565186,633
797.684265,650
797.803223,640
797.922241,657
798.04126,679
798.160278,662
798.279297,661
798.398315,627
798.517273,636
798.636292,613
798.75531,650
798.874268,651
798.993286,635
799.112244,627
799.231323,632
799.350281,636
799.469238,662
799.588257,634
799.707153,638
799.826111,611
799.945129,623
800.064087,635
800.183044,602
800.302063,606
800.421021,640
800.539978,620
800.658936,600
800.777893,618
800.896912,608
801.015747,624
801.134705,599
801.253723,598
801.37262,586
801.491638,624
801.610535,584
801.729492,606
801.84845,586
801.967407,593
802.086243,589
802.205261,585
802.324158,595
802.443115,605
802.562073,587
802.680969,569
802.799927,598
802.918762,594
803.037659,583
803.156677,577
803.275574,574
803.39447,574
803.513428,568
803.632263,571
803.751221,603
803.870117,584
803.989014,581
804.107971,601
804.226746,566
804.345642,565
804.4646,586
804.583496,590
804.702393,562
804.821228,566
804.940125,594
805.059021,574
805.177917,580
805.296814,581
805.415649,564
805.534546,564
805.653442,571
805.772278,573
805.891113,575
806.01001,576
806.128906,569
806.247742,586
806.366577,560
806.485413,578
806.604309,555
806.723145,547
806.84198,559
806.960876,555
807.079712,556
807.198486,589
807.317383,561
807.436218,565
807.554993,554
807.673889,555
807.792725,548
807.91156,552
808.030396,567
808.14917,555
808.268005,550
808.386841,565
808.505676,545
808.624451,556
808.743286,564
808.862122,557
808.980896,563
809.099731,568
809.218506,546
809.337341,550
809.456116,560
809.57489,559
809.693726,563
809.8125,578
809.931274,559
810.050049,557
810.168884,560
810.287659,546
810.406372,548
810.525269,553
810.643982,558
810.762756,542
810.881531,556
811.000305,566
811.11908,533
811.237854,554
811.356567,549
811.475403,548
811.594116,565
811.71283,539
811.831604,559
811.950378,569
812.069153,568
812.187927,573
812.30658,577
812.425415,544
812.544128,600
812.662781,545
812.781616,524
812.900269,559
813.019043,566
813.137756,546
813.256531,557
813.375244,542
813.493896,566
813.612671,525
813.731384,548
813.850037,539
813.96875,556
814.087524,557
814.206238,567
814.324951,561
814.443604,519
814.562256,548
814.68103,549
814.799683,542
814.918335,566
815.037109,552
815.155762,527
815.274475,556
815.393188,544
815.511841,536
815.630554,560
815.749146,532
815.867859,540
815.986572,533
816.105164,533
816.223877,539
816.342529,557
816.461182,547
816.579895,539
816.698486,555
816.817139,544
816.935791,542
817.054504,576
817.173096,550
817.291748,550
817.4104,542
817.529053,529
817.647644,543
817.766235,566
817.884949,543
818.00354,533
818.122192,532
818.240845,524
818.359436,529
818.478088,536
818.59668,528
818.715271,529
818.833923,511
818.952515,521
819.071106,507
819.189758,511
819.30835,530
819.426941,496
819.545532,495
819.664124,498
819.782715,506
819.901306,508
820.019897,513
820.138489,521
820.25708,500
820.375671,498
820.494202,512
820.612732,528
820.731384,495
820.849915,502
820.968506,491
821.087097,481
821.205627,488
821.324158,511
821.442749,484
821.561279,484
821.679871,525
821.798401,492
821.916931,497
822.035461,482
822.154053,479
822.272583,498
822.391174,498
822.509583,498
822.628174,483
822.746704,510
822.865234,488
822.983765,484
823.102295,485
823.220825,506
823.339294,479
823.457825,493
823.576355,500
823.694824,495
823.813354,481
823.931885,479
824.050354,503
824.168884,511
824.287354,504
824.405823,482
824.524353,494
824.642822,495
824.761353,497
824.879822,503
824.998291,502
825.116699,484
825.235291,488
825.353699,500
825.472168,491
825.590637,494
825.709106,479
825.827576,503
825.946045,473
826.064453,482
826.182983,480
826.301392,483
826.4198,479
826.53833,481
826.656738,475
826.775208,459
826.893677,484
827.012024,475
827.130493,487
827.248962,475
827.36731,484
827.485779,488
827.604248,495
827.722595,502
827.841064,476
827.959412,483
828.077942,464
828.196289,481
828.314636,457
828.433105,488
828.551514,474
828.669861,485
828.78833,490
828.906677,484
829.025085,500
829.143433,483
829.261841,458
829.38031,488
829.498657,477
829.617004,476
829.735413,477
829.85376,465
829.972107,489
830.090515,467
830.208862,480
830.327209,484
830.445557,483
830.563904,467
830.682312,473
830.800659,488
830.919006,501
831.037354,473
831.155701,475
831.274048,488
831.392395,506
831.51062,500
831.629028,467
831.747314,476
831.865662,467
831.984009,495
832.102356,478
832.220642,503
832.338928,495
832.457275,504
832.575623,479
832.693909,503
832.812134,482
832.930481,506
833.048828,473
833.167114,489
833.2854,480
833.403687,507
833.521973,492
833.640259,480
833.758545,468
833.876831,476
833.995056,488
834.113281,476
834.231628,493
834.349915,473
834.468201,493
834.586426,496
834.704651,472
834.822998,499
834.941162,495
835.059448,479
835.177673,490
835.295959,508
835.414246,513
835.53241,489
835.650635,491
835.768921,478
835.887146,481
836.005371,485
836.123596,499
836.241821,475
836.360046,464
836.478271,489
836.596497,485
836.714722,476
836.832886,473
836.95105,475
837.069336,486
837.1875,493
837.305725,478
837.423889,493
837.542053,478
837.660339,481
837.778503,477
837.896667,489
838.014832,495
838.132996,492
838.25116,505
838.369385,477
838.487488,481
838.605713,486
838.723877,485
838.84198,490
838.960205,489
839.078308,490
839.196472,469
839.314636,502
839.4328,497
839.550964,479
839.669067,483
839.787231,491
839.905396,509
840.023499,509
840.141602,493
840.259766,506
840.377869,509
840.495972,516
840.614136,516
840.732239,521
840.850342,524
840.968445,506
841.086548,532
841.204651,525
841.322754,516
841.440918,532
841.55896,524
841.677002,519
841.795166,513
841.913208,523
842.031311,504
842.149353,509
842.267456,512
842.385498,525
842.503601,512
842.621643,525
842.739746,503
842.857788,516
842.97583,519
843.093933,529
843.211975,516
843.330017,538
843.44812,506
843.566101,506
843.684204,516
843.802246,516
843.920227,505
844.038269,527
844.156311,518
844.274292,503
844.392395,502
844.510376,534
844.628357,513
844.74646,512
844.864441,494
844.982422,517
845.100403,488
845.218384,522
845.336426,507
845.454468,516
845.572449,494
845.69043,531
845.808411,500
845.926453,513
846.044373,498
846.162354,506
846.280396,510
846.398315,514
846.516296,524
846.634216,510
846.752197,509
846.870178,513
846.988098,519
847.106079,516
847.22406,511
847.34198,527
847.4599,517
847.577881,509
847.695801,494
847.813782,514
847.931641,513
848.049561,515
848.167603,508
848.285461,524
848.403381,511
848.521362,504
848.639221,511
848.75708,499
848.875,521
848.99292,515
849.110901,520
849.22876,517
849.34668,522
849.464539,494
849.582458,529
849.700317,524
849.818176,532
849.936096,503
850.053955,515
850.171875,534
850.289673,514
850.407593,517
850.525452,527
850.643311,509
850.761169,489
850.878967,504
850.996887,522
851.114746,496
851.232544,518
851.350403,533
851.468262,507
851.58606,512
851.703979,489
851.821777,529
851.939636,505
852.057434,505
852.175232,519
852.293091,509
852.410889,523
852.528687,532
852.646545,529
852.764343,554
852.88208,532
852.999939,523
853.117676,516
853.235535,519
853.353271,504
853.471069,538
853.588928,515
853.706604,497
853.824402,510
853.9422,518
854.059998,497
854.177734,522
854.295532,509
854.413269,518
854.531006,524
854.648804,496
854.766541,513
854.884277,512
855.002014,514
855.119751,541
855.237549,503
855.355225,519
855.473022,513
855.590698,520
855.708435,539
855.826172,515
855.943848,523
856.061646,530
856.179321,528
856.296997,512
856.414795,513
856.53241,525
856.650085,518
856.767822,524
856.885559,550
857.003174,518
857.120911,537
857.238586,539
857.356201,556
857.473938,519
857.591614,530
857.709351,522
857.826965,532
857.944641,513
858.062317,537
858.179993,518
858.297668,531
858.415283,536
858.532959,535
858.650574,524
858.768188,518
858.885803,518
859.003479,541
859.121094,526
859.23877,493
859.356384,548
859.473999,521
859.591675,520
859.709229,520
859.826843,491
859.944458,498
860.062012,483
860.179626,520
860.297302,512
860.414856,527
860.532471,507
860.650024,491
860.767639,507
860.885193,503
861.002808,504
861.120361,511
861.237976,506
861.35553,518
861.473022,529
861.590698,481
861.708191,525
861.825745,510
861.943298,508
862.060852,496
862.178406,485
862.295959,490
862.413513,508
862.531006,487
862.64856,515
862.766113,482
862.883667,477
863.00116,486
863.118713,475
863.236206,493
863.353699,477
863.471252,505
863.588745,489
863.706177,501
863.82373,509
863.941162,524
864.058716,501
864.176208,509
864.29364,489
864.411194,489
864.528687,501
864.646118,505
864.763611,481
864.881042,498
864.998535,488
865.116028,496
865.233459,483
865.350891,496
865.468384,511
865.585754,484
865.703308,493
865.820679,485
865.938171,513
866.055542,482
866.173035,505
866.290466,488
866.407837,472
866.52533,490
866.6427,490
866.760071,489
866.877563,498
866.994934,496
867.112305,497
867.229736,508
867.347107,500
867.464539,486
867.58197,484
867.699341,497
867.81665,502
867.934082,520
868.051453,502
868.168823,490
868.286194,504
868.403564,482
868.520935,508
868.638306,497
868.755676,503
868.872986,518
868.990295,499
869.107727,517
869.225037,499
869.342346,507
869.459717,508
869.577026,517
869.694336,531
869.811707,522
869.929016,504
870.046326,531
870.163635,524
870.280945,512
870.398254,539
870.515564,531
870.632812,535
870.750183,524
870.867432,502
870.984741,541
871.102051,533
871.219299,560
871.336609,522
871.453918,537
871.571106,530
871.688416,532
871.805664,550
871.922852,547
872.040222,548
872.157471,530
872.274719,552
872.391968,530
872.509155,528
872.626465,550
872.743652,529
872.860962,555
872.978149,527
873.095337,536
873.212646,540
873.329834,534
873.44696,533
873.564209,529
873.681396,535
873.798645,537
873.915894,519
874.03302,509
874.150208,532
874.267456,541
874.384583,523
874.501831,534
874.618958,553
874.736145,561
874.853333,562
874.970459,541
875.087646,544
875.204834,549
875.32196,532
875.439148,537
875.556274,529
875.673401,516
875.790527,497
875.907715,531
876.024841,512
876.141968,537
876.259094,507
876.376282,526
876.493347,512
876.610474,518
876.7276,535
876.844727,517
876.961853,509
877.078918,520
877.195984,504
877.313171,505
877.430237,526
877.547302,505
877.664368,493
877.781433,522
877.898499,514
878.015625,509
878.13269,504
878.249695,516
878.366821,493
878.483887,493
878.600952,517
878.717957,491
878.834961,503
878.952087,498
879.069092,491
879.186157,488
879.303162,496
879.420227,491
879.537231,480
879.654236,506
879.77124,479
879.888306,494
880.005249,493
880.122314,488
880.239319,485
880.356323,476
880.473328,477
880.590271,494
880.707275,479
880.824341,481
880.941284,470
881.058228,465
881.175232,490
881.292236,472
881.40918,475
881.526123,478
881.643066,480
881.760071,489
881.877014,467
881.993958,475
882.11084,480
882.227783,494
882.344727,495
882.46167,484
882.578613,480
882.695618,476
882.812439,484
882.929382,482
883.046326,473
883.163208,479
883.280151,487
883.397034,480
883.513916,475
883.630798,477
883.747742,500
883.864563,472
883.981506,490
884.098389,482
884.21521,491
884.332153,519
884.448975,521
884.565796,508
884.682678,526
884.7995,534
884.916443,539
885.033264,562
885.150085,576
885.266968,608
885.383789,583
885.500671,597
885.617493,608
885.734314,601
885.851196,617
885.967896,581
886.084717,578
886.201599,583
886.318359,568
886.435181,553
886.552002,587
886.668762,585
886.785645,557
886.902344,561
887.019165,547
887.135925,553
887.252747,572
887.369446,530
887.486267,533
887.603027,527
887.719788,541
887.836548,527
887.953247,520
888.070068,511
888.186829,513
888.303528,517
888.420288,492
888.536987,478
888.653687,485
888.770447,512
888.887146,477
889.003967,489
889.120667,465
889.237305,481
889.354065,471
889.470703,464
889.587463,461
889.704163,468
889.820862,479
889.937561,481
890.054199,469
890.170837,484
890.287598,455
890.404236,465
890.520874,463
890.637634,473
890.754211,461
890.87085,471
890.987549,468
891.104187,478
891.220886,462
891.337463,471
891.454102,465
891.57074,473
891.687378,469
891.804077,473
891.920654,480
892.037231,449
892.15387,489
892.270447,485
892.387085,467
892.503723,473
892.6203,478
892.736877,457
892.853516,480
892.970032,462
893.08667,477
893.203186,465
893.319763,461
893.43634,472
893.552917,462
893.669556,474
893.786011,465
893.902588,476
894.019165,452
894.135681,471
894.252197,468
894.368835,465
894.485291,463
894.601868,475
894.718384,482
894.8349,457
894.951355,472
895.067932,495
895.184448,445
895.300964,452
895.417419,473
895.533936,453
895.650452,448
895.766907,452
895.883423,480
895.999878,461
896.116333,465
896.232849,446
896.349304,467
896.465759,457
896.582214,466
896.698669,459
896.815125,487
896.931641,467
897.048035,459
897.164551,459
897.280884,478
897.397339,477
897.513794,466
897.630249,463
897.746582,462
897.863098,486
897.979431,466
898.095886,466
898.212341,462
898.328674,467
898.445129,484
898.561462,481
898.677795,473
898.794312,471
898.910645,482
899.026978,470
899.143433,501
899.259766,480
899.37616,483
899.492493,482
899.608765,472
899.725159,481
899.841553,459
899.957947,475
900.07428,490
900.190552,471
900.306946,468
900.423157,474
900.53949,479
900.655884,442
900.772156,476
900.888489,467
901.004822,483
901.121033,482
901.237366,486
901.353699,458
901.46991,472
901.586304,472
901.702515,481
901.818787,476
901.93512,495
902.051331,491
902.167603,486
902.283875,512
902.400085,509
902.516418,522
902.632629,518
902.74884,540
902.865112,544
902.981384,527
903.097595,536
903.213867,540
903.330017,518
903.446289,521
903.5625,530
903.67865,519
903.794922,516
903.911072,521
904.027344,492
904.143494,526
904.259705,501
904.375916,501
904.492065,504
904.608215,500
904.724426,485
904.840576,479
904.956726,482
905.072876,479
905.189087,467
905.305176,462
905.421387,479
905.537537,471
905.653687,463
905.769775,477
905.885925,458
906.002014,491
906.118164,470
906.234314,468
906.350403,468
906.466492,474
906.582642,449
906.69873,441
906.814758,485
906.930908,465
907.046936,451
907.163086,461
907.279175,464
907.395264,463
907.511353,466
907.62738,453
907.743408,468
907.859497,453
907.975525,486
908.091553,451
908.207703,469
908.32373,474
908.439758,467
908.555786,480
908.671814,477
908.787842,467
908.90387,475
909.019775,461
909.135864,472
909.251892,456
909.367859,488
909.483826,464
909.599854,461
909.715881,472
909.831848,480
909.947815,477
910.063782,479
910.179749,468
910.295776,470
910.411743,466
910.527649,484
910.643616,460
910.759583,462
910.875488,483
910.991455,471
911.107361,482
911.223267,469
911.339294,461
911.4552,464
911.571106,466
911.687073,484
911.802979,469
911.918823,463
912.034729,480
912.150635,468
912.266602,463
912.382446,479
912.498352,466
912.614197,440
912.730103,455
912.846008,467
792.44574,1129
792.56488,1107
792.68396,1140
792.80304,1102
792.92218,1053
793.041199,999
793.160339,996
793.279419,963
793.398499,949
793.517578,923
793.636658,921
793.755737,899
793.874817,939
793.993896,901
794.112976,862
794.232056,857
794.351074,860
794.470215,824
794.589233,827
794.708313,822
794.827393,766
794.946411,797
795.065552,774
795.18457,780
795.303589,792
795.422668,778
795.541687,725
795.660767,755
795.779846,711
795.898865,749
796.017883,733
796.136963,704
796.255981,712
796.375061,714
796.49408,725
796.613037,712
796.732117,687
796.851135,693
796.970154,696
797.089233,671
797.208191,694
797.327271,679
797.446228,646
797.565186,663
797.684265,654
797.803223,662
797.922241,672
798.04126,663
798.160278,666
798.279297,641
798.398315,656
798.517273,640
798.636292,635
798.75531,642
798.874268,640
798.993286,660
799.112244,660
799.231323,622
799.350281,625
799.469238,623
799.588257,636
799.707153,651
799.826111,645
799.945129,644
800.064087,621
800.183044,579
800.302063,633
800.421021,604
800.539978,636
800.658936,623
800.777893,600
800.896912,626
801.015747,596
801.134705,605
801.253723,600
801.37262,617
801.491638,612
801.610535,596
801.729492,589
801.84845,612
801.967407,602
802.086243,596
802.205261,586
802.324158,597
802.443115,585
802.562073,581
802.680969,561
802.799927,613
802.918762,581
803.037659,584
803.156677,596
803.275574,588
803.39447,608
803.513428,596
803.632263,587
803.751221,596
803.870117,580
803.989014,578
804.107971,583
804.226746,575
804.345642,586
804.4646,591
804.583496,579
804.702393,579
804.821228,582
804.940125,564
805.059021,560
805.177917,557
805.296814,588
805.415649,561
805.534546,569
805.653442,555
805.772278,560
805.891113,578
806.01001,592
806.128906,585
806.247742,538
806.366577,551
806.485413,561
806.604309,583
806.723145,545
806.84198,574
806.960876,579
807.079712,551
807.198486,553
807.317383,568
807.436218,555
807.554993,579
807.673889,553
807.792725,573
807.91156,558
808.030396,575
808.14917,556
808.268005,567
808.386841,552
808.505676,577
808.624451,542
808.743286,579
808.862122,536
808.980896,562
809.099731,544
809.218506,567
809.337341,546
809.456116,564
809.57489,564
809.693726,569
809.8125,554
809.931274,552
810.050049,556
810.168884,569
810.287659,546
810.406372,554
810.525269,545
810.643982,563
810.762756,570
810.881531,561
811.000305,546
811.11908,573
811.237854,559
811.356567,557
811.475403,571
811.594116,552
811.71283,560
811.831604,579
811.950378,571
812.069153,567
812.187927,556
812.30658,556
812.425415,557
812.544128,599
812.662781,566
812.781616,563
812.900269,557
813.019043,564
813.137756,580
813.256531,550
813.375244,546
813.493896,554
813.612671,556
813.731384,551
813.850037,541
813.96875,565
814.087524,556
814.206238,553
814.324951,548
814.443604,560
814.562256,576
814.68103,568
814.799683,559
814.918335,567
815.037109,533
815.155762,552
815.274475,548
815.393188,556
815.511841,533
815.630554,542
815.749146,558
815.867859,540
815.986572,543
816.105164,532
816.223877,555
816.342529,556
816.461182,540
816.579895,572
816.698486,532
816.817139,544
816.935791,574
817.054504,578
817.173096,562
817.291748,550
817.4104,556
817.529053,556
817.647644,546
817.766235,542
817.884949,536
818.00354,544
818.122192,538
818.240845,510
818.359436,526
818.478088,533
818.59668,536
818.715271,512
818.833923,515
818.952515,532
819.071106,517
819.189758,517
819.30835,528
819.426941,515
819.545532,493
819.664124,513
819.782715,519
819.901306,508
820.019897,512
820.138489,502
820.25708,518
820.375671,515
820.494202,512
820.612732,508
820.731384,527
820.849915,507
820.968506,502
821.087097,491
821.205627,508
821.324158,503
821.442749,508
821.561279,523
821.679871,489
821.798401,510
821.916931,490
822.035461,485
822.154053,495
822.272583,514
822.391174,495
822.509583,507
822.628174,501
822.746704,501
822.865234,479
822.983765,501
823.102295,488
823.220825,509
823.339294,475
823.457825,487
823.576355,481
823.694824,483
823.813354,496
823.931885,477
824.050354,504
824.168884,502
824.287354,491
824.405823,495
824.524353,506
824.642822,518
824.761353,516
824.879822,503
824.998291,519
825.116699,511
825.235291,484
825.353699,489
825.472168,495
825.590637,487
825.709106,488
825.827576,506
825.946045,497
826.064453,494
826.182983,492
826.301392,480
826.4198,470
826.53833,495
826.656738,486
826.775208,487
826.893677,480
827.012024,491
827.130493,468
827.248962,489
827.36731,487
827.485779,471
827.604248,482
827.722595,500
827.841064,487
827.959412,490
828.077942,475
828.196289,463
828.314636,474
828.433105,478
828.551514,476
828.669861,473
828.78833,490
828.906677,483
829.025085,478
829.143433,482
829.261841,473
829.38031,490
829.498657,473
829.617004,479
829.735413,477
829.85376,482
829.972107,480
830.090515,484
830.208862,477
830.327209,489
830.445557,472
830.563904,488
830.682312,470
830.800659,473
830.919006,508
831.037354,485
831.155701,478
831.274048,498
831.392395,485
831.51062,508
831.629028,504
831.747314,479
831.865662,478
831.984009,479
832.102356,497
832.220642,510
832.338928,509
832.457275,496
832.575623,486
832.693909,489
832.812134,491
832.930481,505
833.048828,493
833.167114,482
833.2854,486
833.403687,474
833.521973,488
833.640259,498
833.758545,488
833.876831,489
833.995056,471
834.113281,469
834.231628,504
834.349915,487
834.468201,501
834.586426,491
834.704651,498
834.822998,497
834.941162,501
835.059448,512
835.177673,489
835.295959,508
835.414246,474
835.53241,488
835.650635,502
835.768921,511
835.887146,490
836.005371,495
836.123596,489
836.241821,503
836.360046,485
836.478271,481
836.596497,468
836.714722,484
836.832886,477
836.95105,487
837.069336,486
837.1875,479
837.305725,489
837.423889,488
837.542053,491
837.660339,501
837.778503,489
837.896667,497
838.014832,482
838.132996,469
838.25116,482
838.369385,476
838.487488,505
838.605713,487
838.723877,499
838.84198,484
838.960205,495
839.078308,490
839.196472,489
839.314636,514
839.4328,485
839.550964,510
839.669067,499
839.787231,493
839.905396,510
840.023499,512
840.141602,505
840.259766,518
840.377869,523
840.495972,515
840.614136,500
840.732239,508
840.850342,519
840.968445,503
841.086548,529
841.204651,503
841.322754,530
841.440918,513
841.55896,532
841.677002,523
841.795166,514
841.913208,516
842.031311,521
842.149353,533
842.267456,534
842.385498,524
842.503601,511
842.621643,534
842.739746,503
842.857788,517
842.97583,513
843.093933,535
843.211975,527
843.330017,516
843.44812,527
843.566101,539
843.684204,524
843.802246,539
843.920227,527
844.038269,522
844.156311,524
844.274292,521
844.392395,498
844.510376,521
844.628357,507
844.74646,520
844.864441,515
844.982422,534
845.100403,520
845.218384,517
845.336426,513
845.454468,494
845.572449,482
845.69043,512
845.808411,506
845.926453,505
846.044373,498
846.162354,523
846.280396,522
846.398315,489
846.516296,505
846.634216,525
846.752197,526
846.870178,533
846.988098,497
847.106079,498
847.22406,514
847.34198,489
847.4599,521
847.577881,510
847.695801,517
847.813782,499
847.931641,504
848.049561,529
848.167603,484
848.285461,503
848.403381,524
848.521362,517
848.639221,507
848.75708,510
848.875,529
848.99292,517
849.110901,501
849.22876,525
849.34668,515
849.464539,508
849.582458,542
849.700317,508
849.818176,506
849.936096,505
850.053955,508
850.171875,521
850.289673,504
850.407593,519
850.525452,518
850.643311,507
850.761169,520
850.878967,505
850.996887,518
851.114746,505
851.232544,484
851.350403,512
851.468262,520
851.58606,489
851.703979,509
851.821777,521
851.939636,514
852.057434,485
852.175232,513
852.293091,539
852.410889,532
852.528687,536
852.646545,534
852.764343,538
852.88208,538
852.999939,513
853.117676,531
853.235535,527
853.353271,491
853.471069,514
853.588928,508
853.706604,525
853.824402,507
853.9422,509
854.059998,496
854.177734,504
854.295532,509
854.413269,543
854.531006,509
854.648804,520
854.766541,519
854.884277,535
855.002014,515
855.119751,519
855.237549,519
855.355225,502
855.473022,510
855.590698,522
855.708435,485
855.826172,526
855.943848,510
856.061646,528
856.179321,525
856.296997,531
856.414795,544
856.53241,527
856.650085,529
856.767822,542
856.885559,546
857.003174,561
857.120911,528
857.238586,516
857.356201,545
857.473938,532
857.591614,537
857.709351,537
857.826965,543
857.944641,540
858.062317,543
858.179993,541
858.297668,513
858.415283,533
858.532959,534
858.650574,537
858.768188,529
858.885803,541
859.003479,530
859.121094,514
859.23877,522
859.356384,559
859.473999,533
859.591675,529
859.709229,528
859.826843,538
859.944458,502
860.062012,510
860.179626,502
860.297302,507
860.414856,515
860.532471,505
860.650024,527
860.767639,499
860.885193,498
861.002808,522
861.120361,514
861.237976,493
861.35553,535
861.473022,497
861.590698,513
861.708191,536
861.825745,521
861.943298,517
862.060852,516
862.178406,514
862.295959,498
862.413513,529
862.531006,506
862.64856,476
862.766113,486
862.883667,490
863.00116,496
863.118713,488
863.236206,491
863.353699,482
863.471252,488
863.588745,500
863.706177,520
863.82373,513
863.941162,499
864.058716,511
864.176208,508
864.29364,496
864.411194,504
864.528687,500
864.646118,505
864.763611,517
864.881042,498
864.998535,496
865.116028,488
865.233459,496
865.350891,480
865.468384,500
865.585754,491
865.703308,481
865.820679,505
865.938171,472
866.055542,497
866.173035,514
866.290466,494
866.407837,502
866.52533,479
866.6427,495
866.760071,503
866.877563,497
866.994934,479
867.112305,480
867.229736,486
867.347107,475
867.464539,496
867.58197,491
867.699341,476
867.81665,501
867.934082,471
868.051453,494
868.168823,508
868.286194,493
868.403564,486
868.520935,513
868.638306,514
868.755676,502
868.872986,505
868.990295,511
869.107727,505
869.225037,522
869.342346,496
869.459717,498
869.577026,503
869.694336,512
869.811707,525
869.929016,516
870.046326,529
870.163635,533
870.280945,503
870.398254,518
870.515564,536
870.632812,522
870.750183,524
870.867432,512
870.984741,510
871.102051,535
871.219299,532
871.336609,538
871.453918,514
871.571106,567
871.688416,545
871.805664,538
871.922852,551
872.040222,538
872.157471,540
872.274719,535
872.391968,527
872.509155,555
872.626465,533
872.743652,556
872.860962,522
872.978149,518
873.095337,549
873.212646,557
873.329834,515
873.44696,551
873.564209,505
873.681396,531
873.798645,533
873.915894,511
874.03302,526
874.150208,536
874.267456,523
874.384583,558
874.501831,548
874.618958,539
874.736145,541
874.853333,557
874.970459,557
875.087646,530
875.204834,541
875.32196,550
875.439148,520
875.556274,561
875.673401,553
875.790527,525
875.907715,503
876.024841,536
876.141968,521
876.259094,530
876.376282,520
876.493347,521
876.610474,527
876.7276,509
876.844727,529
876.961853,515
877.078918,505
877.195984,518
877.313171,508
877.430237,527
877.547302,506
877.664368,529
877.781433,511
877.898499,512
878.015625,508
878.13269,513
878.249695,505
878.366821,525
878.483887,502
878.600952,511
878.717957,516
878.834961,537
878.952087,505
879.069092,483
879.186157,477
879.303162,497
879.420227,486
879.537231,485
879.654236,488
879.77124,494
879.888306,496
880.005249,490
880.122314,482
880.239319,490
880.356323,492
880.473328,481
880.590271,464
880.707275,499
880.824341,458
880.941284,480
881.058228,470
881.175232,518
881.292236,492
881.40918,485
881.526123,488
881.643066,494
881.760071,475
881.877014,469
881.993958,486
882.11084,486
882.227783,482
882.344727,477
882.46167,504
882.578613,471
882.695618,490
882.812439,496
882.929382,489
883.046326,494
883.163208,468
883.280151,490
883.397034,494
883.513916,498
883.630798,484
883.747742,495
883.864563,498
883.981506,500
884.098389,520
884.21521,512
884.332153,523
884.448975,519
884.565796,506
884.682678,553
884.7995,543
884.916443,568
885.033264,584
885.150085,575
885.266968,572
885.383789,609
885.500671,591
885.617493,603
885.734314,589
885.851196,603
885.967896,568
886.084717,616
886.201599,582
886.318359,566
886.435181,598
886.552002,591
886.668762,574
886.785645,582
886.902344,579
887.019165,542
887.135925,563
887.252747,564
887.369446,536
887.486267,552
887.603027,529
887.719788,528
887.836548,540
887.953247,523
888.070068,510
888.186829,517
888.303528,511
888.420288,495
888.536987,499
888.653687,499
888.770447,499
888.887146,501
889.003967,480
889.120667,473
889.237305,484
889.354065,472
889.470703,478
889.587463,469
889.704163,464
889.820862,481
889.937561,475
890.054199,488
890.170837,459
890.287598,471
890.404236,466
890.520874,481
890.637634,464
890.754211,478
890.87085,467
890.987549,487
891.104187,495
891.220886,462
891.337463,453
891.454102,479
891.57074,470
891.687378,477
891.804077,476
891.920654,463
892.037231,471
892.15387,481
892.270447,470
892.387085,470
892.503723,483
892.6203,478
892.736877,485
892.853516,465
892.970032,467
893.08667,472
893.203186,490
893.319763,476
893.43634,455
893.552917,465
893.669556,484
893.786011,479
893.902588,478
894.019165,481
894.135681,467
894.252197,487
894.368835,468
894.485291,472
894.601868,478
894.718384,475
894.8349,464
894.951355,481
895.067932,478
895.184448,464
895.300964,460
895.417419,466
895.533936,473
895.650452,474
895.766907,468
895.883423,465
895.999878,451
896.116333,482
896.232849,455
896.349304,464
896.465759,467
896.582214,452
896.698669,462
896.815125,472
896.931641,479
897.048035,471
897.164551,476
897.280884,480
897.397339,458
897.513794,456
897.630249,459
897.746582,490
897.863098,462
897.979431,481
898.095886,475
898.212341,461
898.328674,489
898.445129,494
898.561462,492
898.677795,484
898.794312,479
898.910645,494
899.026978,472
899.143433,482
899.259766,477
899.37616,470
899.492493,473
899.608765,483
899.725159,455
899.841553,489
899.957947,477
900.07428,474
900.190552,469
900.306946,495
900.423157,459
900.53949,493
900.655884,454
900.772156,465
900.888489,489
901.004822,476
901.121033,479
901.237366,485
901.353699,474
901.46991,486
901.586304,493
901.702515,491
901.818787,491
901.93512,503
902.051331,509
902.167603,501
902.283875,516
902.400085,540
902.516418,531
902.632629,564
902.74884,537
902.865112,540
902.981384,531
903.097595,562
903.213867,527
903.330017,549
903.446289,532
903.5625,536
903.67865,517
903.794922,509
903.911072,513
904.027344,499
904.143494,525
904.259705,506
904.375916,508
904.492065,492
904.608215,489
904.724426,505
904.840576,474
904.956726,490
905.072876,483
905.189087,478
905.305176,497
905.421387,499
905.537537,471
905.653687,468
905.769775,459
905.885925,488
906.002014,484
906.118164,464
906.234314,482
906.350403,470
906.466492,470
906.582642,472
906.69873,452
906.814758,484
906.930908,472
907.046936,486
907.163086,468
907.279175,482
907.395264,451
907.511353,479
907.62738,471
907.743408,480
907.859497,469
907.975525,461
908.091553,477
908.207703,468
908.32373,471
908.439758,464
908.555786,472
908.671814,481
908.787842,450
908.90387,462
909.019775,473
909.135864,480
909.251892,453
909.367859,465
909.483826,494
909.599854,477
909.715881,475
909.831848,465
909.947815,469
910.063782,484
910.179749,483
910.295776,483
910.411743,471
910.527649,488
910.643616,465
910.759583,457
910.875488,459
910.991455,476
911.107361,477
911.223267,473
911.339294,466
911.4552,477
911.571106,471
911.687073,460
911.802979,475
911.918823,465
912.034729,456
912.150635,482
912.266602,458
912.382446,487
912.498352,470
912.614197,459
912.730103,462
912.846008,458
792.44574,1097
792.56488,1140
792.68396,1132
792.80304,1089
792.92218,997
793.041199,1030
793.160339,986
793.279419,1016
793.398499,962
793.517578,950
793.636658,927
793.755737,893
793.874817,890
793.993896,910
794.112976,866
794.232056,854
794.351074,816
794.470215,830
794.589233,839
794.708313,792
794.827393,799
794.946411,797
795.065552,781
795.18457,792
795.303589,805
795.422668,767
795.541687,761
795.660767,716
795.779846,738
795.898865,720
796.017883,745
796.136963,728
796.255981,732
796.375061,712
796.49408,725
796.613037,722
796.732117,717
796.851135,710
796.970154,685
797.089233,693
797.208191,683
797.327271,677
797.446228,653
797.565186,664
797.684265,653
797.803223,666
797.922241,655
798.04126,669
798.160278,636
798.279297,662
798.398315,661
798.517273,621
798.636292,654
798.75531,648
798.874268,667
798.993286,650
799.112244,640
799.231323,667
799.350281,622
799.469238,631
799.588257,623
799.707153,624
799.826111,639
799.945129,627
800.064087,653
800.183044,626
800.302063,630
800.421021,614
800.539978,624
800.658936,621
800.777893,620
800.896912,610
801.015747,617
801.134705,616
801.253723,602
801.37262,619
801.491638,616
801.610535,611
801.729492,597
801.84845,617
801.967407,601
802.086243,597
802.205261,588
802.324158,609
802.443115,587
802.562073,587
802.680969,585
802.799927,590
802.918762,593
803.037659,578
803.156677,595
803.275574,567
803.39447,590
803.513428,578
803.632263,577
803.751221,587
803.870117,584
803.989014,604
804.107971,576
804.226746,598
804.345642,598
804.4646,594
804.583496,583
804.702393,566
804.821228,593
804.940125,570
805.059021,587
805.177917,567
805.296814,591
805.415649,567
805.534546,570
805.653442,588
805.772278,576
805.891113,568
806.01001,584
806.128906,589
806.247742,582
806.366577,580
806.485413,586
806.604309,588
806.723145,580
806.84198,559
806.960876,590
807.079712,588
807.198486,575
807.317383,577
807.436218,588
807.554993,540
807.673889,581
807.792725,554
807.91156,573
808.030396,552
808.14917,553
808.268005,549
808.386841,567
808.505676,553
808.624451,574
808.743286,561
808.862122,551
808.980896,550
809.099731,584
809.218506,576
809.337341,547
809.456116,559
809.57489,562
809.693726,558
809.8125,561
809.931274,548
810.050049,538
810.168884,552
810.287659,572
810.406372,568
810.525269,579
810.643982,552
810.762756,545
810.881531,580
811.000305,560
811.11908,532
811.237854,577
811.356567,551
811.475403,568
811.594116,559
811.71283,584
811.831604,560
811.950378,572
812.069153,572
812.187927,593
812.30658,578
812.425415,585
812.544128,568
812.662781,576
812.781616,562
812.900269,549
813.019043,575
813.137756,586
813.256531,556
813.375244,553
813.493896,566
813.612671,571
813.731384,552
813.850037,558
813.96875,542
814.087524,571
814.206238,551
814.324951,542
814.443604,566
814.562256,562
814.68103,573
814.799683,565
814.918335,542
815.037109,528
815.155762,567
815.274475,568
815.393188,560
815.511841,536
815.630554,542
815.749146,553
815.867859,538
815.986572,556
816.105164,555
816.223877,563
816.342529,542
816.461182,575
816.579895,567
816.698486,566
816.817139,573
816.935791,549
817.054504,565
817.173096,546
817.291748,553
817.4104,551
817.529053,529
817.647644,550
817.766235,520
817.884949,540
818.00354,556
818.122192,519
818.240845,543
818.359436,520
818.478088,530
818.59668,538
818.715271,528
818.833923,535
818.952515,529
819.071106,516
819.189758,516
819.30835,530
819.426941,512
819.545532,518
819.664124,514
819.782715,501
819.901306,534
820.019897,499
820.138489,516
820.25708,522
820.375671,502
820.494202,515
820.612732,497
820.731384,519
820.849915,511
820.968506,511
821.087097,502
821.205627,488
821.324158,489
821.442749,513
821.561279,480
821.679871,512
821.798401,511
821.916931,496
822.035461,464
822.154053,500
822.272583,506
822.391174,510
822.509583,493
822.628174,496
822.746704,467
822.865234,507
822.983765,467
823.102295,494
823.220825,490
823.339294,520
823.457825,510
823.576355,474
823.694824,475
823.813354,492
823.931885,469
824.050354,501
824.168884,492
824.287354,497
824.405823,500
824.524353,504
824.642822,489
824.761353,512
824.879822,489
824.998291,507
825.116699,505
825.235291,511
825.353699,506
825.472168,477
825.590637,493
825.709106,515
825.827576,530
825.946045,513
826.064453,494
826.182983,494
826.301392,495
826.4198,499
826.53833,487
826.656738,483
826.775208,483
826.893677,494
827.012024,472
827.130493,495
827.248962,484
827.36731,518
827.485779,515
827.604248,507
827.722595,475
827.841064,488
827.959412,485
828.077942,482
828.196289,491
828.314636,500
828.433105,495
828.551514,485
828.669861,471
828.78833,497
828.906677,489
829.025085,487
829.143433,475
829.261841,482
829.38031,476
829.498657,484
829.617004,477
829.735413,485
829.85376,472
829.972107,469
830.090515,475
830.208862,493
830.327209,481
830.445557,471
830.563904,489
830.682312,485
830.800659,475
830.919006,499
831.037354,500
831.155701,498
831.274048,500
831.392395,502
831.51062,485
831.629028,491
831.747314,512
831.865662,488
831.984009,487
832.102356,496
832.220642,498
832.338928,517
832.457275,520
832.575623,517
832.693909,498
832.812134,486
832.930481,519
833.048828,472
833.167114,468
833.2854,482
833.403687,507
833.521973,491
833.640259,508
833.758545,500
833.876831,494
833.995056,507
834.113281,487
834.231628,497
834.349915,499
834.468201,490
834.586426,499
834.704651,483
834.822998,476
834.941162,504
835.059448,494
835.177673,511
835.295959,502
835.414246,514
835.53241,483
835.650635,474
835.768921,474
835.887146,483
836.005371,494
836.123596,491
836.241821,471
836.360046,474
836.478271,479
836.596497,503
836.714722,471
836.832886,503
836.95105,486
837.069336,499
837.1875,486
837.305725,496
837.423889,482
837.542053,483
837.660339,508
837.778503,501
837.896667,486
838.014832,493
838.132996,478
838.25116,511
838.369385,513
838.487488,482
838.605713,492
838.723877,482
838.84198,489
838.960205,488
839.078308,496
839.196472,513
839.314636,497
839.4328,514
839.550964,487
839.669067,510
839.787231,498
839.905396,513
840.023499,489
840.141602,519
840.259766,543
840.377869,529
840.495972,517
840.614136,527
840.732239,515
840.850342,508
840.968445,514
841.086548,526
841.204651,533
841.322754,522
841.440918,535
841.55896,542
841.677002,522
841.795166,548
841.913208,521
842.031311,531
842.149353,507
842.267456,534
842.385498,531
842.503601,510
842.621643,530
842.739746,506
842.857788,514
842.97583,512
843.093933,523
843.211975,519
843.330017,521
843.44812,528
843.566101,542
843.684204,536
843.802246,506
843.920227,533
844.038269,517
844.156311,517
844.274292,522
844.392395,530
844.510376,520
844.628357,519
844.74646,491
844.864441,517
844.982422,510
845.100403,511
845.218384,512
845.336426,499
845.454468,514
845.572449,522
845.69043,520
845.808411,494
845.926453,511
846.044373,527
846.162354,517
846.280396,506
846.398315,503
846.516296,508
846.634216,504
846.752197,517
846.870178,520
846.988098,513
847.106079,513
847.22406,521
847.34198,531
847.4599,549
847.577881,494
847.695801,519
847.813782,492
847.931641,508
848.049561,504
848.167603,506
848.285461,527
848.403381,516
848.521362,519
848.639221,500
848.75708,499
848.875,533
848.99292,494
849.110901,523
849.22876,504
849.34668,537
849.464539,518
849.582458,506
849.700317,528
849.818176,514
849.936096,498
850.053955,528
850.171875,502
850.289673,525
850.407593,501
850.525452,519
850.643311,508
850.761169,515
850.878967,507
850.996887,495
851.114746,516
851.232544,505
851.350403,519
851.468262,516
851.58606,507
851.703979,520
851.821777,488
851.939636,508
852.057434,538
852.175232,521
852.293091,516
852.410889,512
852.528687,526
852.646545,549
852.764343,545
852.88208,558
852.999939,555
853.117676,533
853.235535,540
853.353271,523
853.471069,517
853.588928,528
853.706604,515
853.824402,512
853.9422,522
854.059998,515
854.177734,505
854.295532,532
854.413269,516
854.531006,540
854.648804,537
854.766541,520
854.884277,528
855.002014,524
855.119751,514
855.237549,534
855.355225,524
855.473022,517
855.590698,521
855.708435,510
855.826172,515
855.943848,527
856.061646,514
856.179321,543
856.296997,525
856.414795,522
856.53241,520
856.650085,544
856.767822,537
856.885559,541
857.003174,535
857.120911,544
857.238586,543
857.356201,540
857.473938,530
857.591614,550
857.709351,533
857.826965,535
857.944641,533
858.062317,518
858.179993,533
858.297668,543
858.415283,516
858.532959,550
858.650574,539
858.768188,548
858.885803,544
859.003479,525
859.121094,515
859.23877,545
859.356384,535
859.473999,539
859.591675,534
859.709229,534
859.826843,530
859.944458,506
860.062012,501
860.179626,494
860.297302,520
860.414856,515
860.532471,501
860.650024,501
860.767639,511
860.885193,508
861.002808,516
861.120361,505
861.237976,520
861.35553,497
861.473022,517
861.590698,511
861.708191,510
861.825745,518
861.943298,523
862.060852,526
862.178406,507
862.295959,477
862.413513,496
862.531006,491
862.64856,480
862.766113,477
862.883667,522
863.00116,504
863.118713,479
863.236206,499
863.353699,493
863.471252,498
863.588745,509
863.706177,494
863.82373,506
863.941162,502
864.058716,492
864.176208,513
864.29364,514
864.411194,498
864.528687,493
864.646118,490
864.763611,493
864.881042,493
864.998535,473
865.116028,491
865.233459,490
865.350891,496
865.468384,472
865.585754,498
865.703308,499
865.820679,503
865.938171,473
866.055542,482
866.173035,483
866.290466,489
866.407837,515
866.52533,474
866.6427,494
866.760071,497
866.877563,502
866.994934,498
867.112305,525
867.229736,497
867.347107,489
867.464539,474
867.58197,508
867.699341,506
867.81665,494
867.934082,515
868.051453,516
868.168823,491
868.286194,493
868.403564,511
868.520935,490
868.638306,500
868.755676,523
868.872986,522
868.990295,491
869.107727,506
869.225037,515
869.342346,496
869.459717,499
869.577026,508
869.694336,516
869.811707,540
869.929016,531
870.046326,533
870.163635,506
870.280945,522
870.398254,538
870.515564,519
870.632812,534
870.750183,532
870.867432,533
870.984741,541
871.102051,528
871.219299,533
871.336609,535
871.453918,549
871.571106,538
871.688416,574
871.805664,547
871.922852,561
872.040222,543
872.157471,556
872.274719,545
872.391968,551
872.509155,545
872.626465,552
872.743652,544
872.860962,519
872.978149,529
873.095337,526
873.212646,528
873.329834,531
873.44696,541
873.564209,534
873.681396,511
873.798645,522
873.915894,518
874.03302,530
874.150208,542
874.267456,522
874.384583,541
874.501831,551
874.618958,548
874.736145,555
874.853333,558
874.970459,569
875.087646,540
875.204834,533
875.32196,546
875.439148,546
875.556274,539
875.673401,530
875.790527,534
875.907715,536
876.024841,506
876.141968,535
876.259094,510
876.376282,541
876.493347,508
876.610474,525
876.7276,515
876.844727,494
876.961853,521
877.078918,504
877.195984,526
877.313171,516
877.430237,503
877.547302,519
877.664368,514
877.781433,530
877.898499,520
878.015625,531
878.13269,487
878.249695,500
878.366821,504
878.483887,517
878.600952,519
878.717957,511
878.834961,495
878.952087,490
879.069092,496
879.186157,489
879.303162,505
879.420227,477
879.537231,499
879.654236,487
879.77124,483
879.888306,496
880.005249,500
880.122314,487
880.239319,478
880.356323,500
880.473328,497
880.590271,505
880.707275,473
880.824341,494
880.941284,491
881.058228,491
881.175232,482
881.292236,502
881.40918,488
881.526123,509
881.643066,502
881.760071,503
881.877014,461
881.993958,511
882.11084,483
882.227783,484
882.344727,480
882.46167,484
882.578613,487
882.695618,495
882.812439,494
882.929382,487
883.046326,473
883.163208,499
883.280151,485
883.397034,484
883.513916,500
883.630798,504
883.747742,489
883.864563,472
883.981506,496
884.098389,504
884.21521,497
884.332153,520
884.448975,498
884.565796,523
884.682678,532
884.7995,537
884.916443,542
885.033264,583
885.150085,593
885.266968,590
885.383789,602
885.500671,609
885.617493,594
885.734314,627
885.851196,593
885.967896,609
886.084717,602
886.201599,584
886.318359,590
886.435181,609
886.552002,569
886.668762,615
886.785645,574
886.902344,584
887.019165,552
887.135925,586
887.252747,553
887.369446,572
887.486267,536
887.603027,526
887.719788,527
887.836548,536
887.953247,527
888.070068,515
888.186829,507
888.303528,530
888.420288,501
888.536987,504
888.653687,487
888.770447,492
888.887146,501
889.003967,479
889.120667,483
889.237305,480
889.354065,480
889.470703,464
889.587463,478
889.704163,493
889.820862,486
889.937561,479
890.054199,468
890.170837,479
890.287598,474
890.404236,466
890.520874,468
890.637634,491
890.754211,472
890.87085,483
890.987549,492
891.104187,471
891.220886,486
891.337463,486
891.454102,493
891.57074,484
891.687378,484
891.804077,457
891.920654,485
892.037231,493
892.15387,484
892.270447,480
892.387085,506
892.503723,475
892.6203,464
892.736877,460
892.853516,457
892.970032,475
893.08667,468
893.203186,479
893.319763,489
893.43634,491
893.552917,485
893.669556,466
893.786011,460
893.902588,486
894.019165,475
894.135681,482
894.252197,477
894.368835,481
894.485291,480
894.601868,486
894.718384,482
894.8349,478
894.951355,456
895.067932,489
895.184448,455
895.300964,476
895.417419,484
895.533936,483
895.650452,482
895.766907,480
895.883423,478
895.999878,480
896.116333,451
896.232849,473
896.349304,464
896.465759,472
896.582214,463
896.698669,480
896.815125,474
896.931641,484
897.048035,483
897.164551,468
897.280884,455
897.397339,477
897.513794,462
897.630249,474
897.746582,467
897.863098,487
897.979431,473
898.095886,479
898.212341,484
898.328674,490
898.445129,490
898.561462,463
898.677795,461
898.794312,496
898.910645,497
899.026978,479
899.143433,485
899.259766,472
899.37616,483
899.492493,473
899.608765,456
899.725159,501
899.841553,482
899.957947,464
900.07428,488
900.190552,496
900.306946,468
900.423157,475
900.53949,494
900.655884,490
900.772156,485
900.888489,496
901.004822,481
901.121033,479
901.237366,477
901.353699,494
901.46991,479
901.586304,486
901.702515,505
901.818787,491
901.93512,481
902.051331,509
902.167603,507
902.283875,504
902.400085,511
902.516418,531
902.632629,540
902.74884,553
902.865112,544
902.981384,539
903.097595,540
903.213867,530
903.330017,517
903.446289,523
903.5625,528
903.67865,537
903.794922,527
903.911072,508
904.027344,521
904.143494,518
904.259705,502
904.375916,518
904.492065,514
904.608215,525
904.724426,498
904.840576,500
904.956726,488
905.072876,512
905.189087,474
905.305176,488
905.421387,481
905.537537,480
905.653687,483
905.769775,473
905.885925,480
906.002014,489
906.118164,476
906.234314,478
906.350403,475
906.466492,462
906.582642,491
906.69873,464
906.814758,469
906.930908,477
907.046936,451
907.163086,488
907.279175,474
907.395264,471
907.511353,490
907.62738,469
907.743408,474
907.859497,464
907.975525,455
908.091553,488
908.207703,479
908.32373,473
908.439758,471
908.555786,479
908.671814,461
908.787842,488
908.90387,482
909.019775,491
909.135864,482
909.251892,480
909.367859,472
909.483826,490
909.599854,480
909.715881,469
909.831848,474
909.947815,486
910.063782,469
910.179749,500
910.295776,465
910.411743,489
910.527649,462
910.643616,495
910.759583,475
910.875488,466
910.991455,470
911.107361,477
911.223267,459
911.339294,470
911.4552,471
911.571106,461
911.687073,474
911.802979,485
911.918823,455
912.034729,468
912.150635,465
912.266602,477
912.382446,471
912.498352,477
912.614197,465
912.730103,463
912.846008,474
