792.44574,1214
792.56488,1212
792.68396,1233
792.80304,1200
792.92218,1134
793.041199,1089
793.160339,1080
793.279419,1023
793.398499,1053
793.517578,983
793.636658,977
793.755737,982
793.874817,941
793.993896,938
794.112976,926
794.232056,915
794.351074,880
794.470215,850
794.589233,868
794.708313,852
794.827393,829
794.946411,827
795.065552,831
795.18457,803
795.303589,827
795.422668,796
795.541687,788
795.660767,781
795.779846,755
795.898865,766
796.017883,775
796.136963,769
796.255981,758
796.375061,745
796.49408,730
796.613037,733
796.732117,749
796.851135,712
796.970154,753
797.089233,726
797.208191,707
797.327271,683
797.446228,699
797.565186,708
797.684265,687
797.803223,733
797.922241,691
798.04126,698
798.160278,685
798.279297,705
798.398315,674
798.517273,667
798.636292,677
798.75531,671
798.874268,653
798.993286,657
799.112244,688
799.231323,663
799.350281,655
799.469238,634
799.588257,644
799.707153,656
799.826111,661
799.945129,645
800.064087,636
800.183044,655
800.302063,657
800.421021,668
800.539978,643
800.658936,638
800.777893,611
800.896912,623
801.015747,646
801.134705,613
801.253723,625
801.37262,606
801.491638,632
801.610535,626
801.729492,633
801.84845,599
801.967407,613
802.086243,622
802.205261,617
802.324158,607
802.443115,635
802.562073,590
802.680969,619
802.799927,593
802.918762,622
803.037659,630
803.156677,603
803.275574,608
803.39447,620
803.513428,611
803.632263,603
803.751221,598
803.870117,601
803.989014,610
804.107971,609
804.226746,588
804.345642,613
804.4646,588
804.583496,565
804.702393,602
804.821228,591
804.940125,601
805.059021,588
805.177917,592
805.296814,588
805.415649,612
805.534546,619
805.653442,619
805.772278,600
805.891113,590
806.01001,589
806.128906,596
806.247742,569
806.366577,599
806.485413,591
806.604309,583
806.723145,584
806.84198,591
806.960876,590
807.079712,587
807.198486,582
807.317383,576
807.436218,575
807.554993,593
807.673889,563
807.792725,550
807.91156,581
808.030396,565
808.14917,594
808.268005,570
808.386841,580
808.505676,571
808.624451,573
808.743286,564
808.862122,575
808.980896,551
809.099731,580
809.218506,547
809.337341,557
809.456116,590
809.57489,553
809.693726,587
809.8125,559
809.931274,603
810.050049,579
810.168884,589
810.287659,558
810.406372,560
810.525269,577
810.643982,584
810.762756,555
810.881531,572
811.000305,572
811.11908,573
811.237854,578
811.356567,571
811.475403,563
811.594116,559
811.71283,590
811.831604,579
811.950378,596
812.069153,579
812.187927,593
812.30658,588
812.425415,566
812.544128,591
812.662781,578
812.781616,594
812.900269,587
813.019043,602
813.137756,580
813.256531,577
813.375244,555
813.493896,579
813.612671,566
813.731384,574
813.850037,576
813.96875,568
814.087524,569
814.206238,558
814.324951,538
814.443604,568
814.562256,545
814.68103,584
814.799683,570
814.918335,566
815.037109,554
815.155762,561
815.274475,568
815.393188,571
815.511841,602
815.630554,598
815.749146,553
815.867859,569
815.986572,562
816.105164,557
816.223877,571
816.342529,554
816.461182,563
816.579895,563
816.698486,565
816.817139,578
816.935791,572
817.054504,581
817.173096,582
817.291748,547
817.4104,562
817.529053,565
817.647644,563
817.766235,547
817.884949,539
818.00354,542
818.122192,536
818.240845,529
818.359436,562
818.478088,547
818.59668,529
818.715271,531
818.833923,528
818.952515,526
819.071106,542
819.189758,514
819.30835,514
819.426941,530
819.545532,534
819.664124,515
819.782715,510
819.901306,529
820.019897,519
820.138489,533
820.25708,503
820.375671,515
820.494202,528
820.612732,522
820.731384,497
820.849915,518
820.968506,510
821.087097,534
821.205627,532
821.324158,519
821.442749,512
821.561279,511
821.679871,487
821.798401,529
821.916931,499
822.035461,494
822.154053,505
822.272583,521
822.391174,511
822.509583,499
822.628174,488
822.746704,506
822.865234,497
822.983765,499
823.102295,508
823.220825,525
823.339294,510
823.457825,504
823.576355,508
823.694824,504
823.813354,512
823.931885,514
824.050354,500
824.168884,503
824.287354,503
824.405823,512
824.524353,504
824.642822,522
824.761353,504
824.879822,500
824.998291,512
825.116699,505
825.235291,496
825.353699,513
825.472168,479
825.590637,495
825.709106,517
825.827576,526
825.946045,516
826.064453,497
826.182983,504
826.301392,505
826.4198,495
826.53833,518
826.656738,485
826.775208,493
826.893677,511
827.012024,512
827.130493,494
827.248962,497
827.36731,491
827.485779,517
827.604248,496
827.722595,494
827.841064,509
827.959412,511
828.077942,488
828.196289,513
828.314636,480
828.433105,493
828.551514,482
828.669861,498
828.78833,506
828.906677,484
829.025085,501
829.143433,505
829.261841,501
829.38031,497
829.498657,504
829.617004,479
829.735413,489
829.85376,493
829.972107,471
830.090515,493
830.208862,497
830.327209,476
830.445557,494
830.563904,489
830.682312,494
830.800659,508
830.919006,500
831.037354,511
831.155701,488
831.274048,494
831.392395,503
831.51062,514
831.629028,478
831.747314,516
831.865662,497
831.984009,500
832.102356,490
832.220642,519
832.338928,500
832.457275,507
832.575623,534
832.693909,518
832.812134,509
832.930481,495
833.048828,506
833.167114,491
833.2854,492
833.403687,500
833.521973,502
833.640259,497
833.758545,495
833.876831,492
833.995056,499
834.113281,511
834.231628,484
834.349915,494
834.468201,518
834.586426,508
834.704651,496
834.822998,510
834.941162,500
835.059448,506
835.177673,511
835.295959,520
835.414246,498
835.53241,505
835.650635,515
835.768921,493
835.887146,502
836.005371,500
836.123596,481
836.241821,522
836.360046,515
836.478271,488
836.596497,492
836.714722,513
836.832886,509
836.95105,489
837.069336,513
837.1875,517
837.305725,490
837.423889,499
837.542053,495
837.660339,513
837.778503,492
837.896667,501
838.014832,509
838.132996,509
838.25116,506
838.369385,507
838.487488,499
838.605713,494
838.723877,515
838.84198,525
838.960205,519
839.078308,502
839.196472,514
839.314636,511
839.4328,498
839.550964,514
839.669067,521
839.787231,513
839.905396,523
840.023499,542
840.141602,523
840.259766,503
840.377869,533
840.495972,541
840.614136,522
840.732239,528
840.850342,539
840.968445,548
841.086548,532
841.204651,537
841.322754,539
841.440918,539
841.55896,555
841.677002,556
841.795166,528
841.913208,564
842.031311,526
842.149353,515
842.267456,555
842.385498,543
842.503601,536
842.621643,540
842.739746,541
842.857788,525
842.97583,539
843.093933,531
843.211975,521
843.330017,541
843.44812,556
843.566101,530
843.684204,524
843.802246,529
843.920227,515
844.038269,539
844.156311,521
844.274292,516
844.392395,521
844.510376,528
844.628357,513
844.74646,527
844.864441,532
844.982422,528
845.100403,531
845.218384,538
845.336426,530
845.454468,529
845.572449,524
845.69043,547
845.808411,515
845.926453,523
846.044373,535
846.162354,525
846.280396,519
846.398315,526
846.516296,532
846.634216,539
846.752197,533
846.870178,543
846.988098,517
847.106079,540
847.22406,523
847.34198,546
847.4599,513
847.577881,541
847.695801,537
847.813782,528
847.931641,515
848.049561,533
848.167603,512
848.285461,521
848.403381,532
848.521362,525
848.639221,549
848.75708,510
848.875,527
848.99292,533
849.110901,524
849.22876,534
849.34668,538
849.464539,522
849.582458,539
849.700317,538
849.818176,538
849.936096,538
850.053955,544
850.171875,528
850.289673,535
850.407593,543
850.525452,513
850.643311,550
850.761169,549
850.878967,524
850.996887,535
851.114746,529
851.232544,532
851.350403,518
851.468262,526
851.58606,548
851.703979,507
851.821777,524
851.939636,531
852.057434,516
852.175232,516
852.293091,532
852.410889,561
852.528687,561
852.646545,566
852.764343,580
852.88208,554
852.999939,535
853.117676,553
853.235535,534
853.353271,546
853.471069,524
853.588928,527
853.706604,504
853.824402,531
853.9422,524
854.059998,516
854.177734,536
854.295532,533
854.413269,531
854.531006,562
854.648804,535
854.766541,555
854.884277,552
855.002014,544
855.119751,520
855.237549,523
855.355225,546
855.473022,512
855.590698,528
855.708435,518
855.826172,519
855.943848,533
856.061646,538
856.179321,535
856.296997,553
856.414795,534
856.53241,529
856.650085,563
856.767822,531
856.885559,525
857.003174,526
857.120911,550
857.238586,565
857.356201,569
857.473938,534
857.591614,526
857.709351,546
857.826965,542
857.944641,541
858.062317,543
858.179993,562
858.297668,536
858.415283,545
858.532959,544
858.650574,549
858.768188,551
858.885803,555
859.003479,530
859.121094,547
859.23877,556
859.356384,532
859.473999,531
859.591675,557
859.709229,523
859.826843,534
859.944458,525
860.062012,523
860.179626,515
860.297302,543
860.414856,522
860.532471,525
860.650024,513
860.767639,544
860.885193,529
861.002808,530
861.120361,508
861.237976,544
861.35553,533
861.473022,538
861.590698,538
861.708191,527
861.825745,535
861.943298,521
862.060852,520
862.178406,514
862.295959,500
862.413513,508
862.531006,505
862.64856,503
862.766113,515
862.883667,491
863.00116,487
863.118713,513
863.236206,495
863.353699,513
863.471252,493
863.588745,514
863.706177,516
863.82373,535
863.941162,519
864.058716,504
864.176208,515
864.29364,493
864.411194,496
864.528687,509
864.646118,502
864.763611,525
864.881042,508
864.998535,485
865.116028,477
865.233459,513
865.350891,509
865.468384,527
865.585754,508
865.703308,521
865.820679,498
865.938171,488
866.055542,519
866.173035,511
866.290466,499
866.407837,490
866.52533,493
866.6427,510
866.760071,504
866.877563,526
866.994934,528
867.112305,506
867.229736,512
867.347107,504
867.464539,519
867.58197,505
867.699341,510
867.81665,509
867.934082,536
868.051453,524
868.168823,524
868.286194,502
868.403564,511
868.520935,529
868.638306,507
868.755676,509
868.872986,526
868.990295,539
869.107727,508
869.225037,498
869.342346,522
869.459717,558
869.577026,540
869.694336,532
869.811707,558
869.929016,543
870.046326,537
870.163635,541
870.280945,526
870.398254,554
870.515564,538
870.632812,552
870.750183,516
870.867432,553
870.984741,554
871.102051,548
871.219299,567
871.336609,549
871.453918,569
871.571106,550
871.688416,564
871.805664,556
871.922852,536
872.040222,538
872.157471,543
872.274719,572
872.391968,550
872.509155,563
872.626465,565
872.743652,556
872.860962,554
872.978149,559
873.095337,549
873.212646,554
873.329834,548
873.44696,546
873.564209,527
873.681396,543
873.798645,540
873.915894,539
874.03302,548
874.150208,557
874.267456,555
874.384583,569
874.501831,524
874.618958,550
874.736145,550
874.853333,545
874.970459,562
875.087646,573
875.204834,553
875.32196,558
875.439148,541
875.556274,528
875.673401,539
875.790527,566
875.907715,528
876.024841,537
876.141968,528
876.259094,558
876.376282,536
876.493347,567
876.610474,514
876.7276,523
876.844727,525
876.961853,516
877.078918,527
877.195984,531
877.313171,520
877.430237,509
877.547302,520
877.664368,506
877.781433,519
877.898499,536
878.015625,517
878.13269,515
878.249695,531
878.366821,538
878.483887,498
878.600952,518
878.717957,518
878.834961,510
878.952087,524
879.069092,512
879.186157,497
879.303162,530
879.420227,518
879.537231,521
879.654236,497
879.77124,516
879.888306,509
880.005249,513
880.122314,496
880.239319,494
880.356323,493
880.473328,477
880.590271,486
880.707275,507
880.824341,486
880.941284,491
881.058228,494
881.175232,486
881.292236,489
881.40918,497
881.526123,481
881.643066,482
881.760071,493
881.877014,494
881.993958,487
882.11084,472
882.227783,507
882.344727,497
882.46167,501
882.578613,477
882.695618,497
882.812439,497
882.929382,505
883.046326,482
883.163208,497
883.280151,507
883.397034,509
883.513916,519
883.630798,490
883.747742,496
883.864563,517
883.981506,510
884.098389,504
884.21521,505
884.332153,528
884.448975,518
884.565796,540
884.682678,536
884.7995,537
884.916443,552
885.033264,554
885.150085,595
885.266968,602
885.383789,591
885.500671,609
885.617493,619
885.734314,603
885.851196,591
885.967896,607
886.084717,597
886.201599,600
886.318359,611
886.435181,602
886.552002,607
886.668762,560
886.785645,584
886.902344,598
887.019165,582
887.135925,589
887.252747,553
887.369446,570
887.486267,548
887.603027,574
887.719788,555
887.836548,515
887.953247,534
888.070068,518
888.186829,506
888.303528,521
888.420288,488
888.536987,495
888.653687,491
888.770447,509
888.887146,494
889.003967,492
889.120667,469
889.237305,488
889.354065,471
889.470703,484
889.587463,460
889.704163,474
889.820862,493
889.937561,485
890.054199,481
890.170837,500
890.287598,465
890.404236,451
890.520874,480
890.637634,494
890.754211,475
890.87085,485
890.987549,473
891.104187,483
891.220886,478
891.337463,480
891.454102,478
891.57074,479
891.687378,484
891.804077,492
891.920654,484
892.037231,501
892.15387,501
892.270447,504
892.387085,486
892.503723,495
892.6203,484
892.736877,496
892.853516,478
892.970032,515
893.08667,476
893.203186,489
893.319763,486
893.43634,468
893.552917,491
893.669556,491
893.786011,479
893.902588,478
894.019165,494
894.135681,466
894.252197,486
894.368835,478
894.485291,506
894.601868,488
894.718384,496
894.8349,491
894.951355,471
895.067932,481
895.184448,493
895.300964,500
895.417419,466
895.533936,465
895.650452,458
895.766907,478
895.883423,471
895.999878,481
896.116333,509
896.232849,464
896.349304,470
896.465759,466
896.582214,475
896.698669,469
896.815125,467
896.931641,481
897.048035,487
897.164551,487
897.280884,464
897.397339,453
897.513794,475
897.630249,477
897.746582,472
897.863098,476
897.979431,479
898.095886,478
898.212341,475
898.328674,479
898.445129,484
898.561462,475
898.677795,489
898.794312,478
898.910645,482
899.026978,499
899.143433,494
899.259766,479
899.37616,476
899.492493,472
899.608765,494
899.725159,483
899.841553,484
899.957947,488
900.07428,482
900.190552,494
900.306946,482
900.423157,494
900.53949,501
900.655884,485
900.772156,486
900.888489,483
901.004822,490
901.121033,488
901.237366,479
901.353699,499
901.46991,475
901.586304,503
901.702515,515
901.818787,503
901.93512,506
902.051331,490
902.167603,521
902.283875,520
902.400085,538
902.516418,534
902.632629,553
902.74884,554
902.865112,550
902.981384,567
903.097595,545
903.213867,539
903.330017,550
903.446289,534
903.5625,534
903.67865,528
903.794922,510
903.911072,527
904.027344,523
904.143494,519
904.259705,522
904.375916,506
904.492065,499
904.608215,507
904.724426,510
904.840576,507
904.956726,498
905.072876,477
905.189087,494
905.305176,498
905.421387,486
905.537537,489
905.653687,477
905.769775,484
905.885925,506
906.002014,482
906.118164,489
906.234314,466
906.350403,473
906.466492,474
906.582642,481
906.69873,453
906.814758,479
906.930908,489
907.046936,459
907.163086,476
907.279175,465
907.395264,440
907.511353,485
907.62738,473
907.743408,491
907.859497,464
907.975525,480
908.091553,488
908.207703,470
908.32373,451
908.439758,484
908.555786,484
908.671814,472
908.787842,455
908.90387,465
909.019775,482
909.135864,476
909.251892,471
909.367859,449
909.483826,469
909.599854,481
909.715881,480
909.831848,492
909.947815,463
910.063782,485
910.179749,482
910.295776,466
910.411743,481
910.527649,483
910.643616,492
910.759583,480
910.875488,454
910.991455,494
911.107361,458
911.223267,492
911.339294,437
911.4552,462
911.571106,464
911.687073,485
911.802979,482
911.918823,475
912.034729,440
912.150635,473
912.266602,460
912.382446,462
912.498352,440
912.614197,483
912.730103,453
912.846008,466
792.44574,1226
792.56488,1227
792.68396,1239
792.80304,1200
792.92218,1115
793.041199,1065
793.160339,1098
793.279419,1020
793.398499,1023
793.517578,967
793.636658,943
793.755737,980
793.874817,915
793.993896,985
794.112976,935
794.232056,945
794.351074,878
794.470215,866
794.589233,888
794.708313,825
794.827393,843
794.946411,839
795.065552,818
795.18457,795
795.303589,820
795.422668,807
795.541687,781
795.660767,765
795.779846,799
795.898865,762
796.017883,772
796.136963,755
796.255981,744
796.375061,743
796.49408,745
796.613037,716
796.732117,715
796.851135,698
796.970154,722
797.089233,703
797.208191,676
797.327271,709
797.446228,698
797.565186,684
797.684265,706
797.803223,711
797.922241,701
798.04126,673
798.160278,700
798.279297,683
798.398315,666
798.517273,674
798.636292,656
798.75531,647
798.874268,664
798.993286,690
799.112244,682
799.231323,665
799.350281,656
799.469238,662
799.588257,628
799.707153,654
799.826111,662
799.945129,669
800.064087,613
800.183044,657
800.302063,646
800.421021,658
800.539978,666
800.658936,625
800.777893,629
800.896912,633
801.015747,647
801.134705,635
801.253723,617
801.37262,635
801.491638,640
801.610535,649
801.729492,608
801.84845,624
801.967407,633
802.086243,614
802.205261,629
802.324158,611
802.443115,598
802.562073,633
802.680969,604
802.799927,611
802.918762,612
803.037659,601
803.156677,602
803.275574,613
803.39447,595
803.513428,612
803.632263,601
803.751221,637
803.870117,599
803.989014,571
804.107971,592
804.226746,613
804.345642,589
804.4646,605
804.583496,591
804.702393,577
804.821228,601
804.940125,599
805.059021,595
805.177917,597
805.296814,585
805.415649,593
805.534546,572
805.653442,601
805.772278,596
805.891113,582
806.01001,573
806.128906,608
806.247742,595
806.366577,602
806.485413,588
806.604309,561
806.723145,569
806.84198,587
806.960876,575
807.079712,580
807.198486,589
807.317383,597
807.436218,575
807.554993,565
807.673889,561
807.792725,558
807.91156,570
808.030396,590
808.14917,564
808.268005,588
808.386841,549
808.505676,567
808.624451,577
808.743286,586
808.862122,563
808.980896,581
809.099731,583
809.218506,557
809.337341,562
809.456116,568
809.57489,580
809.693726,575
809.8125,564
809.931274,578
810.050049,564
810.168884,560
810.287659,576
810.406372,577
810.525269,573
810.643982,550
810.762756,553
810.881531,579
811.000305,569
811.11908,585
811.237854,583
811.356567,586
811.475403,576
811.594116,564
811.71283,595
811.831604,588
811.950378,590
812.069153,587
812.187927,558
812.30658,567
812.425415,558
812.544128,586
812.662781,560
812.781616,578
812.900269,571
813.019043,588
813.137756,571
813.256531,558
813.375244,559
813.493896,558
813.612671,569
813.731384,567
813.850037,551
813.96875,575
814.087524,581
814.206238,571
814.324951,576
814.443604,562
814.562256,535
814.68103,569
814.799683,588
814.918335,572
815.037109,570
815.155762,540
815.274475,571
815.393188,568
815.511841,558
815.630554,560
815.749146,583
815.867859,579
815.986572,556
816.105164,560
816.223877,550
816.342529,553
816.461182,554
816.579895,569
816.698486,558
816.817139,581
816.935791,572
817.054504,583
817.173096,568
817.291748,546
817.4104,550
817.529053,578
817.647644,560
817.766235,540
817.884949,515
818.00354,550
818.122192,539
818.240845,566
818.359436,526
818.478088,556
818.59668,545
818.715271,548
818.833923,530
818.952515,573
819.071106,525
819.189758,544
819.30835,521
819.426941,540
819.545532,542
819.664124,520
819.782715,527
819.901306,542
820.019897,514
820.138489,523
820.25708,519
820.375671,532
820.494202,545
820.612732,530
820.731384,532
820.849915,527
820.968506,529
821.087097,523
821.205627,517
821.324158,539
821.442749,515
821.561279,510
821.679871,505
821.798401,514
821.916931,512
822.035461,503
822.154053,518
822.272583,493
822.391174,505
822.509583,509
822.628174,514
822.746704,504
822.865234,514
822.983765,514
823.102295,502
823.220825,491
823.339294,523
823.457825,502
823.576355,487
823.694824,491
823.813354,500
823.931885,507
824.050354,507
824.168884,513
824.287354,500
824.405823,507
824.524353,512
824.642822,520
824.761353,496
824.879822,518
824.998291,517
825.116699,509
825.235291,515
825.353699,521
825.472168,494
825.590637,518
825.709106,495
825.827576,494
825.946045,499
826.064453,508
826.182983,497
826.301392,503
826.4198,518
826.53833,487
826.656738,490
826.775208,499
826.893677,498
827.012024,483
827.130493,515
827.248962,491
827.36731,492
827.485779,501
827.604248,503
827.722595,509
827.841064,475
827.959412,496
828.077942,508
828.196289,485
828.314636,489
828.433105,514
828.551514,474
828.669861,471
828.78833,503
828.906677,478
829.025085,500
829.143433,492
829.261841,487
829.38031,483
829.498657,504
829.617004,488
829.735413,482
829.85376,479
829.972107,490
830.090515,480
830.208862,494
830.327209,507
830.445557,490
830.563904,497
830.682312,497
830.800659,501
830.919006,499
831.037354,496
831.155701,530
831.274048,528
831.392395,505
831.51062,476
831.629028,497
831.747314,494
831.865662,501
831.984009,503
832.102356,490
832.220642,502
832.338928,504
832.457275,515
832.575623,506
832.693909,523
832.812134,483
832.930481,505
833.048828,500
833.167114,505
833.2854,503
833.403687,495
833.521973,491
833.640259,504
833.758545,492
833.876831,487
833.995056,517
834.113281,504
834.231628,514
834.349915,500
834.468201,484
834.586426,521
834.704651,499
834.822998,511
834.941162,499
835.059448,523
835.177673,500
835.295959,527
835.414246,493
835.53241,503
835.650635,508
835.768921,508
835.887146,492
836.005371,496
836.123596,488
836.241821,490
836.360046,495
836.478271,473
836.596497,501
836.714722,513
836.832886,496
836.95105,489
837.069336,506
837.1875,502
837.305725,490
837.423889,498
837.542053,480
837.660339,508
837.778503,493
837.896667,505
838.014832,499
838.132996,507
838.25116,498
838.369385,503
838.487488,523
838.605713,493
838.723877,476
838.84198,529
838.960205,512
839.078308,507
839.196472,500
839.314636,504
839.4328,514
839.550964,525
839.669067,518
839.787231,518
839.905396,525
840.023499,518
840.141602,539
840.259766,528
840.377869,541
840.495972,548
840.614136,523
840.732239,554
840.850342,531
840.968445,528
841.086548,532
841.204651,553
841.322754,539
841.440918,541
841.55896,542
841.677002,564
841.795166,546
841.913208,561
842.031311,553
842.149353,570
842.267456,554
842.385498,513
842.503601,530
842.621643,542
842.739746,518
842.857788,546
842.97583,526
843.093933,543
843.211975,543
843.330017,546
843.44812,546
843.566101,538
843.684204,545
843.802246,526
843.920227,526
844.038269,509
844.156311,528
844.274292,540
844.392395,524
844.510376,528
844.628357,518
844.74646,527
844.864441,517
844.982422,521
845.100403,527
845.218384,519
845.336426,522
845.454468,516
845.572449,515
845.69043,520
845.808411,509
845.926453,529
846.044373,540
846.162354,522
846.280396,544
846.398315,530
846.516296,520
846.634216,532
846.752197,537
846.870178,538
846.988098,543
847.106079,548
847.22406,535
847.34198,541
847.4599,533
847.577881,521
847.695801,529
847.813782,532
847.931641,524
848.049561,533
848.167603,514
848.285461,538
848.403381,523
848.521362,516
848.639221,504
848.75708,526
848.875,504
848.99292,531
849.110901,539
849.22876,503
849.34668,532
849.464539,528
849.582458,514
849.700317,548
849.818176,527
849.936096,537
850.053955,521
850.171875,533
850.289673,516
850.407593,547
850.525452,541
850.643311,534
850.761169,530
850.878967,524
850.996887,519
851.114746,521
851.232544,523
851.350403,516
851.468262,534
851.58606,515
851.703979,533
851.821777,546
851.939636,508
852.057434,535
852.175232,543
852.293091,531
852.410889,548
852.528687,568
852.646545,586
852.764343,566
852.88208,558
852.999939,543
853.117676,548
853.235535,534
853.353271,547
853.471069,568
853.588928,519
853.706604,526
853.824402,526
853.9422,531
854.059998,519
854.177734,527
854.295532,553
854.413269,544
854.531006,510
854.648804,542
854.766541,529
854.884277,556
855.002014,530
855.119751,526
855.237549,526
855.355225,527
855.473022,525
855.590698,535
855.708435,529
855.826172,555
855.943848,547
856.061646,542
856.179321,524
856.296997,539
856.414795,543
856.53241,544
856.650085,557
856.767822,553
856.885559,557
857.003174,541
857.120911,557
857.238586,555
857.356201,548
857.473938,564
857.591614,556
857.709351,559
857.826965,546
857.944641,536
858.062317,552
858.179993,539
858.297668,537
858.415283,557
858.532959,541
858.650574,545
858.768188,544
858.885803,551
859.003479,533
859.121094,553
859.23877,526
859.356384,539
859.473999,520
859.591675,526
859.709229,537
859.826843,541
859.944458,526
860.062012,531
860.179626,543
860.297302,523
860.414856,543
860.532471,506
860.650024,524
860.767639,515
860.885193,508
861.002808,517
861.120361,523
861.237976,512
861.35553,530
861.473022,540
861.590698,517
861.708191,504
861.825745,535
861.943298,528
862.060852,520
862.178406,543
862.295959,506
862.413513,501
862.531006,496
862.64856,524
862.766113,508
862.883667,499
863.00116,502
863.118713,502
863.236206,518
863.353699,514
863.471252,526
863.588745,537
863.706177,507
863.82373,498
863.941162,514
864.058716,523
864.176208,526
864.29364,507
864.411194,504
864.528687,519
864.646118,507
864.763611,498
864.881042,523
864.998535,515
865.116028,507
865.233459,516
865.350891,514
865.468384,525
865.585754,497
865.703308,507
865.820679,485
865.938171,499
866.055542,507
866.173035,496
866.290466,505
866.407837,489
866.52533,505
866.6427,500
866.760071,507
866.877563,515
866.994934,507
867.112305,520
867.229736,503
867.347107,514
867.464539,504
867.58197,512
867.699341,512
867.81665,499
867.934082,514
868.051453,528
868.168823,500
868.286194,518
868.403564,522
868.520935,504
868.638306,502
868.755676,515
868.872986,526
868.990295,522
869.107727,521
869.225037,537
869.342346,531
869.459717,531
869.577026,543
869.694336,531
869.811707,565
869.929016,535
870.046326,524
870.163635,546
870.280945,540
870.398254,550
870.515564,538
870.632812,540
870.750183,548
870.867432,557
870.984741,538
871.102051,552
871.219299,533
871.336609,558
871.453918,557
871.571106,574
871.688416,563
871.805664,565
871.922852,556
872.040222,571
872.157471,533
872.274719,566
872.391968,548
872.509155,574
872.626465,561
872.743652,553
872.860962,563
872.978149,541
873.095337,568
873.212646,570
873.329834,561
873.44696,531
873.564209,552
873.681396,533
873.798645,557
873.915894,533
874.03302,534
874.150208,557
874.267456,537
874.384583,561
874.501831,553
874.618958,569
874.736145,550
874.853333,583
874.970459,563
875.087646,562
875.204834,545
875.32196,554
875.439148,563
875.556274,548
875.673401,547
875.790527,553
875.907715,524
876.024841,554
876.141968,524
876.259094,537
876.376282,552
876.493347,518
876.610474,529
876.7276,541
876.844727,533
876.961853,519
877.078918,535
877.195984,524
877.313171,521
877.430237,550
877.547302,543
877.664368,526
877.781433,525
877.898499,538
878.015625,525
878.13269,512
878.249695,519
878.366821,530
878.483887,512
878.600952,519
878.717957,504
878.834961,509
878.952087,538
879.069092,513
879.186157,502
879.303162,516
879.420227,502
879.537231,511
879.654236,500
879.77124,510
879.888306,510
880.005249,517
880.122314,506
880.239319,502
880.356323,501
880.473328,509
880.590271,488
880.707275,517
880.824341,504
880.941284,521
881.058228,493
881.175232,502
881.292236,496
881.40918,508
881.526123,499
881.643066,477
881.760071,489
881.877014,494
881.993958,493
882.11084,504
882.227783,507
882.344727,500
882.46167,491
882.578613,499
882.695618,489
882.812439,503
882.929382,505
883.046326,500
883.163208,503
883.280151,511
883.397034,495
883.513916,511
883.630798,492
883.747742,514
883.864563,513
883.981506,505
884.098389,540
884.21521,517
884.332153,513
884.448975,522
884.565796,494
884.682678,544
884.7995,554
884.916443,553
885.033264,581
885.150085,578
885.266968,614
885.383789,598
885.500671,607
885.617493,636
885.734314,596
885.851196,614
885.967896,623
886.084717,606
886.201599,595
886.318359,581
886.435181,615
886.552002,590
886.668762,566
886.785645,594
886.902344,593
887.019165,548
887.135925,553
887.252747,564
887.369446,543
887.486267,558
887.603027,555
887.719788,539
887.836548,551
887.953247,524
888.070068,549
888.186829,498
888.303528,491
888.420288,501
888.536987,503
888.653687,505
888.770447,486
888.887146,511
889.003967,475
889.120667,485
889.237305,494
889.354065,493
889.470703,471
889.587463,488
889.704163,481
889.820862,492
889.937561,464
890.054199,487
890.170837,478
890.287598,466
890.404236,492
890.520874,490
890.637634,468
890.754211,479
890.87085,467
890.987549,475
891.104187,483
891.220886,491
891.337463,468
891.454102,483
891.57074,486
891.687378,490
891.804077,491
891.920654,506
892.037231,478
892.15387,504
892.270447,485
892.387085,476
892.503723,481
892.6203,481
892.736877,490
892.853516,487
892.970032,480
893.08667,504
893.203186,491
893.319763,501
893.43634,479
893.552917,489
893.669556,472
893.786011,464
893.902588,480
894.019165,475
894.135681,484
894.252197,495
894.368835,484
894.485291,479
894.601868,487
894.718384,494
894.8349,467
894.951355,470
895.067932,444
895.184448,478
895.300964,495
895.417419,487
895.533936,501
895.650452,472
895.766907,488
895.883423,496
895.999878,481
896.116333,491
896.232849,481
896.349304,493
896.465759,476
896.582214,483
896.698669,482
896.815125,455
896.931641,468
897.048035,497
897.164551,481
897.280884,484
897.397339,483
897.513794,479
897.630249,485
897.746582,469
897.863098,484
897.979431,486
898.095886,481
898.212341,481
898.328674,466
898.445129,482
898.561462,494
898.677795,480
898.794312,498
898.910645,494
899.026978,475
899.143433,490
899.259766,500
899.37616,512
899.492493,491
899.608765,505
899.725159,467
899.841553,491
899.957947,494
900.07428,508
900.190552,473
900.306946,510
900.423157,457
900.53949,488
900.655884,489
900.772156,514
900.888489,495
901.004822,478
901.121033,504
901.237366,487
901.353699,492
901.46991,469
901.586304,484
901.702515,507
901.818787,521
901.93512,518
902.051331,528
902.167603,530
902.283875,513
902.400085,516
902.516418,566
902.632629,552
902.74884,562
902.865112,532
902.981384,540
903.097595,552
903.213867,558
903.330017,530
903.446289,544
903.5625,535
903.67865,552
903.794922,535
903.911072,514
904.027344,531
904.143494,548
904.259705,513
904.375916,526
904.492065,486
904.608215,514
904.724426,511
904.840576,502
904.956726,495
905.072876,490
905.189087,509
905.305176,508
905.421387,490
905.537537,500
905.653687,488
905.769775,472
905.885925,497
906.002014,495
906.118164,484
906.234314,467
906.350403,476
906.466492,481
906.582642,472
906.69873,465
906.814758,466
906.930908,500
907.046936,482
907.163086,477
907.279175,484
907.395264,462
907.511353,476
907.62738,474
907.743408,462
907.859497,486
907.975525,478
908.091553,498
908.207703,469
908.32373,483
908.439758,474
908.555786,477
908.671814,488
908.787842,502
908.90387,480
909.019775,474
909.135864,473
909.251892,463
909.367859,485
909.483826,480
909.599854,472
909.715881,454
909.831848,481
909.947815,483
910.063782,482
910.179749,478
910.295776,473
910.411743,481
910.527649,473
910.643616,472
910.759583,468
910.875488,473
910.991455,495
911.107361,467
911.223267,488
911.339294,433
911.4552,473
911.571106,478
911.687073,474
911.802979,463
911.918823,475
912.034729,484
912.150635,470
912.266602,478
912.382446,468
912.498352,461
912.614197,464
912.730103,455
912.846008,469
792.44574,1206
792.56488,1242
792.68396,1224
792.80304,1183
792.92218,1133
793.041199,1115
793.160339,1036
793.279419,1040
793.398499,1031
793.517578,1008
793.636658,959
793.755737,979
793.874817,996
793.993896,960
794.112976,937
794.232056,918
794.351074,902
794.470215,829
794.589233,888
794.708313,886
794.827393,851
794.946411,842
795.065552,850
795.18457,823
795.303589,774
795.422668,815
795.541687,799
795.660767,802
795.779846,785
795.898865,753
796.017883,765
796.136963,780
796.255981,772
796.375061,767
796.49408,758
796.613037,729
796.732117,727
796.851135,726
796.970154,725
797.089233,723
797.208191,695
797.327271,689
797.446228,697
797.565186,718
797.684265,710
797.803223,707
797.922241,689
798.04126,678
798.160278,703
798.279297,692
798.398315,689
798.517273,679
798.636292,709
798.75531,687
798.874268,665
798.993286,690
799.112244,662
799.231323,649
799.350281,649
799.469238,676
799.588257,666
799.707153,640
799.826111,664
799.945129,650
800.064087,667
800.183044,637
800.302063,654
800.421021,625
800.539978,657
800.658936,629
800.777893,640
800.896912,641
801.015747,634
801.134705,630
801.253723,634
801.37262,605
801.491638,649
801.610535,607
801.729492,633
801.84845,636
801.967407,635
802.086243,642
802.205261,588
802.324158,605
802.443115,593
802.562073,621
802.680969,629
802.799927,617
802.918762,644
803.037659,616
803.156677,606
803.275574,603
803.39447,612
803.513428,611
803.632263,594
803.751221,615
803.870117,604
803.989014,602
804.107971,614
804.226746,606
804.345642,602
804.4646,589
804.583496,605
804.702393,614
804.821228,578
804.940125,580
805.059021,592
805.177917,573
805.296814,584
805.415649,579
805.534546,597
805.653442,592
805.772278,591
805.891113,567
806.01001,584
806.128906,590
806.247742,582
806.366577,589
806.485413,615
806.604309,579
806.723145,580
806.84198,591
806.960876,585
807.079712,579
807.198486,587
807.317383,584
807.436218,565
807.554993,616
807.673889,581
807.792725,537
807.91156,571
808.030396,606
808.14917,559
808.268005,544
808.386841,576
808.505676,583
808.624451,562
808.743286,562
808.862122,587
808.980896,553
809.099731,572
809.218506,589
809.337341,585
809.456116,586
809.57489,581
809.693726,572
809.8125,581
809.931274,572
810.050049,565
810.168884,558
810.287659,553
810.406372,581
810.525269,560
810.643982,584
810.762756,586
810.881531,582
811.000305,580
811.11908,568
811.237854,559
811.356567,572
811.475403,586
811.594116,582
811.71283,600
811.831604,584
811.950378,576
812.069153,564
812.187927,565
812.30658,585
812.425415,602
812.544128,599
812.662781,596
812.781616,571
812.900269,583
813.019043,589
813.137756,572
813.256531,556
813.375244,581
813.493896,573
813.612671,565
813.731384,551
813.850037,567
813.96875,571
814.087524,575
814.206238,585
814.324951,568
814.443604,557
814.562256,580
814.68103,574
814.799683,571
814.918335,566
815.037109,558
815.155762,541
815.274475,553
815.393188,556
815.511841,573
815.630554,562
815.749146,556
815.867859,559
815.986572,559
816.105164,569
816.223877,561
816.342529,556
816.461182,558
816.579895,543
816.698486,553
816.817139,564
816.935791,566
817.054504,579
817.173096,582
817.291748,580
817.4104,571
817.529053,553
817.647644,546
817.766235,595
817.884949,578
818.00354,549
818.122192,556
818.240845,570
818.359436,533
818.478088,535
818.59668,544
818.715271,550
818.833923,527
818.952515,548
819.071106,522
819.189758,546
819.30835,536
819.426941,530
819.545532,518
819.664124,514
819.782715,536
819.901306,513
820.019897,527
820.138489,515
820.25708,530
820.375671,520
820.494202,523
820.612732,504
820.731384,533
820.849915,498
820.968506,542
821.087097,508
821.205627,504
821.324158,497
821.442749,513
821.561279,506
821.679871,516
821.798401,504
821.916931,498
822.035461,508
822.154053,516
822.272583,505
822.391174,527
822.509583,501
822.628174,519
822.746704,488
822.865234,509
822.983765,519
823.102295,501
823.220825,497
823.339294,522
823.457825,510
823.576355,524
823.694824,512
823.813354,490
823.931885,514
824.050354,509
824.168884,523
824.287354,518
824.405823,492
824.524353,513
824.642822,502
824.761353,518
824.879822,512
824.998291,503
825.116699,516
825.235291,517
825.353699,512
825.472168,503
825.590637,478
825.709106,496
825.827576,491
825.946045,500
826.064453,491
826.182983,507
826.301392,509
826.4198,496
826.53833,477
826.656738,495
826.775208,499
826.893677,500
827.012024,495
827.130493,510
827.248962,501
827.36731,504
827.485779,507
827.604248,498
827.722595,494
827.841064,480
827.959412,513
828.077942,492
828.196289,509
828.314636,499
828.433105,487
828.551514,496
828.669861,495
828.78833,504
828.906677,501
829.025085,508
829.143433,498
829.261841,503
829.38031,482
829.498657,502
829.617004,496
829.735413,487
829.85376,490
829.972107,477
830.090515,488
830.208862,480
830.327209,495
830.445557,501
830.563904,489
830.682312,486
830.800659,485
830.919006,491
831.037354,495
831.155701,496
831.274048,518
831.392395,524
831.51062,495
831.629028,498
831.747314,490
831.865662,489
831.984009,482
832.102356,502
832.220642,505
832.338928,513
832.457275,506
832.575623,535
832.693909,520
832.812134,495
832.930481,509
833.048828,510
833.167114,492
833.2854,497
833.403687,496
833.521973,513
833.640259,501
833.758545,509
833.876831,495
833.995056,509
834.113281,482
834.231628,496
834.349915,499
834.468201,511
834.586426,511
834.704651,516
834.822998,497
834.941162,519
835.059448,502
835.177673,508
835.295959,515
835.414246,501
835.53241,509
835.650635,513
835.768921,509
835.887146,505
836.005371,514
836.123596,507
836.241821,485
836.360046,496
836.478271,487
836.596497,479
836.714722,485
836.832886,505
836.95105,506
837.069336,485
837.1875,506
837.305725,536
837.423889,488
837.542053,489
837.660339,489
837.778503,497
837.896667,491
838.014832,494
838.132996,516
838.25116,505
838.369385,502
838.487488,518
838.605713,501
838.723877,512
838.84198,496
838.960205,513
839.078308,510
839.196472,497
839.314636,510
839.4328,527
839.550964,509
839.669067,511
839.787231,494
839.905396,536
840.023499,505
840.141602,539
840.259766,552
840.377869,542
840.495972,535
840.614136,525
840.732239,527
840.850342,542
840.968445,526
841.086548,523
841.204651,527
841.322754,553
841.440918,548
841.55896,539
841.677002,535
841.795166,526
841.913208,528
842.031311,546
842.149353,542
842.267456,546
842.385498,537
842.503601,522
842.621643,540
842.739746,528
842.857788,539
842.97583,548
843.093933,544
843.211975,547
843.330017,550
843.44812,528
843.566101,533
843.684204,535
843.802246,542
843.920227,533
844.038269,543
844.156311,545
844.274292,514
844.392395,537
844.510376,528
844.628357,543
844.74646,535
844.864441,525
844.982422,529
845.100403,528
845.218384,516
845.336426,523
845.454468,529
845.572449,528
845.69043,539
845.808411,520
845.926453,543
846.044373,550
846.162354,515
846.280396,512
846.398315,522
846.516296,531
846.634216,538
846.752197,528
846.870178,526
846.988098,541
847.106079,498
847.22406,560
847.34198,505
847.4599,516
847.577881,527
847.695801,530
847.813782,531
847.931641,543
848.049561,539
848.167603,531
848.285461,517
848.403381,536
848.521362,525
848.639221,529
848.75708,518
848.875,534
848.99292,526
849.110901,529
849.22876,530
849.34668,527
849.464539,533
849.582458,518
849.700317,535
849.818176,510
849.936096,554
850.053955,541
850.171875,536
850.289673,528
850.407593,529
850.525452,537
850.643311,501
850.761169,526
850.878967,510
850.996887,538
851.114746,525
851.232544,520
851.350403,516
851.468262,515
851.58606,538
851.703979,523
851.821777,531
851.939636,550
852.057434,524
852.175232,530
852.293091,530
852.410889,534
852.528687,561
852.646545,553
852.764343,564
852.88208,549
852.999939,549
853.117676,553
853.235535,557
853.353271,533
853.471069,533
853.588928,511
853.706604,541
853.824402,548
853.9422,531
854.059998,534
854.177734,539
854.295532,540
854.413269,527
854.531006,556
854.648804,518
854.766541,534
854.884277,526
855.002014,551
855.119751,533
855.237549,524
855.355225,522
855.473022,545
855.590698,526
855.708435,542
855.826172,551
855.943848,540
856.061646,540
856.179321,553
856.296997,526
856.414795,556
856.53241,537
856.650085,533
856.767822,535
856.885559,564
857.003174,555
857.120911,532
857.238586,575
857.356201,551
857.473938,532
857.591614,538
857.709351,538
857.826965,552
857.944641,548
858.062317,536
858.179993,543
858.297668,549
858.415283,558
858.532959,531
858.650574,586
858.768188,520
858.885803,553
859.003479,538
859.121094,515
859.23877,527
859.356384,547
859.473999,557
859.591675,522
859.709229,530
859.826843,515
859.944458,520
860.062012,540
860.179626,531
860.297302,540
860.414856,532
860.532471,509
860.650024,535
860.767639,529
860.885193,549
861.002808,521
861.120361,525
861.237976,537
861.35553,510
861.473022,543
861.590698,539
861.708191,527
861.825745,539
861.943298,532
862.060852,523
862.178406,506
862.295959,501
862.413513,516
862.531006,516
862.64856,487
862.766113,520
862.883667,505
863.00116,506
863.118713,473
863.236206,506
863.353699,498
863.471252,493
863.588745,511
863.706177,509
863.82373,500
863.941162,516
864.058716,499
864.176208,532
864.29364,494
864.411194,514
864.528687,494
864.646118,513
864.763611,522
864.881042,508
864.998535,527
865.116028,514
865.233459,503
865.350891,525
865.468384,514
865.585754,519
865.703308,480
865.820679,505
865.938171,511
866.055542,510
866.173035,489
866.290466,511
866.407837,494
866.52533,510
866.6427,496
866.760071,508
866.877563,499
866.994934,523
867.112305,501
867.229736,523
867.347107,494
867.464539,507
867.58197,519
867.699341,519
867.81665,513
867.934082,527
868.051453,527
868.168823,513
868.286194,524
868.403564,530
868.520935,502
868.638306,527
868.755676,507
868.872986,520
868.990295,513
869.107727,511
869.225037,526
869.342346,509
869.459717,533
869.577026,543
869.694336,519
869.811707,518
869.929016,539
870.046326,531
870.163635,514
870.280945,530
870.398254,552
870.515564,542
870.632812,557
870.750183,536
870.867432,559
870.984741,536
871.102051,547
871.219299,568
871.336609,536
871.453918,551
871.571106,557
871.688416,561
871.805664,542
871.922852,543
872.040222,569
872.157471,569
872.274719,552
872.391968,553
872.509155,560
872.626465,547
872.743652,544
872.860962,555
872.978149,539
873.095337,574
873.212646,566
873.329834,547
873.44696,560
873.564209,548
873.681396,544
873.798645,551
873.915894,552
874.03302,546
874.150208,538
874.267456,536
874.384583,560
874.501831,577
874.618958,585
874.736145,543
874.853333,577
874.970459,568
875.087646,559
875.204834,560
875.32196,545
875.439148,566
875.556274,554
875.673401,562
875.790527,540
875.907715,542
876.024841,552
876.141968,542
876.259094,561
876.376282,541
876.493347,536
876.610474,526
876.7276,539
876.844727,524
876.961853,543
877.078918,546
877.195984,537
877.313171,553
877.430237,541
877.547302,524
877.664368,531
877.781433,521
877.898499,531
878.015625,526
878.13269,537
878.249695,547
878.366821,518
878.483887,492
878.600952,525
878.717957,517
878.834961,526
878.952087,526
879.069092,507
879.186157,495
879.303162,499
879.420227,508
879.537231,495
879.654236,526
879.77124,519
879.888306,491
880.005249,498
880.122314,516
880.239319,494
880.356323,505
880.473328,491
880.590271,493
880.707275,501
880.824341,513
880.941284,500
881.058228,506
881.175232,489
881.292236,510
881.40918,464
881.526123,498
881.643066,506
881.760071,494
881.877014,488
881.993958,494
882.11084,497
882.227783,507
882.344727,478
882.46167,495
882.578613,508
882.695618,496
882.812439,495
882.929382,492
883.046326,493
883.163208,506
883.280151,493
883.397034,516
883.513916,501
883.630798,513
883.747742,516
883.864563,517
883.981506,518
884.098389,524
884.21521,506
884.332153,524
884.448975,514
884.565796,548
884.682678,526
884.7995,566
884.916443,572
885.033264,580
885.150085,588
885.266968,592
885.383789,589
885.500671,604
885.617493,628
885.734314,607
885.851196,609
885.967896,600
886.084717,590
886.201599,606
886.318359,606
886.435181,593
886.552002,607
886.668762,597
886.785645,597
886.902344,555
887.019165,604
887.135925,588
887.252747,568
887.369446,555
887.486267,551
887.603027,572
887.719788,559
887.836548,539
887.953247,531
888.070068,542
888.186829,522
888.303528,522
888.420288,513
888.536987,497
888.653687,482
888.770447,499
888.887146,500
889.003967,487
889.120667,481
889.237305,498
889.354065,487
889.470703,496
889.587463,480
889.704163,487
889.820862,495
889.937561,478
890.054199,476
890.170837,469
890.287598,472
890.404236,495
890.520874,494
890.637634,480
890.754211,488
890.87085,493
890.987549,485
891.104187,490
891.220886,479
891.337463,486
891.454102,476
891.57074,503
891.687378,478
891.804077,510
891.920654,499
892.037231,489
892.15387,481
892.270447,474
892.387085,465
892.503723,486
892.6203,482
892.736877,492
892.853516,493
892.970032,492
893.08667,477
893.203186,489
893.319763,460
893.43634,483
893.552917,504
893.669556,495
893.786011,476
893.902588,471
894.019165,497
894.135681,474
894.252197,484
894.368835,479
894.485291,475
894.601868,493
894.718384,490
894.8349,474
894.951355,457
895.067932,490
895.184448,488
895.300964,488
895.417419,489
895.533936,493
895.650452,471
895.766907,476
895.883423,489
895.999878,484
896.116333,475
896.232849,477
896.349304,463
896.465759,469
896.582214,479
896.698669,491
896.815125,473
896.931641,499
897.048035,468
897.164551,465
897.280884,472
897.397339,493
897.513794,484
897.630249,486
897.746582,495
897.863098,493
897.979431,492
898.095886,488
898.212341,472
898.328674,497
898.445129,498
898.561462,483
898.677795,485
898.794312,509
898.910645,475
899.026978,494
899.143433,499
899.259766,493
899.37616,499
899.492493,491
899.608765,493
899.725159,483
899.841553,482
899.957947,492
900.07428,494
900.190552,493
900.306946,495
900.423157,473
900.53949,476
900.655884,480
900.772156,487
900.888489,499
901.004822,491
901.121033,485
901.237366,493
901.353699,502
901.46991,483
901.586304,499
901.702515,508
901.818787,515
901.93512,495
902.051331,512
902.167603,479
902.283875,524
902.400085,541
902.516418,548
902.632629,546
902.74884,538
902.865112,553
902.981384,551
903.097595,545
903.213867,549
903.330017,519
903.446289,536
903.5625,533
903.67865,534
903.794922,533
903.911072,529
904.027344,533
904.143494,527
904.259705,521
904.375916,520
904.492065,509
904.608215,515
904.724426,525
904.840576,499
904.956726,487
905.072876,483
905.189087,496
905.305176,500
905.421387,478
905.537537,495
905.653687,481
905.769775,477
905.885925,501
906.002014,482
906.118164,467
906.234314,481
906.350403,476
906.466492,464
906.582642,463
906.69873,492
906.814758,473
906.930908,487
907.046936,484
907.163086,489
907.279175,480
907.395264,459
907.511353,475
907.62738,479
907.743408,475
907.859497,466
907.975525,473
908.091553,498
908.207703,491
908.32373,466
908.439758,462
908.555786,459
908.671814,490
908.787842,481
908.90387,489
909.019775,498
909.135864,483
909.251892,493
909.367859,481
909.483826,491
909.599854,459
909.715881,473
909.831848,480
909.947815,489
910.063782,461
910.179749,484
910.295776,467
910.411743,471
910.527649,477
910.643616,472
910.759583,479
910.875488,470
910.991455,482
911.107361,496
911.223267,476
911.339294,476
911.4552,462
911.571106,473
911.687073,486
911.802979,463
911.918823,475
912.034729,474
912.150635,482
912.266602,462
912.382446,457
912.498352,474
912.614197,469
912.730103,475
912.846008,467
