792.44574,1136
792.56488,1188
792.68396,1197
792.80304,1146
792.92218,1082
793.041199,1012
793.160339,1048
793.279419,1032
793.398499,991
793.517578,935
793.636658,950
793.755737,944
793.874817,951
793.993896,916
794.112976,883
794.232056,872
794.351074,850
794.470215,865
794.589233,810
794.708313,860
794.827393,831
794.946411,827
795.065552,818
795.18457,809
795.303589,811
795.422668,773
795.541687,782
795.660767,766
795.779846,775
795.898865,750
796.017883,750
796.136963,746
796.255981,756
796.375061,723
796.49408,737
796.613037,715
796.732117,723
796.851135,705
796.970154,716
797.089233,694
797.208191,692
797.327271,675
797.446228,697
797.565186,683
797.684265,672
797.803223,693
797.922241,672
798.04126,660
798.160278,646
798.279297,654
798.398315,647
798.517273,677
798.636292,658
798.75531,631
798.874268,675
798.993286,649
799.112244,658
799.231323,669
799.350281,660
799.469238,617
799.588257,662
799.707153,652
799.826111,626
799.945129,622
800.064087,650
800.183044,610
800.302063,614
800.421021,644
800.539978,630
800.658936,614
800.777893,613
800.896912,615
801.015747,626
801.134705,617
801.253723,631
801.37262,604
801.491638,615
801.610535,610
801.729492,609
801.84845,594
801.967407,608
802.086243,612
802.205261,588
802.324158,589
802.443115,600
802.562073,578
802.680969,589
802.799927,596
802.918762,593
803.037659,577
803.156677,599
803.275574,567
803.39447,568
803.513428,567
803.632263,590
803.751221,554
803.870117,579
803.989014,564
804.107971,577
804.226746,573
804.345642,557
804.4646,586
804.583496,587
804.702393,604
804.821228,571
804.940125,588
805.059021,564
805.177917,551
805.296814,598
805.415649,576
805.534546,570
805.653442,587
805.772278,579
805.891113,559
806.01001,570
806.128906,563
806.247742,615
806.366577,556
806.485413,584
806.604309,569
806.723145,596
806.84198,556
806.960876,549
807.079712,566
807.198486,568
807.317383,540
807.436218,568
807.554993,550
807.673889,576
807.792725,573
807.91156,536
808.030396,566
808.14917,540
808.268005,556
808.386841,565
808.505676,524
808.624451,558
808.743286,573
808.862122,561
808.980896,551
809.099731,525
809.218506,560
809.337341,553
809.456116,566
809.57489,546
809.693726,550
809.8125,551
809.931274,557
810.050049,560
810.168884,534
810.287659,565
810.406372,550
810.525269,554
810.643982,563
810.762756,543
810.881531,547
811.000305,553
811.11908,547
811.237854,544
811.356567,543
811.475403,551
811.594116,529
811.71283,570
811.831604,567
811.950378,541
812.069153,556
812.187927,587
812.30658,549
812.425415,556
812.544128,556
812.662781,556
812.781616,539
812.900269,567
813.019043,536
813.137756,556
813.256531,557
813.375244,560
813.493896,564
813.612671,563
813.731384,550
813.850037,561
813.96875,563
814.087524,521
814.206238,548
814.324951,560
814.443604,546
814.562256,556
814.68103,512
814.799683,552
814.918335,557
815.037109,537
815.155762,544
815.274475,531
815.393188,522
815.511841,548
815.630554,521
815.749146,541
815.867859,543
815.986572,538
816.105164,540
816.223877,545
816.342529,566
816.461182,533
816.579895,550
816.698486,541
816.817139,533
816.935791,568
817.054504,564
817.173096,556
817.291748,566
817.4104,583
817.529053,517
817.647644,552
817.766235,536
817.884949,546
818.00354,534
818.122192,543
818.240845,560
818.359436,525
818.478088,540
818.59668,539
818.715271,520
818.833923,532
818.952515,533
819.071106,538
819.189758,516
819.30835,519
819.426941,512
819.545532,515
819.664124,528
819.782715,515
819.901306,495
820.019897,510
820.138489,518
820.25708,522
820.375671,503
820.494202,532
820.612732,527
820.731384,508
820.849915,536
820.968506,536
821.087097,512
821.205627,513
821.324158,496
821.442749,510
821.561279,532
821.679871,524
821.798401,492
821.916931,519
822.035461,501
822.154053,520
822.272583,489
822.391174,500
822.509583,517
822.628174,529
822.746704,504
822.865234,498
822.983765,510
823.102295,487
823.220825,493
823.339294,499
823.457825,479
823.576355,491
823.694824,499
823.813354,481
823.931885,507
824.050354,499
824.168884,516
824.287354,513
824.405823,526
824.524353,516
824.642822,510
824.761353,504
824.879822,510
824.998291,495
825.116699,493
825.235291,495
825.353699,509
825.472168,509
825.590637,493
825.709106,504
825.827576,507
825.946045,492
826.064453,516
826.182983,498
826.301392,494
826.4198,506
826.53833,492
826.656738,494
826.775208,486
826.893677,512
827.012024,483
827.130493,507
827.248962,509
827.36731,514
827.485779,511
827.604248,487
827.722595,476
827.841064,484
827.959412,482
828.077942,509
828.196289,501
828.314636,495
828.433105,474
828.551514,509
828.669861,494
828.78833,492
828.906677,493
829.025085,508
829.143433,508
829.261841,512
829.38031,500
829.498657,512
829.617004,479
829.735413,501
829.85376,490
829.972107,493
830.090515,489
830.208862,509
830.327209,497
830.445557,505
830.563904,487
830.682312,488
830.800659,510
830.919006,512
831.037354,499
831.155701,527
831.274048,499
831.392395,495
831.51062,489
831.629028,516
831.747314,491
831.865662,503
831.984009,515
832.102356,531
832.220642,504
832.338928,521
832.457275,512
832.575623,495
832.693909,502
832.812134,515
832.930481,503
833.048828,503
833.167114,480
833.2854,510
833.403687,514
833.521973,495
833.640259,501
833.758545,507
833.876831,466
833.995056,501
834.113281,495
834.231628,510
834.349915,541
834.468201,498
834.586426,484
834.704651,517
834.822998,501
834.941162,519
835.059448,501
835.177673,507
835.295959,507
835.414246,509
835.53241,497
835.650635,498
835.768921,524
835.887146,513
836.005371,507
836.123596,501
836.241821,497
836.360046,508
836.478271,508
836.596497,499
836.714722,485
836.832886,486
836.95105,490
837.069336,473
837.1875,512
837.305725,492
837.423889,489
837.542053,513
837.660339,504
837.778503,489
837.896667,495
838.014832,514
838.132996,491
838.25116,493
838.369385,475
838.487488,507
838.605713,509
838.723877,484
838.84198,484
838.960205,492
839.078308,517
839.196472,516
839.314636,521
839.4328,508
839.550964,516
839.669067,527
839.787231,523
839.905396,531
840.023499,536
840.141602,507
840.259766,510
840.377869,537
840.495972,541
840.614136,544
840.732239,539
840.850342,533
840.968445,492
841.086548,525
841.204651,540
841.322754,549
841.440918,532
841.55896,557
841.677002,538
841.795166,541
841.913208,542
842.031311,546
842.149353,544
842.267456,534
842.385498,537
842.503601,539
842.621643,540
842.739746,516
842.857788,543
842.97583,550
843.093933,535
843.211975,534
843.330017,553
843.44812,531
843.566101,533
843.684204,543
843.802246,539
843.920227,523
844.038269,524
844.156311,536
844.274292,523
844.392395,549
844.510376,544
844.628357,511
844.74646,533
844.864441,529
844.982422,509
845.100403,523
845.218384,527
845.336426,506
845.454468,537
845.572449,527
845.69043,551
845.808411,533
845.926453,491
846.044373,542
846.162354,526
846.280396,526
846.398315,520
846.516296,517
846.634216,539
846.752197,523
846.870178,519
846.988098,541
847.106079,513
847.22406,526
847.34198,533
847.4599,549
847.577881,528
847.695801,546
847.813782,535
847.931641,550
848.049561,535
848.167603,538
848.285461,524
848.403381,528
848.521362,548
848.639221,545
848.75708,512
848.875,547
848.99292,527
849.110901,534
849.22876,526
849.34668,542
849.464539,535
849.582458,570
849.700317,540
849.818176,531
849.936096,506
850.053955,548
850.171875,532
850.289673,529
850.407593,520
850.525452,527
850.643311,514
850.761169,534
850.878967,543
850.996887,535
851.114746,544
851.232544,543
851.350403,499
851.468262,534
851.58606,515
851.703979,521
851.821777,532
851.939636,536
852.057434,509
852.175232,538
852.293091,559
852.410889,547
852.528687,549
852.646545,553
852.764343,575
852.88208,557
852.999939,523
853.117676,557
853.235535,529
853.353271,524
853.471069,544
853.588928,532
853.706604,518
853.824402,541
853.9422,547
854.059998,531
854.177734,520
854.295532,537
854.413269,549
854.531006,519
854.648804,525
854.766541,529
854.884277,554
855.002014,537
855.119751,521
855.237549,529
855.355225,535
855.473022,532
855.590698,521
855.708435,528
855.826172,536
855.943848,538
856.061646,530
856.179321,556
856.296997,557
856.414795,540
856.53241,547
856.650085,548
856.767822,549
856.885559,542
857.003174,532
857.120911,556
857.238586,541
857.356201,547
857.473938,543
857.591614,555
857.709351,549
857.826965,539
857.944641,543
858.062317,534
858.179993,538
858.297668,545
858.415283,532
858.532959,545
858.650574,541
858.768188,544
858.885803,549
859.003479,555
859.121094,533
859.23877,536
859.356384,542
859.473999,561
859.591675,522
859.709229,520
859.826843,518
859.944458,530
860.062012,519
860.179626,531
860.297302,531
860.414856,515
860.532471,516
860.650024,522
860.767639,518
860.885193,535
861.002808,539
861.120361,527
861.237976,543
861.35553,535
861.473022,545
861.590698,528
861.708191,523
861.825745,531
861.943298,503
862.060852,523
862.178406,505
862.295959,528
862.413513,508
862.531006,507
862.64856,501
862.766113,495
862.883667,487
863.00116,493
863.118713,493
863.236206,497
863.353699,508
863.471252,516
863.588745,529
863.706177,491
863.82373,528
863.941162,523
864.058716,507
864.176208,520
864.29364,517
864.411194,499
864.528687,514
864.646118,492
864.763611,503
864.881042,490
864.998535,499
865.116028,524
865.233459,496
865.350891,515
865.468384,513
865.585754,506
865.703308,502
865.820679,503
865.938171,496
866.055542,522
866.173035,498
866.290466,508
866.407837,520
866.52533,528
866.6427,499
866.760071,511
866.877563,486
866.994934,509
867.112305,504
867.229736,520
867.347107,521
867.464539,508
867.58197,505
867.699341,518
867.81665,490
867.934082,546
868.051453,526
868.168823,508
868.286194,518
868.403564,499
868.520935,495
868.638306,520
868.755676,514
868.872986,523
868.990295,518
869.107727,520
869.225037,514
869.342346,524
869.459717,517
869.577026,502
869.694336,533
869.811707,514
869.929016,524
870.046326,552
870.163635,528
870.280945,546
870.398254,519
870.515564,532
870.632812,557
870.750183,528
870.867432,536
870.984741,554
871.102051,529
871.219299,545
871.336609,548
871.453918,542
871.571106,556
871.688416,557
871.805664,548
871.922852,565
872.040222,552
872.157471,548
872.274719,552
872.391968,559
872.509155,549
872.626465,564
872.743652,535
872.860962,565
872.978149,542
873.095337,539
873.212646,545
873.329834,548
873.44696,538
873.564209,556
873.681396,534
873.798645,548
873.915894,553
874.03302,560
874.150208,552
874.267456,562
874.384583,566
874.501831,528
874.618958,551
874.736145,549
874.853333,554
874.970459,563
875.087646,531
875.204834,555
875.32196,564
875.439148,557
875.556274,545
875.673401,551
875.790527,540
875.907715,551
876.024841,537
876.141968,557
876.259094,528
876.376282,524
876.493347,540
876.610474,530
876.7276,535
876.844727,534
876.961853,526
877.078918,528
877.195984,532
877.313171,531
877.430237,542
877.547302,548
877.664368,514
877.781433,518
877.898499,524
878.015625,525
878.13269,521
878.249695,513
878.366821,512
878.483887,529
878.600952,515
878.717957,495
878.834961,513
878.952087,522
879.069092,479
879.186157,523
879.303162,501
879.420227,513
879.537231,516
879.654236,515
879.77124,504
879.888306,506
880.005249,514
880.122314,522
880.239319,513
880.356323,512
880.473328,480
880.590271,490
880.707275,502
880.824341,503
880.941284,497
881.058228,520
881.175232,483
881.292236,495
881.40918,500
881.526123,512
881.643066,498
881.760071,500
881.877014,484
881.993958,500
882.11084,490
882.227783,496
882.344727,488
882.46167,491
882.578613,501
882.695618,487
882.812439,508
882.929382,517
883.046326,505
883.163208,506
883.280151,513
883.397034,464
883.513916,482
883.630798,525
883.747742,511
883.864563,503
883.981506,503
884.098389,508
884.21521,523
884.332153,539
884.448975,528
884.565796,526
884.682678,521
884.7995,542
884.916443,555
885.033264,595
885.150085,553
885.266968,581
885.383789,606
885.500671,599
885.617493,597
885.734314,613
885.851196,616
885.967896,582
886.084717,575
886.201599,605
886.318359,590
886.435181,573
886.552002,595
886.668762,608
886.785645,560
886.902344,579
887.019165,555
887.135925,556
887.252747,546
887.369446,565
887.486267,559
887.603027,560
887.719788,538
887.836548,520
887.953247,546
888.070068,534
888.186829,514
888.303528,528
888.420288,509
888.536987,517
888.653687,515
888.770447,491
888.887146,477
889.003967,489
889.120667,481
889.237305,493
889.354065,476
889.470703,488
889.587463,470
889.704163,478
889.820862,468
889.937561,477
890.054199,467
890.170837,488
890.287598,467
890.404236,476
890.520874,462
890.637634,467
890.754211,504
890.87085,466
890.987549,483
891.104187,485
891.220886,491
891.337463,489
891.454102,499
891.57074,486
891.687378,488
891.804077,495
891.920654,496
892.037231,492
892.15387,480
892.270447,482
892.387085,496
892.503723,496
892.6203,455
892.736877,488
892.853516,495
892.970032,504
893.08667,466
893.203186,490
893.319763,480
893.43634,479
893.552917,494
893.669556,485
893.786011,455
893.902588,478
894.019165,467
894.135681,487
894.252197,478
894.368835,474
894.485291,488
894.601868,471
894.718384,465
894.8349,509
894.951355,500
895.067932,476
895.184448,461
895.300964,482
895.417419,462
895.533936,496
895.650452,479
895.766907,478
895.883423,481
895.999878,475
896.116333,485
896.232849,481
896.349304,467
896.465759,473
896.582214,470
896.698669,480
896.815125,489
896.931641,452
897.048035,463
897.164551,477
897.280884,494
897.397339,461
897.513794,477
897.630249,458
897.746582,482
897.863098,489
897.979431,471
898.095886,494
898.212341,478
898.328674,489
898.445129,484
898.561462,470
898.677795,498
898.794312,484
898.910645,500
899.026978,492
899.143433,455
899.259766,482
899.37616,492
899.492493,497
899.608765,491
899.725159,488
899.841553,496
899.957947,496
900.07428,476
900.190552,487
900.306946,465
900.423157,480
900.53949,507
900.655884,504
900.772156,482
900.888489,495
901.004822,501
901.121033,482
901.237366,510
901.353699,492
901.46991,494
901.586304,505
901.702515,500
901.818787,504
901.93512,493
902.051331,519
902.167603,507
902.283875,518
902.400085,537
902.516418,534
902.632629,525
902.74884,514
902.865112,540
902.981384,549
903.097595,546
903.213867,542
903.330017,527
903.446289,546
903.5625,522
903.67865,534
903.794922,527
903.911072,521
904.027344,525
904.143494,508
904.259705,485
904.375916,497
904.492065,510
904.608215,504
904.724426,499
904.840576,501
904.956726,503
905.072876,489
905.189087,477
905.305176,477
905.421387,484
905.537537,499
905.653687,482
905.769775,488
905.885925,474
906.002014,485
906.118164,467
906.234314,467
906.350403,477
906.466492,462
906.582642,490
906.69873,472
906.814758,481
906.930908,468
907.046936,473
907.163086,487
907.279175,456
907.395264,459
907.511353,482
907.62738,477
907.743408,477
907.859497,495
907.975525,463
908.091553,476
908.207703,476
908.32373,477
908.439758,481
908.555786,460
908.671814,466
908.787842,469
908.90387,475
909.019775,458
909.135864,467
909.251892,472
909.367859,466
909.483826,503
909.599854,458
909.715881,483
909.831848,459
909.947815,499
910.063782,477
910.179749,495
910.295776,473
910.411743,470
910.527649,475
910.643616,476
910.759583,474
910.875488,469
910.991455,476
911.107361,473
911.223267,477
911.339294,472
911.4552,461
911.571106,488
911.687073,475
911.802979,495
911.918823,463
912.034729,452
912.150635,474
912.266602,471
912.382446,477
912.498352,471
912.614197,472
912.730103,468
912.846008,478
792.44574,1175
792.56488,1172
792.68396,1205
792.80304,1148
792.92218,1101
793.041199,1040
793.160339,1014
793.279419,969
793.398499,976
793.517578,954
793.636658,929
793.755737,951
793.874817,915
793.993896,935
794.112976,892
794.232056,876
794.351074,890
794.470215,851
794.589233,843
794.708313,820
794.827393,857
794.946411,829
795.065552,787
795.18457,801
795.303589,807
795.422668,787
795.541687,776
795.660767,758
795.779846,749
795.898865,756
796.017883,732
796.136963,736
796.255981,741
796.375061,734
796.49408,699
796.613037,700
796.732117,707
796.851135,714
796.970154,697
797.089233,708
797.208191,707
797.327271,682
797.446228,694
797.565186,698
797.684265,689
797.803223,681
797.922241,679
798.04126,650
798.160278,660
798.279297,658
798.398315,679
798.517273,668
798.636292,658
798.75531,647
798.874268,678
798.993286,645
799.112244,649
799.231323,640
799.350281,663
799.469238,647
799.588257,669
799.707153,645
799.826111,636
799.945129,656
800.064087,639
800.183044,627
800.302063,632
800.421021,617
800.539978,638
800.658936,639
800.777893,632
800.896912,610
801.015747,637
801.134705,633
801.253723,601
801.37262,614
801.491638,608
801.610535,597
801.729492,626
801.84845,613
801.967407,594
802.086243,597
802.205261,614
802.324158,581
802.443115,578
802.562073,600
802.680969,618
802.799927,594
802.918762,625
803.037659,589
803.156677,581
803.275574,584
803.39447,582
803.513428,588
803.632263,587
803.751221,600
803.870117,577
803.989014,571
804.107971,588
804.226746,574
804.345642,566
804.4646,606
804.583496,591
804.702393,566
804.821228,586
804.940125,572
805.059021,569
805.177917,575
805.296814,575
805.415649,581
805.534546,576
805.653442,560
805.772278,580
805.891113,563
806.01001,586
806.128906,557
806.247742,558
806.366577,559
806.485413,576
806.604309,578
806.723145,579
806.84198,584
806.960876,573
807.079712,575
807.198486,568
807.317383,579
807.436218,581
807.554993,569
807.673889,545
807.792725,525
807.91156,555
808.030396,562
808.14917,556
808.268005,568
808.386841,552
808.505676,542
808.624451,552
808.743286,578
808.862122,552
808.980896,572
809.099731,540
809.218506,561
809.337341,536
809.456116,572
809.57489,523
809.693726,545
809.8125,546
809.931274,580
810.050049,545
810.168884,548
810.287659,563
810.406372,546
810.525269,534
810.643982,546
810.762756,561
810.881531,550
811.000305,546
811.11908,564
811.237854,553
811.356567,566
811.475403,551
811.594116,537
811.71283,567
811.831604,562
811.950378,590
812.069153,567
812.187927,551
812.30658,545
812.425415,572
812.544128,554
812.662781,566
812.781616,569
812.900269,558
813.019043,552
813.137756,553
813.256531,560
813.375244,540
813.493896,557
813.612671,543
813.731384,542
813.850037,550
813.96875,562
814.087524,551
814.206238,550
814.324951,541
814.443604,522
814.562256,540
814.68103,565
814.799683,567
814.918335,529
815.037109,544
815.155762,541
815.274475,539
815.393188,539
815.511841,551
815.630554,533
815.749146,534
815.867859,528
815.986572,555
816.105164,564
816.223877,536
816.342529,542
816.461182,548
816.579895,530
816.698486,529
816.817139,553
816.935791,544
817.054504,566
817.173096,558
817.291748,553
817.4104,547
817.529053,549
817.647644,554
817.766235,543
817.884949,550
818.00354,533
818.122192,527
818.240845,545
818.359436,511
818.478088,544
818.59668,525
818.715271,538
818.833923,528
818.952515,538
819.071106,530
819.189758,544
819.30835,538
819.426941,507
819.545532,520
819.664124,496
819.782715,509
819.901306,491
820.019897,522
820.138489,510
820.25708,532
820.375671,519
820.494202,525
820.612732,520
820.731384,524
820.849915,524
820.968506,513
821.087097,524
821.205627,486
821.324158,490
821.442749,527
821.561279,505
821.679871,497
821.798401,520
821.916931,512
822.035461,495
822.154053,520
822.272583,510
822.391174,507
822.509583,513
822.628174,534
822.746704,485
822.865234,499
822.983765,515
823.102295,508
823.220825,492
823.339294,507
823.457825,497
823.576355,480
823.694824,500
823.813354,498
823.931885,496
824.050354,516
824.168884,501
824.287354,506
824.405823,496
824.524353,498
824.642822,510
824.761353,504
824.879822,528
824.998291,493
825.116699,510
825.235291,504
825.353699,504
825.472168,510
825.590637,511
825.709106,508
825.827576,505
825.946045,515
826.064453,510
826.182983,518
826.301392,476
826.4198,489
826.53833,470
826.656738,513
826.775208,511
826.893677,492
827.012024,500
827.130493,495
827.248962,506
827.36731,482
827.485779,502
827.604248,496
827.722595,498
827.841064,508
827.959412,494
828.077942,488
828.196289,494
828.314636,507
828.433105,491
828.551514,501
828.669861,469
828.78833,486
828.906677,493
829.025085,498
829.143433,505
829.261841,500
829.38031,493
829.498657,498
829.617004,507
829.735413,510
829.85376,511
829.972107,502
830.090515,508
830.208862,506
830.327209,475
830.445557,498
830.563904,484
830.682312,501
830.800659,507
830.919006,513
831.037354,500
831.155701,523
831.274048,497
831.392395,524
831.51062,482
831.629028,505
831.747314,489
831.865662,499
831.984009,500
832.102356,497
832.220642,487
832.338928,506
832.457275,484
832.575623,510
832.693909,527
832.812134,530
832.930481,503
833.048828,509
833.167114,501
833.2854,511
833.403687,474
833.521973,513
833.640259,478
833.758545,496
833.876831,494
833.995056,507
834.113281,489
834.231628,495
834.349915,487
834.468201,498
834.586426,495
834.704651,497
834.822998,500
834.941162,506
835.059448,524
835.177673,518
835.295959,509
835.414246,505
835.53241,526
835.650635,506
835.768921,527
835.887146,515
836.005371,497
836.123596,509
836.241821,492
836.360046,527
836.478271,509
836.596497,510
836.714722,488
836.832886,492
836.95105,484
837.069336,506
837.1875,486
837.305725,497
837.423889,487
837.542053,479
837.660339,486
837.778503,496
837.896667,499
838.014832,493
838.132996,493
838.25116,494
838.369385,487
838.487488,515
838.605713,506
838.723877,522
838.84198,488
838.960205,504
839.078308,492
839.196472,527
839.314636,524
839.4328,488
839.550964,506
839.669067,492
839.787231,513
839.905396,524
840.023499,529
840.141602,519
840.259766,521
840.377869,537
840.495972,533
840.614136,521
840.732239,538
840.850342,515
840.968445,529
841.086548,520
841.204651,532
841.322754,553
841.440918,525
841.55896,548
841.677002,536
841.795166,576
841.913208,560
842.031311,551
842.149353,570
842.267456,529
842.385498,534
842.503601,569
842.621643,543
842.739746,536
842.857788,544
842.97583,543
843.093933,547
843.211975,520
843.330017,541
843.44812,536
843.566101,518
843.684204,532
843.802246,523
843.920227,527
844.038269,547
844.156311,522
844.274292,518
844.392395,530
844.510376,547
844.628357,519
844.74646,518
844.864441,535
844.982422,521
845.100403,534
845.218384,540
845.336426,532
845.454468,518
845.572449,495
845.69043,530
845.808411,530
845.926453,512
846.044373,525
846.162354,532
846.280396,535
846.398315,524
846.516296,527
846.634216,536
846.752197,540
846.870178,534
846.988098,529
847.106079,557
847.22406,539
847.34198,526
847.4599,536
847.577881,521
847.695801,509
847.813782,545
847.931641,512
848.049561,522
848.167603,522
848.285461,541
848.403381,543
848.521362,525
848.639221,526
848.75708,543
848.875,540
848.99292,558
849.110901,539
849.22876,528
849.34668,555
849.464539,538
849.582458,527
849.700317,528
849.818176,533
849.936096,546
850.053955,550
850.171875,536
850.289673,519
850.407593,554
850.525452,549
850.643311,528
850.761169,509
850.878967,541
850.996887,526
851.114746,524
851.232544,535
851.350403,526
851.468262,535
851.58606,530
851.703979,513
851.821777,535
851.939636,522
852.057434,496
852.175232,525
852.293091,545
852.410889,530
852.528687,568
852.646545,566
852.764343,556
852.88208,570
852.999939,557
853.117676,549
853.235535,547
853.353271,542
853.471069,533
853.588928,546
853.706604,549
853.824402,542
853.9422,537
854.059998,513
854.177734,538
854.295532,527
854.413269,518
854.531006,517
854.648804,533
854.766541,535
854.884277,561
855.002014,530
855.119751,543
855.237549,534
855.355225,523
855.473022,552
855.590698,538
855.708435,541
855.826172,526
855.943848,522
856.061646,572
856.179321,545
856.296997,568
856.414795,520
856.53241,540
856.650085,539
856.767822,530
856.885559,548
857.003174,574
857.120911,556
857.238586,557
857.356201,543
857.473938,568
857.591614,550
857.709351,533
857.826965,566
857.944641,548
858.062317,540
858.179993,529
858.297668,536
858.415283,562
858.532959,557
858.650574,539
858.768188,569
858.885803,547
859.003479,541
859.121094,540
859.23877,531
859.356384,547
859.473999,540
859.591675,552
859.709229,558
859.826843,523
859.944458,524
860.062012,528
860.179626,553
860.297302,529
860.414856,527
860.532471,523
860.650024,532
860.767639,526
860.885193,518
861.002808,538
861.120361,516
861.237976,519
861.35553,545
861.473022,527
861.590698,523
861.708191,519
861.825745,535
861.943298,528
862.060852,530
862.178406,503
862.295959,507
862.413513,504
862.531006,482
862.64856,508
862.766113,499
862.883667,483
863.00116,490
863.118713,490
863.236206,489
863.353699,509
863.471252,517
863.588745,517
863.706177,514
863.82373,497
863.941162,537
864.058716,518
864.176208,521
864.29364,505
864.411194,517
864.528687,498
864.646118,510
864.763611,510
864.881042,496
864.998535,499
865.116028,498
865.233459,490
865.350891,504
865.468384,495
865.585754,508
865.703308,485
865.820679,504
865.938171,503
866.055542,506
866.173035,505
866.290466,514
866.407837,502
866.52533,504
866.6427,502
866.760071,504
866.877563,505
866.994934,523
867.112305,512
867.229736,516
867.347107,516
867.464539,514
867.58197,508
867.699341,522
867.81665,513
867.934082,536
868.051453,501
868.168823,504
868.286194,518
868.403564,513
868.520935,517
868.638306,511
868.755676,516
868.872986,518
868.990295,506
869.107727,536
869.225037,531
869.342346,535
869.459717,527
869.577026,519
869.694336,516
869.811707,543
869.929016,530
870.046326,541
870.163635,554
870.280945,524
870.398254,538
870.515564,561
870.632812,530
870.750183,543
870.867432,565
870.984741,521
871.102051,550
871.219299,533
871.336609,558
871.453918,573
871.571106,553
871.688416,560
871.805664,546
871.922852,541
872.040222,541
872.157471,584
872.274719,552
872.391968,545
872.509155,554
872.626465,556
872.743652,553
872.860962,552
872.978149,548
873.095337,545
873.212646,547
873.329834,533
873.44696,564
873.564209,562
873.681396,560
873.798645,549
873.915894,566
874.03302,549
874.150208,543
874.267456,550
874.384583,563
874.501831,548
874.618958,556
874.736145,577
874.853333,534
874.970459,538
875.087646,548
875.204834,539
875.32196,578
875.439148,530
875.556274,523
875.673401,549
875.790527,542
875.907715,532
876.024841,529
876.141968,561
876.259094,536
876.376282,539
876.493347,528
876.610474,531
876.7276,525
876.844727,548
876.961853,538
877.078918,522
877.195984,511
877.313171,524
877.430237,534
877.547302,538
877.664368,530
877.781433,541
877.898499,539
878.015625,529
878.13269,517
878.249695,534
878.366821,534
878.483887,525
878.600952,521
878.717957,502
878.834961,502
878.952087,526
879.069092,509
879.186157,511
879.303162,494
879.420227,515
879.537231,524
879.654236,507
879.77124,505
879.888306,506
880.005249,528
880.122314,492
880.239319,512
880.356323,506
880.473328,504
880.590271,495
880.707275,492
880.824341,499
880.941284,495
881.058228,499
881.175232,499
881.292236,506
881.40918,502
881.526123,495
881.643066,474
881.760071,502
881.877014,497
881.993958,516
882.11084,496
882.227783,492
882.344727,511
882.46167,493
882.578613,491
882.695618,508
882.812439,493
882.929382,497
883.046326,500
883.163208,498
883.280151,497
883.397034,504
883.513916,505
883.630798,499
883.747742,509
883.864563,514
883.981506,510
884.098389,515
884.21521,518
884.332153,508
884.448975,524
884.565796,526
884.682678,523
884.7995,520
884.916443,577
885.033264,569
885.150085,580
885.266968,602
885.383789,573
885.500671,609
885.617493,608
885.734314,580
885.851196,613
885.967896,600
886.084717,582
886.201599,575
886.318359,618
886.435181,585
886.552002,583
886.668762,601
886.785645,589
886.902344,554
887.019165,595
887.135925,558
887.252747,554
887.369446,576
887.486267,538
887.603027,544
887.719788,538
887.836548,536
887.953247,551
888.070068,540
888.186829,506
888.303528,520
888.420288,500
888.536987,504
888.653687,486
888.770447,493
888.887146,504
889.003967,507
889.120667,483
889.237305,491
889.354065,478
889.470703,493
889.587463,467
889.704163,496
889.820862,483
889.937561,487
890.054199,461
890.170837,485
890.287598,466
890.404236,494
890.520874,478
890.637634,484
890.754211,472
890.87085,498
890.987549,488
891.104187,490
891.220886,500
891.337463,489
891.454102,493
891.57074,477
891.687378,491
891.804077,481
891.920654,477
892.037231,505
892.15387,485
892.270447,490
892.387085,507
892.503723,496
892.6203,468
892.736877,488
892.853516,473
892.970032,497
893.08667,456
893.203186,501
893.319763,474
893.43634,464
893.552917,477
893.669556,496
893.786011,459
893.902588,479
894.019165,466
894.135681,486
894.252197,506
894.368835,471
894.485291,477
894.601868,490
894.718384,492
894.8349,482
894.951355,491
895.067932,469
895.184448,475
895.300964,473
895.417419,469
895.533936,475
895.650452,475
895.766907,488
895.883423,453
895.999878,466
896.116333,486
896.232849,463
896.349304,479
896.465759,479
896.582214,478
896.698669,481
896.815125,471
896.931641,509
897.048035,494
897.164551,484
897.280884,471
897.397339,485
897.513794,483
897.630249,484
897.746582,477
897.863098,457
897.979431,476
898.095886,486
898.212341,469
898.328674,493
898.445129,481
898.561462,491
898.677795,495
898.794312,496
898.910645,466
899.026978,459
899.143433,468
899.259766,489
899.37616,484
899.492493,482
899.608765,473
899.725159,489
899.841553,478
899.957947,496
900.07428,487
900.190552,500
900.306946,462
900.423157,488
900.53949,496
900.655884,488
900.772156,470
900.888489,494
901.004822,480
901.121033,490
901.237366,499
901.353699,487
901.46991,498
901.586304,490
901.702515,499
901.818787,495
901.93512,523
902.051331,507
902.167603,536
902.283875,522
902.400085,536
902.516418,531
902.632629,532
902.74884,548
902.865112,533
902.981384,548
903.097595,557
903.213867,538
903.330017,536
903.446289,530
903.5625,534
903.67865,543
903.794922,517
903.911072,515
904.027344,512
904.143494,531
904.259705,518
904.375916,526
904.492065,502
904.608215,511
904.724426,503
904.840576,497
904.956726,497
905.072876,516
905.189087,478
905.305176,504
905.421387,480
905.537537,491
905.653687,473
905.769775,480
905.885925,490
906.002014,489
906.118164,460
906.234314,476
906.350403,458
906.466492,506
906.582642,484
906.69873,476
906.814758,471
906.930908,473
907.046936,476
907.163086,489
907.279175,444
907.395264,477
907.511353,475
907.62738,454
907.743408,468
907.859497,478
907.975525,464
908.091553,476
908.207703,478
908.32373,478
908.439758,483
908.555786,469
908.671814,481
908.787842,489
908.90387,479
909.019775,473
909.135864,485
909.251892,488
909.367859,496
909.483826,484
909.599854,477
909.715881,487
909.831848,466
909.947815,471
910.063782,482
910.179749,476
910.295776,464
910.411743,464
910.527649,479
910.643616,501
910.759583,475
910.875488,485
910.991455,450
911.107361,474
911.223267,486
911.339294,465
911.4552,489
911.571106,475
911.687073,455
911.802979,469
911.918823,472
912.034729,483
912.150635,472
912.266602,480
912.382446,486
912.498352,483
912.614197,467
912.730103,477
912.846008,465
792.44574,1171
792.56488,1141
792.68396,1220
792.80304,1130
792.92218,1110
793.041199,1035
793.160339,1037
793.279419,1000
793.398499,1016
793.517578,935
793.636658,945
793.755737,961
793.874817,917
793.993896,915
794.112976,932
794.232056,852
794.351074,890
794.470215,880
794.589233,869
794.708313,844
794.827393,825
794.946411,787
795.065552,846
795.18457,791
795.303589,804
795.422668,782
795.541687,796
795.660767,791
795.779846,772
795.898865,765
796.017883,751
796.136963,759
796.255981,742
796.375061,712
796.49408,729
796.613037,728
796.732117,681
796.851135,713
796.970154,678
797.089233,705
797.208191,697
797.327271,678
797.446228,699
797.565186,667
797.684265,684
797.803223,682
797.922241,675
798.04126,673
798.160278,684
798.279297,670
798.398315,648
798.517273,655
798.636292,672
798.75531,651
798.874268,661
798.993286,633
799.112244,675
799.231323,642
799.350281,646
799.469238,652
799.588257,657
799.707153,634
799.826111,647
799.945129,653
800.064087,650
800.183044,633
800.302063,626
800.421021,619
800.539978,640
800.658936,604
800.777893,626
800.896912,612
801.015747,636
801.134705,612
801.253723,612
801.37262,611
801.491638,615
801.610535,605
801.729492,632
801.84845,577
801.967407,616
802.086243,616
802.205261,604
802.324158,607
802.443115,619
802.562073,584
802.680969,590
802.799927,589
802.918762,606
803.037659,588
803.156677,568
803.275574,603
803.39447,564
803.513428,597
803.632263,585
803.751221,592
803.870117,559
803.989014,559
804.107971,588
804.226746,569
804.345642,589
804.4646,563
804.583496,588
804.702393,577
804.821228,578
804.940125,587
805.059021,559
805.177917,559
805.296814,579
805.415649,571
805.534546,589
805.653442,563
805.772278,571
805.891113,566
806.01001,548
806.128906,543
806.247742,576
806.366577,533
806.485413,590
806.604309,577
806.723145,568
806.84198,552
806.960876,554
807.079712,586
807.198486,573
807.317383,550
807.436218,563
807.554993,535
807.673889,574
807.792725,557
807.91156,555
808.030396,557
808.14917,557
808.268005,562
808.386841,551
808.505676,564
808.624451,551
808.743286,564
808.862122,540
808.980896,546
809.099731,544
809.218506,539
809.337341,553
809.456116,560
809.57489,531
809.693726,538
809.8125,553
809.931274,553
810.050049,566
810.168884,550
810.287659,546
810.406372,529
810.525269,561
810.643982,556
810.762756,561
810.881531,542
811.000305,554
811.11908,546
811.237854,560
811.356567,554
811.475403,549
811.594116,542
811.71283,570
811.831604,549
811.950378,539
812.069153,563
812.187927,569
812.30658,558
812.425415,570
812.544128,557
812.662781,560
812.781616,545
812.900269,570
813.019043,545
813.137756,547
813.256531,560
813.375244,557
813.493896,545
813.612671,556
813.731384,540
813.850037,564
813.96875,546
814.087524,577
814.206238,533
814.324951,529
814.443604,545
814.562256,525
814.68103,546
814.799683,533
814.918335,525
815.037109,542
815.155762,555
815.274475,533
815.393188,532
815.511841,570
815.630554,547
815.749146,538
815.867859,525
815.986572,541
816.105164,543
816.223877,547
816.342529,542
816.461182,543
816.579895,544
816.698486,558
816.817139,548
816.935791,547
817.054504,536
817.173096,560
817.291748,543
817.4104,535
817.529053,557
817.647644,555
817.766235,552
817.884949,540
818.00354,518
818.122192,532
818.240845,532
818.359436,527
818.478088,525
818.59668,546
818.715271,555
818.833923,517
818.952515,518
819.071106,516
819.189758,527
819.30835,521
819.426941,520
819.545532,501
819.664124,513
819.782715,530
819.901306,511
820.019897,526
820.138489,511
820.25708,524
820.375671,532
820.494202,520
820.612732,501
820.731384,508
820.849915,524
820.968506,543
821.087097,544
821.205627,521
821.324158,499
821.442749,521
821.561279,504
821.679871,492
821.798401,507
821.916931,521
822.035461,513
822.154053,507
822.272583,511
822.391174,528
822.509583,507
822.628174,519
822.746704,508
822.865234,523
822.983765,505
823.102295,501
823.220825,504
823.339294,498
823.457825,512
823.576355,499
823.694824,464
823.813354,534
823.931885,493
824.050354,511
824.168884,501
824.287354,511
824.405823,502
824.524353,515
824.642822,490
824.761353,486
824.879822,496
824.998291,493
825.116699,531
825.235291,515
825.353699,498
825.472168,494
825.590637,510
825.709106,489
825.827576,505
825.946045,515
826.064453,480
826.182983,507
826.301392,491
826.4198,512
826.53833,495
826.656738,518
826.775208,500
826.893677,476
827.012024,502
827.130493,493
827.248962,513
827.36731,509
827.485779,507
827.604248,491
827.722595,503
827.841064,472
827.959412,507
828.077942,489
828.196289,509
828.314636,482
828.433105,476
828.551514,508
828.669861,486
828.78833,475
828.906677,485
829.025085,491
829.143433,493
829.261841,491
829.38031,499
829.498657,497
829.617004,484
829.735413,499
829.85376,490
829.972107,498
830.090515,509
830.208862,495
830.327209,522
830.445557,487
830.563904,514
830.682312,493
830.800659,496
830.919006,509
831.037354,494
831.155701,502
831.274048,507
831.392395,509
831.51062,492
831.629028,497
831.747314,491
831.865662,496
831.984009,490
832.102356,507
832.220642,497
832.338928,517
832.457275,525
832.575623,517
832.693909,502
832.812134,502
832.930481,495
833.048828,495
833.167114,484
833.2854,487
833.403687,496
833.521973,490
833.640259,505
833.758545,515
833.876831,495
833.995056,502
834.113281,494
834.231628,511
834.349915,517
834.468201,511
834.586426,494
834.704651,490
834.822998,520
834.941162,505
835.059448,508
835.177673,508
835.295959,517
835.414246,537
835.53241,496
835.650635,487
835.768921,471
835.887146,508
836.005371,493
836.123596,508
836.241821,494
836.360046,473
836.478271,494
836.596497,497
836.714722,500
836.832886,490
836.95105,498
837.069336,497
837.1875,517
837.305725,491
837.423889,479
837.542053,507
837.660339,477
837.778503,492
837.896667,500
838.014832,505
838.132996,489
838.25116,513
838.369385,488
838.487488,497
838.605713,493
838.723877,518
838.84198,500
838.960205,527
839.078308,497
839.196472,504
839.314636,527
839.4328,511
839.550964,515
839.669067,518
839.787231,514
839.905396,518
840.023499,499
840.141602,493
840.259766,515
840.377869,530
840.495972,523
840.614136,521
840.732239,526
840.850342,556
840.968445,520
841.086548,516
841.204651,520
841.322754,552
841.440918,538
841.55896,552
841.677002,533
841.795166,569
841.913208,523
842.031311,534
842.149353,542
842.267456,551
842.385498,517
842.503601,550
842.621643,536
842.739746,542
842.857788,521
842.97583,538
843.093933,515
843.211975,545
843.330017,530
843.44812,545
843.566101,528
843.684204,530
843.802246,518
843.920227,540
844.038269,530
844.156311,532
844.274292,529
844.392395,556
844.510376,529
844.628357,538
844.74646,526
844.864441,529
844.982422,518
845.100403,536
845.218384,532
845.336426,535
845.454468,539
845.572449,537
845.69043,514
845.808411,533
845.926453,536
846.044373,516
846.162354,542
846.280396,550
846.398315,543
846.516296,532
846.634216,536
846.752197,529
846.870178,512
846.988098,554
847.106079,531
847.22406,549
847.34198,544
847.4599,548
847.577881,520
847.695801,545
847.813782,534
847.931641,542
848.049561,543
848.167603,535
848.285461,540
848.403381,512
848.521362,536
848.639221,539
848.75708,522
848.875,526
848.99292,531
849.110901,562
849.22876,539
849.34668,541
849.464539,517
849.582458,541
849.700317,537
849.818176,530
849.936096,526
850.053955,539
850.171875,539
850.289673,522
850.407593,529
850.525452,521
850.643311,547
850.761169,543
850.878967,521
850.996887,568
851.114746,516
851.232544,504
851.350403,520
851.468262,525
851.58606,542
851.703979,539
851.821777,530
851.939636,550
852.057434,518
852.175232,525
852.293091,521
852.410889,546
852.528687,546
852.646545,576
852.764343,557
852.88208,566
852.999939,535
853.117676,540
853.235535,523
853.353271,550
853.471069,544
853.588928,518
853.706604,524
853.824402,529
853.9422,525
854.059998,520
854.177734,527
854.295532,533
854.413269,501
854.531006,539
854.648804,544
854.766541,511
854.884277,547
855.002014,537
855.119751,538
855.237549,537
855.355225,555
855.473022,527
855.590698,543
855.708435,528
855.826172,543
855.943848,538
856.061646,520
856.179321,540
856.296997,533
856.414795,552
856.53241,539
856.650085,551
856.767822,565
856.885559,566
857.003174,544
857.120911,542
857.238586,537
857.356201,565
857.473938,550
857.591614,559
857.709351,557
857.826965,545
857.944641,536
858.062317,549
858.179993,548
858.297668,537
858.415283,542
858.532959,534
858.650574,550
858.768188,569
858.885803,515
859.003479,543
859.121094,541
859.23877,541
859.356384,547
859.473999,536
859.591675,555
859.709229,533
859.826843,533
859.944458,551
860.062012,527
860.179626,547
860.297302,516
860.414856,518
860.532471,514
860.650024,523
860.767639,525
860.885193,519
861.002808,517
861.120361,533
861.237976,540
861.35553,536
861.473022,527
861.590698,510
861.708191,534
861.825745,523
861.943298,499
862.060852,531
862.178406,503
862.295959,530
862.413513,503
862.531006,515
862.64856,518
862.766113,529
862.883667,510
863.00116,520
863.118713,539
863.236206,496
863.353699,510
863.471252,508
863.588745,523
863.706177,510
863.82373,506
863.941162,524
864.058716,524
864.176208,519
864.29364,499
864.411194,518
864.528687,490
864.646118,505
864.763611,496
864.881042,509
864.998535,490
865.116028,516
865.233459,496
865.350891,523
865.468384,480
865.585754,519
865.703308,508
865.820679,481
865.938171,504
866.055542,525
866.173035,505
866.290466,511
866.407837,486
866.52533,503
866.6427,492
866.760071,511
866.877563,518
866.994934,519
867.112305,518
867.229736,525
867.347107,505
867.464539,496
867.58197,498
867.699341,515
867.81665,511
867.934082,517
868.051453,501
868.168823,527
868.286194,528
868.403564,509
868.520935,518
868.638306,530
868.755676,501
868.872986,502
868.990295,518
869.107727,524
869.225037,514
869.342346,530
869.459717,536
869.577026,517
869.694336,533
869.811707,517
869.929016,555
870.046326,556
870.163635,540
870.280945,545
870.398254,533
870.515564,532
870.632812,542
870.750183,553
870.867432,552
870.984741,551
871.102051,553
871.219299,562
871.336609,550
871.453918,548
871.571106,553
871.688416,576
871.805664,549
871.922852,570
872.040222,543
872.157471,558
872.274719,566
872.391968,568
872.509155,530
872.626465,549
872.743652,537
872.860962,569
872.978149,545
873.095337,570
873.212646,523
873.329834,538
873.44696,551
873.564209,549
873.681396,549
873.798645,528
873.915894,555
874.03302,565
874.150208,537
874.267456,524
874.384583,552
874.501831,548
874.618958,553
874.736145,540
874.853333,566
874.970459,565
875.087646,574
875.204834,537
875.32196,548
875.439148,553
875.556274,530
875.673401,544
875.790527,535
875.907715,546
876.024841,537
876.141968,539
876.259094,511
876.376282,528
876.493347,534
876.610474,525
876.7276,530
876.844727,530
876.961853,512
877.078918,540
877.195984,532
877.313171,522
877.430237,520
877.547302,539
877.664368,521
877.781433,511
877.898499,526
878.015625,546
878.13269,533
878.249695,542
878.366821,530
878.483887,503
878.600952,526
878.717957,519
878.834961,522
878.952087,521
879.069092,531
879.186157,498
879.303162,502
879.420227,506
879.537231,510
879.654236,520
879.77124,506
879.888306,517
880.005249,500
880.122314,500
880.239319,494
880.356323,499
880.473328,503
880.590271,492
880.707275,516
880.824341,502
880.941284,505
881.058228,509
881.175232,494
881.292236,502
881.40918,489
881.526123,524
881.643066,488
881.760071,493
881.877014,507
881.993958,493
882.11084,501
882.227783,499
882.344727,495
882.46167,490
882.578613,485
882.695618,505
882.812439,477
882.929382,495
883.046326,529
883.163208,507
883.280151,508
883.397034,494
883.513916,515
883.630798,520
883.747742,491
883.864563,503
883.981506,487
884.098389,503
884.21521,512
884.332153,526
884.448975,514
884.565796,538
884.682678,516
884.7995,539
884.916443,553
885.033264,572
885.150085,579
885.266968,592
885.383789,591
885.500671,617
885.617493,589
885.734314,594
885.851196,606
885.967896,615
886.084717,606
886.201599,607
886.318359,568
886.435181,593
886.552002,609
886.668762,569
886.785645,588
886.902344,589
887.019165,576
887.135925,569
887.252747,570
887.369446,551
887.486267,577
887.603027,536
887.719788,552
887.836548,530
887.953247,539
888.070068,518
888.186829,516
888.303528,541
888.420288,511
888.536987,503
888.653687,497
888.770447,499
888.887146,490
889.003967,512
889.120667,462
889.237305,479
889.354065,478
889.470703,477
889.587463,496
889.704163,469
889.820862,473
889.937561,466
890.054199,475
890.170837,474
890.287598,475
890.404236,482
890.520874,485
890.637634,496
890.754211,471
890.87085,495
890.987549,464
891.104187,466
891.220886,471
891.337463,489
891.454102,477
891.57074,491
891.687378,495
891.804077,472
891.920654,484
892.037231,492
892.15387,490
892.270447,483
892.387085,474
892.503723,497
892.6203,494
892.736877,481
892.853516,480
892.970032,489
893.08667,468
893.203186,494
893.319763,484
893.43634,470
893.552917,492
893.669556,487
893.786011,492
893.902588,473
894.019165,494
894.135681,488
894.252197,484
894.368835,501
894.485291,487
894.601868,489
894.718384,469
894.8349,479
894.951355,481
895.067932,465
895.184448,473
895.300964,499
895.417419,470
895.533936,478
895.650452,462
895.766907,490
895.883423,465
895.999878,476
896.116333,475
896.232849,467
896.349304,470
896.465759,486
896.582214,465
896.698669,485
896.815125,468
896.931641,472
897.048035,474
897.164551,475
897.280884,475
897.397339,457
897.513794,475
897.630249,463
897.746582,469
897.863098,471
897.979431,485
898.095886,476
898.212341,476
898.328674,496
898.445129,483
898.561462,469
898.677795,478
898.794312,487
898.910645,489
899.026978,479
899.143433,499
899.259766,494
899.37616,474
899.492493,484
899.608765,483
899.725159,494
899.841553,475
899.957947,505
900.07428,481
900.190552,489
900.306946,477
900.423157,492
900.53949,483
900.655884,483
900.772156,499
900.888489,489
901.004822,487
901.121033,483
901.237366,469
901.353699,502
901.46991,524
901.586304,496
901.702515,490
901.818787,518
901.93512,512
902.051331,509
902.167603,490
902.283875,511
902.400085,534
902.516418,534
902.632629,522
902.74884,558
902.865112,545
902.981384,564
903.097595,553
903.213867,546
903.330017,541
903.446289,534
903.5625,524
903.67865,546
903.794922,526
903.911072,524
904.027344,527
904.143494,515
904.259705,524
904.375916,483
904.492065,505
904.608215,529
904.724426,494
904.840576,521
904.956726,490
905.072876,488
905.189087,498
905.305176,485
905.421387,488
905.537537,508
905.653687,459
905.769775,495
905.885925,472
906.002014,484
906.118164,463
906.234314,488
906.350403,472
906.466492,502
906.582642,478
906.69873,471
906.814758,469
906.930908,478
907.046936,481
907.163086,469
907.279175,484
907.395264,470
907.511353,479
907.62738,470
907.743408,459
907.859497,477
907.975525,482
908.091553,466
908.207703,495
908.32373,484
908.439758,472
908.555786,465
908.671814,473
908.787842,478
908.90387,467
909.019775,460
909.135864,478
909.251892,488
909.367859,475
909.483826,479
909.599854,459
909.715881,482
909.831848,477
909.947815,466
910.063782,488
910.179749,494
910.295776,486
910.411743,487
910.527649,467
910.643616,495
910.759583,473
910.875488,476
910.991455,475
911.107361,480
911.223267,463
911.339294,487
911.4552,462
911.571106,494
911.687073,459
911.802979,478
911.918823,465
912.034729,458
912.150635,479
912.266602,471
912.382446,462
912.498352,462
912.614197,444
912.730103,480
912.846008,479
