792.44574,660
792.56488,707
792.68396,732
792.80304,710
792.92218,668
793.041199,628
793.160339,651
793.279419,662
793.398499,653
793.517578,621
793.636658,623
793.755737,661
793.874817,636
793.993896,635
794.112976,653
794.232056,607
794.351074,627
794.470215,631
794.589233,625
794.708313,594
794.827393,624
794.946411,622
795.065552,605
795.18457,635
795.303589,602
795.422668,624
795.541687,614
795.660767,601
795.779846,601
795.898865,590
796.017883,593
796.136963,595
796.255981,578
796.375061,602
796.49408,602
796.613037,588
796.732117,603
796.851135,600
796.970154,600
797.089233,607
797.208191,577
797.327271,605
797.446228,560
797.565186,589
797.684265,588
797.803223,606
797.922241,580
798.04126,583
798.160278,596
798.279297,578
798.398315,592
798.517273,577
798.636292,604
798.75531,581
798.874268,594
798.993286,619
799.112244,569
799.231323,565
799.350281,558
799.469238,579
799.588257,595
799.707153,591
799.826111,576
799.945129,593
800.064087,567
800.183044,600
800.302063,610
800.421021,564
800.539978,575
800.658936,588
800.777893,560
800.896912,585
801.015747,594
801.134705,586
801.253723,590
801.37262,606
801.491638,592
801.610535,594
801.729492,602
801.84845,597
801.967407,589
802.086243,596
802.205261,568
802.324158,579
802.443115,608
802.562073,586
802.680969,579
802.799927,593
802.918762,579
803.037659,601
803.156677,606
803.275574,603
803.39447,607
803.513428,585
803.632263,591
803.751221,595
803.870117,612
803.989014,591
804.107971,601
804.226746,602
804.345642,593
804.4646,601
804.583496,597
804.702393,617
804.821228,574
804.940125,618
805.059021,612
805.177917,631
805.296814,604
805.415649,586
805.534546,612
805.653442,614
805.772278,599
805.891113,607
806.01001,618
806.128906,613
806.247742,618
806.366577,620
806.485413,600
806.604309,628
806.723145,615
806.84198,605
806.960876,591
807.079712,634
807.198486,589
807.317383,620
807.436218,614
807.554993,625
807.673889,632
807.792725,612
807.91156,588
808.030396,622
808.14917,593
808.268005,584
808.386841,607
808.505676,636
808.624451,630
808.743286,632
808.862122,632
808.980896,603
809.099731,627
809.218506,629
809.337341,601
809.456116,626
809.57489,622
809.693726,644
809.8125,634
809.931274,617
810.050049,646
810.168884,635
810.287659,627
810.406372,616
810.525269,614
810.643982,616
810.762756,629
810.881531,598
811.000305,634
811.11908,605
811.237854,629
811.356567,605
811.475403,629
811.594116,617
811.71283,623
811.831604,611
811.950378,639
812.069153,631
812.187927,618
812.30658,646
812.425415,651
812.544128,638
812.662781,636
812.781616,625
812.900269,624
813.019043,638
813.137756,604
813.256531,638
813.375244,627
813.493896,604
813.612671,628
813.731384,637
813.850037,633
813.96875,616
814.087524,612
814.206238,619
814.324951,611
814.443604,621
814.562256,617
814.68103,610
814.799683,617
814.918335,604
815.037109,637
815.155762,618
815.274475,618
815.393188,624
815.511841,604
815.630554,608
815.749146,611
815.867859,596
815.986572,594
816.105164,585
816.223877,601
816.342529,599
816.461182,606
816.579895,613
816.698486,600
816.817139,632
816.935791,620
817.054504,631
817.173096,611
817.291748,619
817.4104,616
817.529053,609
817.647644,583
817.766235,573
817.884949,574
818.00354,575
818.122192,553
818.240845,548
818.359436,562
818.478088,554
818.59668,538
818.715271,550
818.833923,522
818.952515,531
819.071106,535
819.189758,534
819.30835,527
819.426941,525
819.545532,526
819.664124,501
819.782715,512
819.901306,522
820.019897,507
820.138489,520
820.25708,501
820.375671,510
820.494202,461
820.612732,491
820.731384,478
820.849915,486
820.968506,484
821.087097,487
821.205627,478
821.324158,504
821.442749,503
821.561279,506
821.679871,501
821.798401,487
821.916931,488
822.035461,493
822.154053,491
822.272583,483
822.391174,498
822.509583,484
822.628174,502
822.746704,491
822.865234,477
822.983765,477
823.102295,480
823.220825,484
823.339294,465
823.457825,483
823.576355,470
823.694824,485
823.813354,466
823.931885,507
824.050354,493
824.168884,478
824.287354,473
824.405823,479
824.524353,511
824.642822,494
824.761353,482
824.879822,497
824.998291,489
825.116699,466
825.235291,492
825.353699,500
825.472168,475
825.590637,496
825.709106,478
825.827576,476
825.946045,491
826.064453,506
826.182983,468
826.301392,495
826.4198,488
826.53833,474
826.656738,482
826.775208,469
826.893677,463
827.012024,472
827.130493,464
827.248962,468
827.36731,471
827.485779,473
827.604248,472
827.722595,455
827.841064,472
827.959412,469
828.077942,471
828.196289,465
828.314636,477
828.433105,466
828.551514,475
828.669861,485
828.78833,468
828.906677,463
829.025085,463
829.143433,470
829.261841,470
829.38031,493
829.498657,447
829.617004,458
829.735413,475
829.85376,473
829.972107,449
830.090515,460
830.208862,439
830.327209,460
830.445557,461
830.563904,472
830.682312,456
830.800659,466
830.919006,469
831.037354,463
831.155701,460
831.274048,483
831.392395,456
831.51062,469
831.629028,440
831.747314,461
831.865662,449
831.984009,466
832.102356,444
832.220642,451
832.338928,462
832.457275,475
832.575623,446
832.693909,476
832.812134,448
832.930481,448
833.048828,463
833.167114,468
833.2854,461
833.403687,456
833.521973,459
833.640259,465
833.758545,471
833.876831,468
833.995056,463
834.113281,457
834.231628,476
834.349915,459
834.468201,449
834.586426,451
834.704651,467
834.822998,469
834.941162,476
835.059448,460
835.177673,436
835.295959,482
835.414246,469
835.53241,471
835.650635,467
835.768921,468
835.887146,466
836.005371,469
836.123596,471
836.241821,452
836.360046,475
836.478271,471
836.596497,465
836.714722,469
836.832886,473
836.95105,469
837.069336,479
837.1875,474
837.305725,476
837.423889,470
837.542053,480
837.660339,479
837.778503,450
837.896667,503
838.014832,480
838.132996,491
838.25116,480
838.369385,473
838.487488,487
838.605713,473
838.723877,481
838.84198,495
838.960205,473
839.078308,467
839.196472,477
839.314636,479
839.4328,473
839.550964,473
839.669067,483
839.787231,490
839.905396,483
840.023499,479
840.141602,465
840.259766,482
840.377869,465
840.495972,484
840.614136,480
840.732239,474
840.850342,480
840.968445,465
841.086548,477
841.204651,464
841.322754,472
841.440918,485
841.55896,482
841.677002,466
841.795166,445
841.913208,474
842.031311,471
842.149353,479
842.267456,460
842.385498,471
842.503601,486
842.621643,446
842.739746,436
842.857788,490
842.97583,473
843.093933,486
843.211975,468
843.330017,463
843.44812,470
843.566101,449
843.684204,466
843.802246,479
843.920227,477
844.038269,461
844.156311,466
844.274292,467
844.392395,440
844.510376,447
844.628357,439
844.74646,476
844.864441,456
844.982422,471
845.100403,459
845.218384,440
845.336426,462
845.454468,470
845.572449,455
845.69043,467
845.808411,472
845.926453,468
846.044373,437
846.162354,456
846.280396,460
846.398315,442
846.516296,461
846.634216,456
846.752197,463
846.870178,465
846.988098,450
847.106079,476
847.22406,450
847.34198,459
847.4599,442
847.577881,456
847.695801,464
847.813782,446
847.931641,451
848.049561,462
848.167603,446
848.285461,464
848.403381,473
848.521362,448
848.639221,456
848.75708,472
848.875,477
848.99292,456
849.110901,460
849.22876,431
849.34668,460
849.464539,468
849.582458,447
849.700317,465
849.818176,455
849.936096,426
850.053955,445
850.171875,467
850.289673,446
850.407593,459
850.525452,461
850.643311,437
850.761169,457
850.878967,464
850.996887,447
851.114746,454
851.232544,465
851.350403,449
851.468262,433
851.58606,445
851.703979,458
851.821777,465
851.939636,452
852.057434,470
852.175232,441
852.293091,456
852.410889,451
852.528687,467
852.646545,469
852.764343,456
852.88208,454
852.999939,450
853.117676,458
853.235535,456
853.353271,468
853.471069,449
853.588928,466
853.706604,458
853.824402,453
853.9422,464
854.059998,451
854.177734,456
854.295532,445
854.413269,473
854.531006,470
854.648804,458
854.766541,472
854.884277,443
855.002014,463
855.119751,467
855.237549,474
855.355225,452
855.473022,464
855.590698,465
855.708435,442
855.826172,462
855.943848,468
856.061646,470
856.179321,460
856.296997,436
856.414795,446
856.53241,467
856.650085,458
856.767822,476
856.885559,475
857.003174,486
857.120911,474
857.238586,450
857.356201,472
857.473938,458
857.591614,475
857.709351,470
857.826965,450
857.944641,469
858.062317,456
858.179993,460
858.297668,467
858.415283,449
858.532959,464
858.650574,472
858.768188,480
858.885803,459
859.003479,451
859.121094,444
859.23877,450
859.356384,460
859.473999,474
859.591675,463
859.709229,450
859.826843,471
859.944458,440
860.062012,485
860.179626,466
860.297302,443
860.414856,456
860.532471,468
860.650024,439
860.767639,470
860.885193,449
861.002808,464
861.120361,449
861.237976,459
861.35553,453
861.473022,458
861.590698,440
861.708191,483
861.825745,451
861.943298,466
862.060852,472
862.178406,441
862.295959,452
862.413513,446
862.531006,426
862.64856,456
862.766113,459
862.883667,445
863.00116,444
863.118713,444
863.236206,441
863.353699,467
863.471252,462
863.588745,443
863.706177,450
863.82373,445
863.941162,446
864.058716,462
864.176208,452
864.29364,466
864.411194,481
864.528687,458
864.646118,447
864.763611,447
864.881042,455
864.998535,465
865.116028,452
865.233459,468
865.350891,450
865.468384,462
865.585754,455
865.703308,461
865.820679,444
865.938171,460
866.055542,455
866.173035,440
866.290466,441
866.407837,467
866.52533,455
866.6427,463
866.760071,447
866.877563,462
866.994934,453
867.112305,454
867.229736,455
867.347107,456
867.464539,430
867.58197,457
867.699341,441
867.81665,450
867.934082,460
868.051453,471
868.168823,449
868.286194,440
868.403564,440
868.520935,470
868.638306,457
868.755676,479
868.872986,463
868.990295,450
869.107727,462
869.225037,461
869.342346,443
869.459717,464
869.577026,437
869.694336,462
869.811707,477
869.929016,464
870.046326,451
870.163635,456
870.280945,460
870.398254,465
870.515564,456
870.632812,455
870.750183,460
870.867432,458
870.984741,451
871.102051,454
871.219299,468
871.336609,459
871.453918,459
871.571106,478
871.688416,462
871.805664,456
871.922852,470
872.040222,491
872.157471,469
872.274719,462
872.391968,457
872.509155,450
872.626465,456
872.743652,469
872.860962,461
872.978149,444
873.095337,443
873.212646,474
873.329834,481
873.44696,452
873.564209,460
873.681396,454
873.798645,460
873.915894,455
874.03302,469
874.150208,450
874.267456,466
874.384583,450
874.501831,454
874.618958,458
874.736145,439
874.853333,454
874.970459,454
875.087646,456
875.204834,463
875.32196,456
875.439148,452
875.556274,465
875.673401,462
875.790527,446
875.907715,444
876.024841,453
876.141968,461
876.259094,459
876.376282,458
876.493347,455
876.610474,467
876.7276,461
876.844727,453
876.961853,470
877.078918,470
877.195984,466
877.313171,461
877.430237,466
877.547302,469
877.664368,461
877.781433,462
877.898499,460
878.015625,456
878.13269,465
878.249695,479
878.366821,458
878.483887,444
878.600952,451
878.717957,447
878.834961,449
878.952087,470
879.069092,450
879.186157,470
879.303162,457
879.420227,465
879.537231,453
879.654236,464
879.77124,451
879.888306,420
880.005249,441
880.122314,443
880.239319,463
880.356323,448
880.473328,472
880.590271,440
880.707275,439
880.824341,441
880.941284,440
881.058228,465
881.175232,451
881.292236,458
881.40918,458
881.526123,455
881.643066,452
881.760071,451
881.877014,439
881.993958,465
882.11084,456
882.227783,465
882.344727,464
882.46167,450
882.578613,468
882.695618,459
882.812439,476
882.929382,462
883.046326,449
883.163208,448
883.280151,466
883.397034,464
883.513916,460
883.630798,457
883.747742,466
883.864563,431
883.981506,470
884.098389,435
884.21521,460
884.332153,460
884.448975,440
884.565796,454
884.682678,440
884.7995,449
884.916443,445
885.033264,441
885.150085,452
885.266968,471
885.383789,447
885.500671,453
885.617493,460
885.734314,472
885.851196,462
885.967896,478
886.084717,467
886.201599,466
886.318359,473
886.435181,479
886.552002,466
886.668762,473
886.785645,461
886.902344,479
887.019165,441
887.135925,466
887.252747,441
887.369446,450
887.486267,439
887.603027,468
887.719788,476
887.836548,444
887.953247,460
888.070068,467
888.186829,467
888.303528,460
888.420288,463
888.536987,452
888.653687,474
888.770447,471
888.887146,459
889.003967,462
889.120667,452
889.237305,455
889.354065,460
889.470703,464
889.587463,465
889.704163,465
889.820862,461
889.937561,444
890.054199,443
890.170837,447
890.287598,466
890.404236,455
890.520874,429
890.637634,438
890.754211,464
890.87085,447
890.987549,461
891.104187,458
891.220886,460
891.337463,456
891.454102,469
891.57074,458
891.687378,467
891.804077,476
891.920654,461
892.037231,450
892.15387,466
892.270447,455
892.387085,453
892.503723,460
892.6203,429
892.736877,455
892.853516,475
892.970032,471
893.08667,462
893.203186,457
893.319763,463
893.43634,456
893.552917,464
893.669556,467
893.786011,468
893.902588,470
894.019165,482
894.135681,458
894.252197,464
894.368835,465
894.485291,472
894.601868,463
894.718384,485
894.8349,459
894.951355,455
895.067932,451
895.184448,445
895.300964,458
895.417419,458
895.533936,453
895.650452,446
895.766907,438
895.883423,469
895.999878,473
896.116333,455
896.232849,460
896.349304,461
896.465759,452
896.582214,460
896.698669,464
896.815125,463
896.931641,473
897.048035,466
897.164551,477
897.280884,462
897.397339,464
897.513794,467
897.630249,457
897.746582,463
897.863098,444
897.979431,466
898.095886,474
898.212341,453
898.328674,462
898.445129,470
898.561462,445
898.677795,478
898.794312,465
898.910645,455
899.026978,459
899.143433,463
899.259766,464
899.37616,460
899.492493,445
899.608765,450
899.725159,481
899.841553,440
899.957947,463
900.07428,471
900.190552,457
900.306946,471
900.423157,483
900.53949,452
900.655884,467
900.772156,455
900.888489,454
901.004822,452
901.121033,472
901.237366,464
901.353699,471
901.46991,467
901.586304,462
901.702515,459
901.818787,471
901.93512,480
902.051331,467
902.167603,463
902.283875,461
902.400085,459
902.516418,475
902.632629,457
902.74884,470
902.865112,476
902.981384,486
903.097595,478
903.213867,473
903.330017,485
903.446289,476
903.5625,468
903.67865,453
903.794922,490
903.911072,464
904.027344,461
904.143494,457
904.259705,469
904.375916,465
904.492065,459
904.608215,476
904.724426,453
904.840576,470
904.956726,468
905.072876,492
905.189087,460
905.305176,479
905.421387,457
905.537537,460
905.653687,464
905.769775,451
905.885925,487
906.002014,457
906.118164,441
906.234314,451
906.350403,479
906.466492,461
906.582642,473
906.69873,471
906.814758,464
906.930908,452
907.046936,460
907.163086,476
907.279175,476
907.395264,478
907.511353,460
907.62738,488
907.743408,455
907.859497,482
907.975525,467
908.091553,453
908.207703,468
908.32373,466
908.439758,476
908.555786,463
908.671814,475
908.787842,474
908.90387,477
909.019775,457
909.135864,479
909.251892,460
909.367859,451
909.483826,463
909.599854,461
909.715881,481
909.831848,453
909.947815,473
910.063782,470
910.179749,458
910.295776,476
910.411743,460
910.527649,457
910.643616,488
910.759583,474
910.875488,459
910.991455,475
911.107361,447
911.223267,462
911.339294,490
911.4552,459
911.571106,461
911.687073,466
911.802979,471
911.918823,469
912.034729,455
912.150635,468
912.266602,439
912.382446,467
912.498352,465
912.614197,463
912.730103,462
912.846008,469
792.44574,662
792.56488,686
792.68396,729
792.80304,685
792.92218,664
793.041199,629
793.160339,642
793.279419,659
793.398499,623
793.517578,638
793.636658,620
793.755737,660
793.874817,638
793.993896,636
794.112976,641
794.232056,615
794.351074,631
794.470215,623
794.589233,607
794.708313,628
794.827393,583
794.946411,605
795.065552,619
795.18457,630
795.303589,623
795.422668,625
795.541687,611
795.660767,600
795.779846,590
795.898865,626
796.017883,588
796.136963,598
796.255981,607
796.375061,568
796.49408,631
796.613037,591
796.732117,609
796.851135,615
796.970154,600
797.089233,615
797.208191,594
797.327271,602
797.446228,587
797.565186,576
797.684265,589
797.803223,582
797.922241,596
798.04126,597
798.160278,558
798.279297,591
798.398315,608
798.517273,608
798.636292,580
798.75531,562
798.874268,597
798.993286,599
799.112244,592
799.231323,585
799.350281,602
799.469238,599
799.588257,562
799.707153,584
799.826111,584
799.945129,590
800.064087,582
800.183044,603
800.302063,615
800.421021,593
800.539978,591
800.658936,596
800.777893,607
800.896912,592
801.015747,579
801.134705,578
801.253723,594
801.37262,592
801.491638,593
801.610535,579
801.729492,595
801.84845,581
801.967407,592
802.086243,605
802.205261,593
802.324158,600
802.443115,579
802.562073,594
802.680969,601
802.799927,605
802.918762,603
803.037659,589
803.156677,600
803.275574,616
803.39447,595
803.513428,620
803.632263,595
803.751221,596
803.870117,613
803.989014,614
804.107971,600
804.226746,607
804.345642,597
804.4646,590
804.583496,595
804.702393,613
804.821228,582
804.940125,625
805.059021,593
805.177917,609
805.296814,578
805.415649,620
805.534546,580
805.653442,603
805.772278,637
805.891113,602
806.01001,601
806.128906,629
806.247742,605
806.366577,577
806.485413,606
806.604309,597
806.723145,601
806.84198,640
806.960876,606
807.079712,607
807.198486,612
807.317383,616
807.436218,598
807.554993,635
807.673889,609
807.792725,652
807.91156,616
808.030396,620
808.14917,607
808.268005,607
808.386841,615
808.505676,626
808.624451,594
808.743286,605
808.862122,621
808.980896,620
809.099731,617
809.218506,613
809.337341,623
809.456116,637
809.57489,628
809.693726,615
809.8125,620
809.931274,614
810.050049,636
810.168884,635
810.287659,605
810.406372,630
810.525269,635
810.643982,635
810.762756,635
810.881531,617
811.000305,639
811.11908,625
811.237854,645
811.356567,625
811.475403,612
811.594116,617
811.71283,619
811.831604,616
811.950378,637
812.069153,628
812.187927,611
812.30658,639
812.425415,653
812.544128,642
812.662781,626
812.781616,644
812.900269,633
813.019043,630
813.137756,642
813.256531,625
813.375244,654
813.493896,649
813.612671,638
813.731384,640
813.850037,624
813.96875,649
814.087524,630
814.206238,636
814.324951,637
814.443604,603
814.562256,620
814.68103,625
814.799683,616
814.918335,626
815.037109,636
815.155762,619
815.274475,613
815.393188,618
815.511841,627
815.630554,622
815.749146,626
815.867859,597
815.986572,592
816.105164,624
816.223877,596
816.342529,619
816.461182,623
816.579895,611
816.698486,621
816.817139,594
816.935791,609
817.054504,631
817.173096,614
817.291748,615
817.4104,617
817.529053,626
817.647644,620
817.766235,579
817.884949,574
818.00354,581
818.122192,566
818.240845,570
818.359436,566
818.478088,564
818.59668,520
818.715271,526
818.833923,548
818.952515,546
819.071106,532
819.189758,551
819.30835,515
819.426941,530
819.545532,501
819.664124,492
819.782715,534
819.901306,495
820.019897,495
820.138489,493
820.25708,510
820.375671,489
820.494202,511
820.612732,512
820.731384,489
820.849915,487
820.968506,515
821.087097,493
821.205627,491
821.324158,492
821.442749,498
821.561279,493
821.679871,481
821.798401,486
821.916931,490
822.035461,467
822.154053,492
822.272583,508
822.391174,496
822.509583,471
822.628174,485
822.746704,479
822.865234,490
822.983765,473
823.102295,466
823.220825,474
823.339294,489
823.457825,485
823.576355,482
823.694824,521
823.813354,497
823.931885,474
824.050354,486
824.168884,502
824.287354,498
824.405823,494
824.524353,495
824.642822,489
824.761353,502
824.879822,492
824.998291,500
825.116699,478
825.235291,507
825.353699,511
825.472168,496
825.590637,494
825.709106,488
825.827576,473
825.946045,467
826.064453,480
826.182983,479
826.301392,487
826.4198,471
826.53833,479
826.656738,456
826.775208,471
826.893677,484
827.012024,463
827.130493,475
827.248962,466
827.36731,458
827.485779,471
827.604248,472
827.722595,473
827.841064,463
827.959412,457
828.077942,463
828.196289,465
828.314636,459
828.433105,462
828.551514,460
828.669861,475
828.78833,478
828.906677,453
829.025085,459
829.143433,468
829.261841,454
829.38031,472
829.498657,466
829.617004,453
829.735413,479
829.85376,478
829.972107,447
830.090515,464
830.208862,455
830.327209,474
830.445557,448
830.563904,461
830.682312,465
830.800659,464
830.919006,465
831.037354,463
831.155701,460
831.274048,453
831.392395,462
831.51062,473
831.629028,451
831.747314,455
831.865662,464
831.984009,466
832.102356,480
832.220642,461
832.338928,458
832.457275,485
832.575623,444
832.693909,460
832.812134,452
832.930481,462
833.048828,464
833.167114,459
833.2854,463
833.403687,480
833.521973,465
833.640259,466
833.758545,468
833.876831,472
833.995056,454
834.113281,475
834.231628,482
834.349915,466
834.468201,456
834.586426,468
834.704651,462
834.822998,489
834.941162,472
835.059448,476
835.177673,478
835.295959,465
835.414246,472
835.53241,456
835.650635,470
835.768921,476
835.887146,468
836.005371,475
836.123596,467
836.241821,454
836.360046,464
836.478271,483
836.596497,467
836.714722,474
836.832886,460
836.95105,476
837.069336,466
837.1875,475
837.305725,496
837.423889,479
837.542053,471
837.660339,464
837.778503,481
837.896667,482
838.014832,472
838.132996,492
838.25116,493
838.369385,488
838.487488,499
838.605713,471
838.723877,483
838.84198,491
838.960205,463
839.078308,468
839.196472,468
839.314636,483
839.4328,470
839.550964,504
839.669067,465
839.787231,472
839.905396,482
840.023499,477
840.141602,479
840.259766,461
840.377869,463
840.495972,484
840.614136,477
840.732239,467
840.850342,471
840.968445,465
841.086548,477
841.204651,477
841.322754,475
841.440918,462
841.55896,461
841.677002,464
841.795166,478
841.913208,467
842.031311,461
842.149353,476
842.267456,458
842.385498,469
842.503601,451
842.621643,462
842.739746,465
842.857788,462
842.97583,451
843.093933,463
843.211975,448
843.330017,465
843.44812,461
843.566101,471
843.684204,458
843.802246,463
843.920227,474
844.038269,463
844.156311,448
844.274292,476
844.392395,449
844.510376,455
844.628357,444
844.74646,480
844.864441,463
844.982422,441
845.100403,452
845.218384,430
845.336426,459
845.454468,447
845.572449,464
845.69043,459
845.808411,463
845.926453,465
846.044373,435
846.162354,446
846.280396,451
846.398315,460
846.516296,452
846.634216,457
846.752197,452
846.870178,461
846.988098,440
847.106079,468
847.22406,458
847.34198,449
847.4599,454
847.577881,455
847.695801,451
847.813782,470
847.931641,452
848.049561,465
848.167603,460
848.285461,455
848.403381,460
848.521362,460
848.639221,472
848.75708,448
848.875,459
848.99292,441
849.110901,452
849.22876,433
849.34668,478
849.464539,460
849.582458,450
849.700317,445
849.818176,464
849.936096,444
850.053955,462
850.171875,459
850.289673,449
850.407593,461
850.525452,461
850.643311,453
850.761169,441
850.878967,456
850.996887,452
851.114746,467
851.232544,452
851.350403,449
851.468262,440
851.58606,443
851.703979,460
851.821777,458
851.939636,470
852.057434,459
852.175232,431
852.293091,461
852.410889,463
852.528687,466
852.646545,451
852.764343,452
852.88208,448
852.999939,477
853.117676,459
853.235535,467
853.353271,467
853.471069,478
853.588928,454
853.706604,473
853.824402,448
853.9422,457
854.059998,462
854.177734,467
854.295532,458
854.413269,469
854.531006,467
854.648804,457
854.766541,454
854.884277,450
855.002014,457
855.119751,468
855.237549,471
855.355225,477
855.473022,457
855.590698,464
855.708435,448
855.826172,484
855.943848,456
856.061646,471
856.179321,454
856.296997,458
856.414795,445
856.53241,450
856.650085,457
856.767822,474
856.885559,464
857.003174,460
857.120911,476
857.238586,459
857.356201,478
857.473938,451
857.591614,460
857.709351,471
857.826965,451
857.944641,454
858.062317,470
858.179993,439
858.297668,478
858.415283,468
858.532959,445
858.650574,462
858.768188,456
858.885803,468
859.003479,462
859.121094,491
859.23877,469
859.356384,470
859.473999,465
859.591675,464
859.709229,461
859.826843,466
859.944458,467
860.062012,455
860.179626,462
860.297302,451
860.414856,441
860.532471,468
860.650024,452
860.767639,441
860.885193,459
861.002808,441
861.120361,459
861.237976,478
861.35553,462
861.473022,454
861.590698,453
861.708191,464
861.825745,452
861.943298,454
862.060852,448
862.178406,457
862.295959,463
862.413513,475
862.531006,467
862.64856,458
862.766113,446
862.883667,476
863.00116,456
863.118713,434
863.236206,477
863.353699,454
863.471252,449
863.588745,468
863.706177,448
863.82373,450
863.941162,459
864.058716,451
864.176208,451
864.29364,465
864.411194,454
864.528687,462
864.646118,455
864.763611,464
864.881042,452
864.998535,449
865.116028,457
865.233459,449
865.350891,457
865.468384,470
865.585754,454
865.703308,464
865.820679,462
865.938171,474
866.055542,448
866.173035,452
866.290466,451
866.407837,457
866.52533,464
866.6427,455
866.760071,469
866.877563,473
866.994934,465
867.112305,482
867.229736,434
867.347107,470
867.464539,462
867.58197,464
867.699341,455
867.81665,476
867.934082,470
868.051453,443
868.168823,451
868.286194,470
868.403564,454
868.520935,450
868.638306,447
868.755676,478
868.872986,475
868.990295,467
869.107727,455
869.225037,456
869.342346,466
869.459717,490
869.577026,474
869.694336,454
869.811707,451
869.929016,486
870.046326,454
870.163635,464
870.280945,481
870.398254,444
870.515564,472
870.632812,464
870.750183,463
870.867432,464
870.984741,447
871.102051,436
871.219299,454
871.336609,450
871.453918,475
871.571106,464
871.688416,461
871.805664,462
871.922852,474
872.040222,466
872.157471,467
872.274719,449
872.391968,463
872.509155,482
872.626465,453
872.743652,458
872.860962,469
872.978149,472
873.095337,458
873.212646,448
873.329834,443
873.44696,450
873.564209,463
873.681396,464
873.798645,471
873.915894,463
874.03302,450
874.150208,460
874.267456,463
874.384583,465
874.501831,452
874.618958,467
874.736145,469
874.853333,457
874.970459,471
875.087646,458
875.204834,456
875.32196,461
875.439148,471
875.556274,454
875.673401,474
875.790527,451
875.907715,467
876.024841,463
876.141968,455
876.259094,465
876.376282,456
876.493347,465
876.610474,476
876.7276,457
876.844727,444
876.961853,461
877.078918,468
877.195984,466
877.313171,465
877.430237,442
877.547302,469
877.664368,475
877.781433,452
877.898499,469
878.015625,456
878.13269,464
878.249695,477
878.366821,458
878.483887,458
878.600952,456
878.717957,446
878.834961,459
878.952087,447
879.069092,455
879.186157,453
879.303162,453
879.420227,458
879.537231,457
879.654236,456
879.77124,466
879.888306,463
880.005249,444
880.122314,471
880.239319,477
880.356323,464
880.473328,467
880.590271,465
880.707275,458
880.824341,444
880.941284,456
881.058228,447
881.175232,466
881.292236,448
881.40918,462
881.526123,446
881.643066,451
881.760071,476
881.877014,450
881.993958,460
882.11084,465
882.227783,431
882.344727,472
882.46167,453
882.578613,455
882.695618,452
882.812439,463
882.929382,462
883.046326,464
883.163208,454
883.280151,432
883.397034,464
883.513916,464
883.630798,450
883.747742,469
883.864563,464
883.981506,468
884.098389,469
884.21521,478
884.332153,459
884.448975,462
884.565796,478
884.682678,495
884.7995,473
884.916443,454
885.033264,477
885.150085,466
885.266968,454
885.383789,473
885.500671,446
885.617493,468
885.734314,458
885.851196,478
885.967896,490
886.084717,452
886.201599,474
886.318359,482
886.435181,480
886.552002,480
886.668762,467
886.785645,488
886.902344,463
887.019165,463
887.135925,496
887.252747,461
887.369446,459
887.486267,468
887.603027,462
887.719788,468
887.836548,455
887.953247,459
888.070068,451
888.186829,473
888.303528,449
888.420288,471
888.536987,436
888.653687,474
888.770447,465
888.887146,466
889.003967,456
889.120667,465
889.237305,452
889.354065,474
889.470703,464
889.587463,445
889.704163,470
889.820862,462
889.937561,479
890.054199,450
890.170837,447
890.287598,466
890.404236,453
890.520874,452
890.637634,466
890.754211,461
890.87085,462
890.987549,473
891.104187,453
891.220886,465
891.337463,464
891.454102,477
891.57074,466
891.687378,464
891.804077,465
891.920654,472
892.037231,464
892.15387,464
892.270447,444
892.387085,467
892.503723,474
892.6203,466
892.736877,473
892.853516,464
892.970032,459
893.08667,449
893.203186,459
893.319763,457
893.43634,455
893.552917,477
893.669556,466
893.786011,463
893.902588,463
894.019165,462
894.135681,473
894.252197,465
894.368835,462
894.485291,456
894.601868,451
894.718384,469
894.8349,459
894.951355,454
895.067932,458
895.184448,458
895.300964,469
895.417419,473
895.533936,459
895.650452,453
895.766907,466
895.883423,490
895.999878,476
896.116333,446
896.232849,452
896.349304,475
896.465759,452
896.582214,463
896.698669,480
896.815125,450
896.931641,473
897.048035,455
897.164551,455
897.280884,471
897.397339,453
897.513794,467
897.630249,472
897.746582,468
897.863098,439
897.979431,462
898.095886,457
898.212341,459
898.328674,472
898.445129,473
898.561462,446
898.677795,479
898.794312,452
898.910645,453
899.026978,470
899.143433,480
899.259766,469
899.37616,499
899.492493,475
899.608765,468
899.725159,455
899.841553,469
899.957947,465
900.07428,472
900.190552,472
900.306946,485
900.423157,476
900.53949,463
900.655884,466
900.772156,470
900.888489,451
901.004822,497
901.121033,475
901.237366,468
901.353699,477
901.46991,458
901.586304,472
901.702515,493
901.818787,450
901.93512,463
902.051331,479
902.167603,478
902.283875,468
902.400085,482
902.516418,472
902.632629,484
902.74884,469
902.865112,476
902.981384,456
903.097595,490
903.213867,484
903.330017,502
903.446289,473
903.5625,495
903.67865,484
903.794922,470
903.911072,482
904.027344,481
904.143494,481
904.259705,469
904.375916,457
904.492065,456
904.608215,466
904.724426,469
904.840576,469
904.956726,497
905.072876,457
905.189087,457
905.305176,466
905.421387,493
905.537537,454
905.653687,481
905.769775,454
905.885925,455
906.002014,466
906.118164,463
906.234314,468
906.350403,472
906.466492,481
906.582642,476
906.69873,469
906.814758,461
906.930908,458
907.046936,449
907.163086,468
907.279175,466
907.395264,453
907.511353,483
907.62738,471
907.743408,477
907.859497,481
907.975525,461
908.091553,472
908.207703,473
908.32373,465
908.439758,467
908.555786,471
908.671814,480
908.787842,462
908.90387,467
909.019775,468
909.135864,479
909.251892,463
909.367859,475
909.483826,484
909.599854,464
909.715881,493
909.831848,478
909.947815,457
910.063782,475
910.179749,475
910.295776,474
910.411743,467
910.527649,456
910.643616,464
910.759583,479
910.875488,457
910.991455,456
911.107361,458
911.223267,479
911.339294,483
911.4552,470
911.571106,496
911.687073,464
911.802979,480
911.918823,456
912.034729,463
912.150635,463
912.266602,463
912.382446,468
912.498352,434
912.614197,458
912.730103,481
912.846008,459
792.44574,662
792.56488,693
792.68396,723
792.80304,709
792.92218,655
793.041199,635
793.160339,637
793.279419,649
793.398499,638
793.517578,650
793.636658,619
793.755737,623
793.874817,650
793.993896,654
794.112976,608
794.232056,638
794.351074,614
794.470215,635
794.589233,628
794.708313,625
794.827393,645
794.946411,625
795.065552,630
795.18457,625
795.303589,622
795.422668,620
795.541687,628
795.660767,594
795.779846,615
795.898865,607
796.017883,592
796.136963,614
796.255981,606
796.375061,599
796.49408,593
796.613037,593
796.732117,599
796.851135,605
796.970154,584
797.089233,589
797.208191,605
797.327271,578
797.446228,587
797.565186,593
797.684265,584
797.803223,580
797.922241,594
798.04126,588
798.160278,573
798.279297,596
798.398315,589
798.517273,592
798.636292,579
798.75531,605
798.874268,574
798.993286,596
799.112244,602
799.231323,577
799.350281,582
799.469238,600
799.588257,580
799.707153,604
799.826111,590
799.945129,588
800.064087,587
800.183044,556
800.302063,585
800.421021,572
800.539978,605
800.658936,596
800.777893,581
800.896912,598
801.015747,593
801.134705,572
801.253723,610
801.37262,589
801.491638,576
801.610535,599
801.729492,610
801.84845,592
801.967407,581
802.086243,580
802.205261,585
802.324158,599
802.443115,596
802.562073,613
802.680969,599
802.799927,605
802.918762,584
803.037659,585
803.156677,601
803.275574,613
803.39447,608
803.513428,613
803.632263,582
803.751221,601
803.870117,610
803.989014,605
804.107971,631
804.226746,593
804.345642,613
804.4646,615
804.583496,613
804.702393,620
804.821228,601
804.940125,594
805.059021,600
805.177917,624
805.296814,609
805.415649,629
805.534546,600
805.653442,586
805.772278,619
805.891113,623
806.01001,610
806.128906,626
806.247742,623
806.366577,596
806.485413,600
806.604309,621
806.723145,627
806.84198,611
806.960876,626
807.079712,625
807.198486,616
807.317383,620
807.436218,616
807.554993,593
807.673889,617
807.792725,599
807.91156,624
808.030396,621
808.14917,622
808.268005,620
808.386841,617
808.505676,618
808.624451,632
808.743286,613
808.862122,630
808.980896,613
809.099731,634
809.218506,610
809.337341,632
809.456116,629
809.57489,626
809.693726,648
809.8125,631
809.931274,611
810.050049,636
810.168884,625
810.287659,631
810.406372,650
810.525269,632
810.643982,638
810.762756,632
810.881531,638
811.000305,625
811.11908,652
811.237854,629
811.356567,620
811.475403,624
811.594116,623
811.71283,656
811.831604,628
811.950378,632
812.069153,611
812.187927,630
812.30658,621
812.425415,608
812.544128,625
812.662781,648
812.781616,649
812.900269,661
813.019043,610
813.137756,633
813.256531,623
813.375244,629
813.493896,616
813.612671,650
813.731384,650
813.850037,627
813.96875,627
814.087524,623
814.206238,633
814.324951,615
814.443604,643
814.562256,641
814.68103,582
814.799683,617
814.918335,629
815.037109,612
815.155762,608
815.274475,624
815.393188,612
815.511841,621
815.630554,616
815.749146,606
815.867859,601
815.986572,612
816.105164,615
816.223877,606
816.342529,620
816.461182,621
816.579895,647
816.698486,634
816.817139,628
816.935791,604
817.054504,617
817.173096,614
817.291748,601
817.4104,605
817.529053,608
817.647644,595
817.766235,586
817.884949,584
818.00354,587
818.122192,569
818.240845,549
818.359436,548
818.478088,558
818.59668,547
818.715271,570
818.833923,532
818.952515,535
819.071106,516
819.189758,520
819.30835,518
819.426941,516
819.545532,500
819.664124,511
819.782715,512
819.901306,500
820.019897,511
820.138489,502
820.25708,527
820.375671,501
820.494202,514
820.612732,493
820.731384,481
820.849915,478
820.968506,499
821.087097,497
821.205627,502
821.324158,483
821.442749,501
821.561279,477
821.679871,497
821.798401,491
821.916931,487
822.035461,505
822.154053,499
822.272583,484
822.391174,482
822.509583,491
822.628174,480
822.746704,488
822.865234,487
822.983765,488
823.102295,480
823.220825,481
823.339294,511
823.457825,471
823.576355,501
823.694824,472
823.813354,504
823.931885,491
824.050354,507
824.168884,474
824.287354,471
824.405823,489
824.524353,502
824.642822,507
824.761353,491
824.879822,491
824.998291,483
825.116699,480
825.235291,484
825.353699,475
825.472168,488
825.590637,472
825.709106,510
825.827576,461
825.946045,490
826.064453,475
826.182983,495
826.301392,482
826.4198,485
826.53833,481
826.656738,481
826.775208,473
826.893677,486
827.012024,467
827.130493,473
827.248962,456
827.36731,465
827.485779,467
827.604248,486
827.722595,473
827.841064,470
827.959412,463
828.077942,463
828.196289,473
828.314636,468
828.433105,475
828.551514,451
828.669861,463
828.78833,471
828.906677,470
829.025085,474
829.143433,469
829.261841,483
829.38031,472
829.498657,483
829.617004,464
829.735413,466
829.85376,478
829.972107,482
830.090515,468
830.208862,474
830.327209,446
830.445557,457
830.563904,467
830.682312,455
830.800659,474
830.919006,481
831.037354,452
831.155701,460
831.274048,455
831.392395,468
831.51062,463
831.629028,454
831.747314,458
831.865662,472
831.984009,465
832.102356,449
832.220642,476
832.338928,446
832.457275,463
832.575623,469
832.693909,466
832.812134,481
832.930481,446
833.048828,474
833.167114,457
833.2854,461
833.403687,472
833.521973,471
833.640259,446
833.758545,460
833.876831,461
833.995056,480
834.113281,470
834.231628,456
834.349915,467
834.468201,456
834.586426,461
834.704651,464
834.822998,483
834.941162,465
835.059448,483
835.177673,467
835.295959,472
835.414246,475
835.53241,470
835.650635,452
835.768921,462
835.887146,475
836.005371,474
836.123596,471
836.241821,474
836.360046,479
836.478271,467
836.596497,488
836.714722,473
836.832886,496
836.95105,468
837.069336,448
837.1875,493
837.305725,488
837.423889,463
837.542053,493
837.660339,476
837.778503,466
837.896667,468
838.014832,482
838.132996,472
838.25116,477
838.369385,471
838.487488,490
838.605713,447
838.723877,483
838.84198,480
838.960205,491
839.078308,462
839.196472,465
839.314636,476
839.4328,469
839.550964,480
839.669067,469
839.787231,467
839.905396,491
840.023499,480
840.141602,472
840.259766,468
840.377869,491
840.495972,466
840.614136,490
840.732239,475
840.850342,484
840.968445,454
841.086548,474
841.204651,472
841.322754,479
841.440918,457
841.55896,459
841.677002,460
841.795166,485
841.913208,449
842.031311,468
842.149353,460
842.267456,473
842.385498,464
842.503601,462
842.621643,456
842.739746,459
842.857788,476
842.97583,462
843.093933,467
843.211975,461
843.330017,457
843.44812,472
843.566101,477
843.684204,454
843.802246,451
843.920227,464
844.038269,474
844.156311,449
844.274292,452
844.392395,456
844.510376,456
844.628357,444
844.74646,479
844.864441,456
844.982422,468
845.100403,457
845.218384,472
845.336426,467
845.454468,447
845.572449,473
845.69043,455
845.808411,461
845.926453,489
846.044373,447
846.162354,466
846.280396,463
846.398315,453
846.516296,479
846.634216,459
846.752197,450
846.870178,443
846.988098,471
847.106079,452
847.22406,466
847.34198,471
847.4599,440
847.577881,464
847.695801,451
847.813782,450
847.931641,448
848.049561,450
848.167603,476
848.285461,447
848.403381,465
848.521362,445
848.639221,464
848.75708,459
848.875,448
848.99292,446
849.110901,454
849.22876,453
849.34668,458
849.464539,458
849.582458,455
849.700317,464
849.818176,455
849.936096,459
850.053955,458
850.171875,444
850.289673,466
850.407593,454
850.525452,443
850.643311,453
850.761169,455
850.878967,454
850.996887,467
851.114746,447
851.232544,449
851.350403,443
851.468262,449
851.58606,453
851.703979,463
851.821777,452
851.939636,444
852.057434,432
852.175232,457
852.293091,457
852.410889,450
852.528687,460
852.646545,463
852.764343,459
852.88208,475
852.999939,444
853.117676,465
853.235535,461
853.353271,471
853.471069,454
853.588928,452
853.706604,438
853.824402,487
853.9422,446
854.059998,457
854.177734,450
854.295532,449
854.413269,446
854.531006,467
854.648804,458
854.766541,475
854.884277,485
855.002014,466
855.119751,453
855.237549,471
855.355225,469
855.473022,453
855.590698,454
855.708435,471
855.826172,459
855.943848,475
856.061646,454
856.179321,461
856.296997,465
856.414795,476
856.53241,448
856.650085,480
856.767822,469
856.885559,478
857.003174,468
857.120911,451
857.238586,475
857.356201,474
857.473938,481
857.591614,460
857.709351,476
857.826965,465
857.944641,478
858.062317,471
858.179993,487
858.297668,465
858.415283,455
858.532959,465
858.650574,467
858.768188,462
858.885803,476
859.003479,475
859.121094,458
859.23877,461
859.356384,462
859.473999,465
859.591675,449
859.709229,469
859.826843,460
859.944458,473
860.062012,473
860.179626,480
860.297302,461
860.414856,469
860.532471,459
860.650024,469
860.767639,448
860.885193,444
861.002808,458
861.120361,467
861.237976,454
861.35553,449
861.473022,465
861.590698,462
861.708191,463
861.825745,455
861.943298,467
862.060852,438
862.178406,468
862.295959,478
862.413513,476
862.531006,440
862.64856,471
862.766113,447
862.883667,467
863.00116,453
863.118713,467
863.236206,461
863.353699,433
863.471252,455
863.588745,444
863.706177,468
863.82373,463
863.941162,469
864.058716,443
864.176208,461
864.29364,456
864.411194,463
864.528687,442
864.646118,467
864.763611,456
864.881042,464
864.998535,473
865.116028,457
865.233459,452
865.350891,454
865.468384,459
865.585754,445
865.703308,476
865.820679,452
865.938171,463
866.055542,453
866.173035,460
866.290466,463
866.407837,448
866.52533,466
866.6427,464
866.760071,464
866.877563,452
866.994934,465
867.112305,435
867.229736,452
867.347107,457
867.464539,474
867.58197,474
867.699341,481
867.81665,453
867.934082,482
868.051453,457
868.168823,475
868.286194,468
868.403564,466
868.520935,447
868.638306,470
868.755676,485
868.872986,451
868.990295,472
869.107727,459
869.225037,468
869.342346,472
869.459717,466
869.577026,468
869.694336,462
869.811707,447
869.929016,464
870.046326,477
870.163635,446
870.280945,467
870.398254,478
870.515564,453
870.632812,464
870.750183,465
870.867432,461
870.984741,449
871.102051,445
871.219299,457
871.336609,455
871.453918,470
871.571106,456
871.688416,482
871.805664,455
871.922852,444
872.040222,469
872.157471,459
872.274719,461
872.391968,478
872.509155,450
872.626465,454
872.743652,460
872.860962,451
872.978149,471
873.095337,479
873.212646,466
873.329834,451
873.44696,472
873.564209,459
873.681396,444
873.798645,447
873.915894,470
874.03302,465
874.150208,472
874.267456,469
874.384583,454
874.501831,448
874.618958,455
874.736145,460
874.853333,468
874.970459,457
875.087646,455
875.204834,468
875.32196,462
875.439148,480
875.556274,467
875.673401,462
875.790527,460
875.907715,454
876.024841,448
876.141968,474
876.259094,479
876.376282,457
876.493347,472
876.610474,468
876.7276,451
876.844727,463
876.961853,454
877.078918,468
877.195984,455
877.313171,478
877.430237,463
877.547302,464
877.664368,457
877.781433,475
877.898499,464
878.015625,462
878.13269,464
878.249695,465
878.366821,454
878.483887,460
878.600952,452
878.717957,469
878.834961,446
878.952087,453
879.069092,445
879.186157,476
879.303162,444
879.420227,451
879.537231,447
879.654236,463
879.77124,462
879.888306,452
880.005249,456
880.122314,464
880.239319,460
880.356323,446
880.473328,477
880.590271,476
880.707275,457
880.824341,474
880.941284,440
881.058228,447
881.175232,454
881.292236,478
881.40918,459
881.526123,447
881.643066,470
881.760071,484
881.877014,444
881.993958,481
882.11084,448
882.227783,450
882.344727,466
882.46167,467
882.578613,470
882.695618,476
882.812439,462
882.929382,459
883.046326,460
883.163208,463
883.280151,461
883.397034,470
883.513916,455
883.630798,449
883.747742,468
883.864563,455
883.981506,456
884.098389,467
884.21521,472
884.332153,460
884.448975,477
884.565796,456
884.682678,453
884.7995,452
884.916443,487
885.033264,455
885.150085,455
885.266968,461
885.383789,482
885.500671,477
885.617493,478
885.734314,478
885.851196,466
885.967896,461
886.084717,466
886.201599,472
886.318359,453
886.435181,472
886.552002,472
886.668762,473
886.785645,463
886.902344,482
887.019165,470
887.135925,461
887.252747,476
887.369446,458
887.486267,461
887.603027,464
887.719788,468
887.836548,474
887.953247,464
888.070068,468
888.186829,459
888.303528,466
888.420288,469
888.536987,446
888.653687,467
888.770447,476
888.887146,461
889.003967,455
889.120667,463
889.237305,459
889.354065,465
889.470703,464
889.587463,442
889.704163,477
889.820862,458
889.937561,489
890.054199,439
890.170837,461
890.287598,462
890.404236,465
890.520874,452
890.637634,463
890.754211,461
890.87085,455
890.987549,471
891.104187,469
891.220886,456
891.337463,462
891.454102,465
891.57074,460
891.687378,470
891.804077,464
891.920654,432
892.037231,481
892.15387,465
892.270447,468
892.387085,456
892.503723,467
892.6203,456
892.736877,461
892.853516,460
892.970032,452
893.08667,470
893.203186,460
893.319763,476
893.43634,466
893.552917,478
893.669556,452
893.786011,444
893.902588,469
894.019165,473
894.135681,471
894.252197,478
894.368835,474
894.485291,460
894.601868,448
894.718384,466
894.8349,450
894.951355,452
895.067932,494
895.184448,459
895.300964,482
895.417419,456
895.533936,463
895.650452,450
895.766907,466
895.883423,458
895.999878,473
896.116333,464
896.232849,462
896.349304,464
896.465759,471
896.582214,458
896.698669,481
896.815125,455
896.931641,464
897.048035,442
897.164551,463
897.280884,457
897.397339,459
897.513794,469
897.630249,473
897.746582,465
897.863098,449
897.979431,457
898.095886,468
898.212341,448
898.328674,477
898.445129,479
898.561462,452
898.677795,463
898.794312,474
898.910645,477
899.026978,484
899.143433,476
899.259766,454
899.37616,467
899.492493,473
899.608765,458
899.725159,482
899.841553,458
899.957947,459
900.07428,460
900.190552,481
900.306946,476
900.423157,472
900.53949,466
900.655884,459
900.772156,484
900.888489,484
901.004822,468
901.121033,462
901.237366,450
901.353699,454
901.46991,466
901.586304,480
901.702515,454
901.818787,472
901.93512,452
902.051331,495
902.167603,471
902.283875,468
902.400085,459
902.516418,454
902.632629,479
902.74884,479
902.865112,482
902.981384,477
903.097595,491
903.213867,475
903.330017,480
903.446289,497
903.5625,473
903.67865,480
903.794922,488
903.911072,489
904.027344,459
904.143494,488
904.259705,470
904.375916,473
904.492065,471
904.608215,457
904.724426,484
904.840576,464
904.956726,475
905.072876,486
905.189087,458
905.305176,488
905.421387,458
905.537537,485
905.653687,459
905.769775,458
905.885925,459
906.002014,478
906.118164,468
906.234314,473
906.350403,469
906.466492,478
906.582642,464
906.69873,478
906.814758,481
906.930908,471
907.046936,476
907.163086,480
907.279175,488
907.395264,474
907.511353,468
907.62738,476
907.743408,480
907.859497,461
907.975525,470
908.091553,474
908.207703,473
908.32373,492
908.439758,470
908.555786,490
908.671814,454
908.787842,454
908.90387,491
909.019775,463
909.135864,469
909.251892,458
909.367859,464
909.483826,461
909.599854,466
909.715881,470
909.831848,484
909.947815,470
910.063782,476
910.179749,470
910.295776,491
910.411743,472
910.527649,458
910.643616,477
910.759583,470
910.875488,464
910.991455,470
911.107361,484
911.223267,470
911.339294,474
911.4552,456
911.571106,456
911.687073,482
911.802979,479
911.918823,470
912.034729,478
912.150635,457
912.266602,470
912.382446,473
912.498352,473
912.614197,450
912.730103,457
912.846008,471
