792.44574,600
792.56488,667
792.68396,707
792.80304,684
792.92218,631
793.041199,598
793.160339,617
793.279419,631
793.398499,621
793.517578,577
793.636658,609
793.755737,584
793.874817,632
793.993896,627
794.112976,598
794.232056,586
794.351074,595
794.470215,589
794.589233,607
794.708313,598
794.827393,578
794.946411,581
795.065552,607
795.18457,592
795.303589,602
795.422668,566
795.541687,576
795.660767,593
795.779846,574
795.898865,562
796.017883,567
796.136963,599
796.255981,583
796.375061,572
796.49408,595
796.613037,585
796.732117,569
796.851135,589
796.970154,579
797.089233,594
797.208191,597
797.327271,574
797.446228,586
797.565186,600
797.684265,589
797.803223,579
797.922241,577
798.04126,593
798.160278,586
798.279297,592
798.398315,594
798.517273,580
798.636292,558
798.75531,553
798.874268,559
798.993286,586
799.112244,557
799.231323,578
799.350281,567
799.469238,569
799.588257,588
799.707153,584
799.826111,580
799.945129,600
800.064087,611
800.183044,574
800.302063,570
800.421021,591
800.539978,574
800.658936,589
800.777893,581
800.896912,581
801.015747,580
801.134705,559
801.253723,586
801.37262,579
801.491638,583
801.610535,600
801.729492,571
801.84845,591
801.967407,555
802.086243,556
802.205261,598
802.324158,591
802.443115,585
802.562073,597
802.680969,598
802.799927,604
802.918762,593
803.037659,600
803.156677,608
803.275574,623
803.39447,604
803.513428,592
803.632263,583
803.751221,603
803.870117,576
803.989014,590
804.107971,593
804.226746,602
804.345642,585
804.4646,607
804.583496,620
804.702393,582
804.821228,613
804.940125,604
805.059021,599
805.177917,591
805.296814,601
805.415649,609
805.534546,615
805.653442,599
805.772278,606
805.891113,599
806.01001,608
806.128906,606
806.247742,610
806.366577,608
806.485413,619
806.604309,622
806.723145,608
806.84198,609
806.960876,603
807.079712,612
807.198486,611
807.317383,632
807.436218,623
807.554993,618
807.673889,620
807.792725,596
807.91156,616
808.030396,604
808.14917,638
808.268005,617
808.386841,607
808.505676,634
808.624451,638
808.743286,634
808.862122,624
808.980896,638
809.099731,616
809.218506,623
809.337341,608
809.456116,630
809.57489,637
809.693726,640
809.8125,625
809.931274,625
810.050049,630
810.168884,638
810.287659,656
810.406372,627
810.525269,632
810.643982,654
810.762756,604
810.881531,616
811.000305,638
811.11908,626
811.237854,629
811.356567,616
811.475403,615
811.594116,615
811.71283,631
811.831604,640
811.950378,648
812.069153,639
812.187927,646
812.30658,662
812.425415,637
812.544128,641
812.662781,616
812.781616,643
812.900269,628
813.019043,631
813.137756,631
813.256531,652
813.375244,629
813.493896,626
813.612671,646
813.731384,617
813.850037,628
813.96875,609
814.087524,626
814.206238,628
814.324951,604
814.443604,624
814.562256,606
814.68103,641
814.799683,643
814.918335,640
815.037109,612
815.155762,619
815.274475,626
815.393188,613
815.511841,619
815.630554,592
815.749146,600
815.867859,614
815.986572,607
816.105164,608
816.223877,608
816.342529,618
816.461182,602
816.579895,604
816.698486,608
816.817139,608
816.935791,606
817.054504,619
817.173096,638
817.291748,617
817.4104,624
817.529053,601
817.647644,596
817.766235,584
817.884949,581
818.00354,562
818.122192,556
818.240845,580
818.359436,563
818.478088,542
818.59668,526
818.715271,548
818.833923,539
818.952515,535
819.071106,530
819.189758,534
819.30835,515
819.426941,526
819.545532,518
819.664124,502
819.782715,493
819.901306,504
820.019897,503
820.138489,496
820.25708,498
820.375671,515
820.494202,493
820.612732,488
820.731384,491
820.849915,498
820.968506,479
821.087097,495
821.205627,485
821.324158,506
821.442749,485
821.561279,466
821.679871,486
821.798401,475
821.916931,471
822.035461,502
822.154053,467
822.272583,473
822.391174,486
822.509583,476
822.628174,497
822.746704,479
822.865234,483
822.983765,464
823.102295,479
823.220825,476
823.339294,480
823.457825,475
823.576355,466
823.694824,476
823.813354,463
823.931885,477
824.050354,511
824.168884,496
824.287354,487
824.405823,492
824.524353,490
824.642822,476
824.761353,502
824.879822,499
824.998291,485
825.116699,474
825.235291,471
825.353699,496
825.472168,465
825.590637,465
825.709106,463
825.827576,468
825.946045,471
826.064453,483
826.182983,463
826.301392,464
826.4198,450
826.53833,460
826.656738,460
826.775208,462
826.893677,470
827.012024,455
827.130493,449
827.248962,455
827.36731,453
827.485779,450
827.604248,476
827.722595,457
827.841064,469
827.959412,480
828.077942,440
828.196289,459
828.314636,456
828.433105,484
828.551514,443
828.669861,469
828.78833,477
828.906677,463
829.025085,453
829.143433,471
829.261841,458
829.38031,453
829.498657,455
829.617004,464
829.735413,443
829.85376,458
829.972107,460
830.090515,479
830.208862,450
830.327209,459
830.445557,447
830.563904,443
830.682312,461
830.800659,453
830.919006,489
831.037354,458
831.155701,453
831.274048,460
831.392395,463
831.51062,453
831.629028,455
831.747314,470
831.865662,440
831.984009,454
832.102356,468
832.220642,447
832.338928,456
832.457275,457
832.575623,436
832.693909,468
832.812134,454
832.930481,459
833.048828,456
833.167114,466
833.2854,455
833.403687,452
833.521973,476
833.640259,475
833.758545,440
833.876831,450
833.995056,462
834.113281,468
834.231628,446
834.349915,462
834.468201,456
834.586426,456
834.704651,453
834.822998,457
834.941162,462
835.059448,458
835.177673,466
835.295959,465
835.414246,477
835.53241,457
835.650635,470
835.768921,452
835.887146,455
836.005371,470
836.123596,473
836.241821,461
836.360046,492
836.478271,491
836.596497,467
836.714722,466
836.832886,482
836.95105,477
837.069336,471
837.1875,484
837.305725,467
837.423889,460
837.542053,477
837.660339,478
837.778503,472
837.896667,465
838.014832,463
838.132996,481
838.25116,471
838.369385,485
838.487488,468
838.605713,464
838.723877,470
838.84198,476
838.960205,489
839.078308,490
839.196472,494
839.314636,473
839.4328,468
839.550964,477
839.669067,462
839.787231,464
839.905396,463
840.023499,463
840.141602,476
840.259766,476
840.377869,462
840.495972,444
840.614136,485
840.732239,455
840.850342,449
840.968445,472
841.086548,448
841.204651,464
841.322754,461
841.440918,451
841.55896,445
841.677002,464
841.795166,453
841.913208,469
842.031311,464
842.149353,458
842.267456,468
842.385498,453
842.503601,452
842.621643,457
842.739746,462
842.857788,460
842.97583,441
843.093933,459
843.211975,451
843.330017,444
843.44812,447
843.566101,448
843.684204,453
843.802246,445
843.920227,456
844.038269,447
844.156311,455
844.274292,462
844.392395,444
844.510376,468
844.628357,446
844.74646,446
844.864441,442
844.982422,446
845.100403,470
845.218384,453
845.336426,443
845.454468,467
845.572449,432
845.69043,439
845.808411,466
845.926453,446
846.044373,444
846.162354,460
846.280396,449
846.398315,447
846.516296,449
846.634216,455
846.752197,461
846.870178,456
846.988098,438
847.106079,446
847.22406,445
847.34198,451
847.4599,455
847.577881,439
847.695801,426
847.813782,456
847.931641,446
848.049561,461
848.167603,457
848.285461,442
848.403381,452
848.521362,462
848.639221,436
848.75708,448
848.875,448
848.99292,439
849.110901,438
849.22876,459
849.34668,454
849.464539,430
849.582458,445
849.700317,441
849.818176,446
849.936096,442
850.053955,430
850.171875,438
850.289673,433
850.407593,440
850.525452,460
850.643311,450
850.761169,437
850.878967,447
850.996887,445
851.114746,427
851.232544,447
851.350403,437
851.468262,442
851.58606,447
851.703979,428
851.821777,444
851.939636,449
852.057434,459
852.175232,448
852.293091,470
852.410889,435
852.528687,443
852.646545,442
852.764343,446
852.88208,454
852.999939,442
853.117676,452
853.235535,469
853.353271,446
853.471069,440
853.588928,441
853.706604,449
853.824402,463
853.9422,445
854.059998,449
854.177734,461
854.295532,455
854.413269,440
854.531006,445
854.648804,446
854.766541,457
854.884277,458
855.002014,451
855.119751,461
855.237549,457
855.355225,460
855.473022,445
855.590698,460
855.708435,443
855.826172,467
855.943848,459
856.061646,472
856.179321,464
856.296997,436
856.414795,456
856.53241,472
856.650085,455
856.767822,454
856.885559,449
857.003174,471
857.120911,419
857.238586,444
857.356201,450
857.473938,469
857.591614,456
857.709351,474
857.826965,444
857.944641,464
858.062317,444
858.179993,457
858.297668,455
858.415283,443
858.532959,453
858.650574,456
858.768188,461
858.885803,463
859.003479,441
859.121094,448
859.23877,463
859.356384,456
859.473999,449
859.591675,450
859.709229,450
859.826843,446
859.944458,466
860.062012,454
860.179626,439
860.297302,437
860.414856,461
860.532471,445
860.650024,460
860.767639,438
860.885193,458
861.002808,454
861.120361,457
861.237976,470
861.35553,448
861.473022,455
861.590698,438
861.708191,437
861.825745,448
861.943298,461
862.060852,456
862.178406,432
862.295959,452
862.413513,448
862.531006,451
862.64856,457
862.766113,453
862.883667,441
863.00116,467
863.118713,457
863.236206,454
863.353699,427
863.471252,450
863.588745,457
863.706177,442
863.82373,460
863.941162,453
864.058716,449
864.176208,458
864.29364,474
864.411194,449
864.528687,449
864.646118,444
864.763611,460
864.881042,443
864.998535,452
865.116028,456
865.233459,460
865.350891,461
865.468384,461
865.585754,457
865.703308,464
865.820679,439
865.938171,455
866.055542,450
866.173035,450
866.290466,443
866.407837,446
866.52533,454
866.6427,462
866.760071,455
866.877563,453
866.994934,454
867.112305,471
867.229736,443
867.347107,461
867.464539,453
867.58197,431
867.699341,429
867.81665,450
867.934082,453
868.051453,442
868.168823,447
868.286194,457
868.403564,460
868.520935,454
868.638306,457
868.755676,460
868.872986,447
868.990295,443
869.107727,444
869.225037,449
869.342346,441
869.459717,458
869.577026,469
869.694336,460
869.811707,436
869.929016,458
870.046326,448
870.163635,438
870.280945,452
870.398254,436
870.515564,443
870.632812,464
870.750183,456
870.867432,467
870.984741,441
871.102051,429
871.219299,449
871.336609,469
871.453918,442
871.571106,457
871.688416,448
871.805664,461
871.922852,448
872.040222,464
872.157471,455
872.274719,445
872.391968,472
872.509155,462
872.626465,434
872.743652,439
872.860962,455
872.978149,433
873.095337,471
873.212646,450
873.329834,439
873.44696,460
873.564209,446
873.681396,437
873.798645,451
873.915894,453
874.03302,442
874.150208,434
874.267456,448
874.384583,453
874.501831,433
874.618958,458
874.736145,453
874.853333,454
874.970459,450
875.087646,432
875.204834,459
875.32196,450
875.439148,465
875.556274,452
875.673401,442
875.790527,459
875.907715,437
876.024841,454
876.141968,461
876.259094,455
876.376282,440
876.493347,452
876.610474,456
876.7276,451
876.844727,467
876.961853,448
877.078918,467
877.195984,462
877.313171,440
877.430237,459
877.547302,445
877.664368,432
877.781433,455
877.898499,445
878.015625,421
878.13269,466
878.249695,460
878.366821,437
878.483887,452
878.600952,457
878.717957,466
878.834961,444
878.952087,450
879.069092,438
879.186157,444
879.303162,454
879.420227,453
879.537231,457
879.654236,445
879.77124,452
879.888306,445
880.005249,460
880.122314,439
880.239319,442
880.356323,449
880.473328,461
880.590271,455
880.707275,461
880.824341,438
880.941284,446
881.058228,458
881.175232,466
881.292236,451
881.40918,455
881.526123,452
881.643066,460
881.760071,442
881.877014,440
881.993958,444
882.11084,449
882.227783,450
882.344727,457
882.46167,443
882.578613,457
882.695618,463
882.812439,441
882.929382,443
883.046326,450
883.163208,437
883.280151,456
883.397034,438
883.513916,447
883.630798,451
883.747742,457
883.864563,440
883.981506,448
884.098389,447
884.21521,447
884.332153,461
884.448975,449
884.565796,450
884.682678,468
884.7995,453
884.916443,454
885.033264,457
885.150085,451
885.266968,449
885.383789,448
885.500671,453
885.617493,447
885.734314,446
885.851196,467
885.967896,445
886.084717,475
886.201599,451
886.318359,451
886.435181,472
886.552002,452
886.668762,463
886.785645,454
886.902344,474
887.019165,477
887.135925,447
887.252747,451
887.369446,445
887.486267,457
887.603027,445
887.719788,455
887.836548,467
887.953247,457
888.070068,459
888.186829,460
888.303528,457
888.420288,466
888.536987,457
888.653687,448
888.770447,445
888.887146,442
889.003967,455
889.120667,453
889.237305,453
889.354065,466
889.470703,453
889.587463,446
889.704163,456
889.820862,465
889.937561,448
890.054199,446
890.170837,448
890.287598,468
890.404236,440
890.520874,452
890.637634,449
890.754211,470
890.87085,443
890.987549,473
891.104187,452
891.220886,453
891.337463,467
891.454102,476
891.57074,453
891.687378,460
891.804077,454
891.920654,457
892.037231,456
892.15387,456
892.270447,461
892.387085,477
892.503723,442
892.6203,455
892.736877,441
892.853516,463
892.970032,464
893.08667,449
893.203186,443
893.319763,462
893.43634,463
893.552917,461
893.669556,443
893.786011,452
893.902588,457
894.019165,458
894.135681,467
894.252197,467
894.368835,442
894.485291,460
894.601868,440
894.718384,470
894.8349,449
894.951355,463
895.067932,443
895.184448,451
895.300964,480
895.417419,448
895.533936,447
895.650452,441
895.766907,469
895.883423,484
895.999878,469
896.116333,455
896.232849,450
896.349304,458
896.465759,453
896.582214,478
896.698669,463
896.815125,476
896.931641,459
897.048035,467
897.164551,478
897.280884,463
897.397339,453
897.513794,462
897.630249,445
897.746582,461
897.863098,454
897.979431,478
898.095886,482
898.212341,455
898.328674,455
898.445129,468
898.561462,458
898.677795,457
898.794312,428
898.910645,470
899.026978,453
899.143433,467
899.259766,454
899.37616,465
899.492493,459
899.608765,457
899.725159,479
899.841553,450
899.957947,454
900.07428,467
900.190552,458
900.306946,459
900.423157,461
900.53949,477
900.655884,455
900.772156,454
900.888489,450
901.004822,454
901.121033,472
901.237366,475
901.353699,449
901.46991,469
901.586304,452
901.702515,455
901.818787,457
901.93512,451
902.051331,453
902.167603,466
902.283875,452
902.400085,468
902.516418,456
902.632629,470
902.74884,463
902.865112,447
902.981384,456
903.097595,474
903.213867,457
903.330017,454
903.446289,435
903.5625,458
903.67865,437
903.794922,469
903.911072,474
904.027344,467
904.143494,478
904.259705,466
904.375916,460
904.492065,458
904.608215,462
904.724426,473
904.840576,470
904.956726,481
905.072876,463
905.189087,469
905.305176,460
905.421387,440
905.537537,454
905.653687,438
905.769775,471
905.885925,470
906.002014,469
906.118164,457
906.234314,464
906.350403,455
906.466492,445
906.582642,475
906.69873,477
906.814758,465
906.930908,465
907.046936,469
907.163086,471
907.279175,461
907.395264,459
907.511353,462
907.62738,459
907.743408,481
907.859497,453
907.975525,456
908.091553,468
908.207703,452
908.32373,447
908.439758,461
908.555786,472
908.671814,479
908.787842,469
908.90387,471
909.019775,461
909.135864,457
909.251892,459
909.367859,478
909.483826,457
909.599854,463
909.715881,467
909.831848,456
909.947815,462
910.063782,482
910.179749,478
910.295776,460
910.411743,464
910.527649,464
910.643616,452
910.759583,469
910.875488,455
910.991455,465
911.107361,477
911.223267,461
911.339294,469
911.4552,454
911.571106,449
911.687073,483
911.802979,456
911.918823,475
912.034729,463
912.150635,484
912.266602,458
912.382446,485
912.498352,457
912.614197,487
912.730103,466
912.846008,450
792.44574,625
792.56488,670
792.68396,708
792.80304,656
792.92218,629
793.041199,622
793.160339,628
793.279419,604
793.398499,628
793.517578,589
793.636658,598
793.755737,596
793.874817,650
793.993896,604
794.112976,604
794.232056,586
794.351074,600
794.470215,602
794.589233,561
794.708313,583
794.827393,582
794.946411,571
795.065552,613
795.18457,615
795.303589,615
795.422668,567
795.541687,599
795.660767,612
795.779846,592
795.898865,582
796.017883,609
796.136963,581
796.255981,623
796.375061,580
796.49408,568
796.613037,586
796.732117,617
796.851135,589
796.970154,571
797.089233,575
797.208191,600
797.327271,607
797.446228,582
797.565186,607
797.684265,588
797.803223,565
797.922241,576
798.04126,583
798.160278,591
798.279297,571
798.398315,592
798.517273,586
798.636292,582
798.75531,589
798.874268,584
798.993286,588
799.112244,563
799.231323,600
799.350281,578
799.469238,583
799.588257,592
799.707153,582
799.826111,554
799.945129,567
800.064087,563
800.183044,586
800.302063,589
800.421021,566
800.539978,566
800.658936,569
800.777893,591
800.896912,557
801.015747,581
801.134705,559
801.253723,572
801.37262,570
801.491638,585
801.610535,591
801.729492,562
801.84845,592
801.967407,581
802.086243,572
802.205261,599
802.324158,580
802.443115,582
802.562073,578
802.680969,608
802.799927,592
802.918762,595
803.037659,591
803.156677,585
803.275574,572
803.39447,598
803.513428,610
803.632263,606
803.751221,582
803.870117,607
803.989014,596
804.107971,590
804.226746,607
804.345642,597
804.4646,609
804.583496,618
804.702393,593
804.821228,610
804.940125,613
805.059021,613
805.177917,630
805.296814,606
805.415649,608
805.534546,624
805.653442,631
805.772278,618
805.891113,599
806.01001,604
806.128906,625
806.247742,618
806.366577,600
806.485413,625
806.604309,607
806.723145,630
806.84198,614
806.960876,605
807.079712,604
807.198486,633
807.317383,603
807.436218,631
807.554993,630
807.673889,586
807.792725,625
807.91156,620
808.030396,626
808.14917,629
808.268005,600
808.386841,628
808.505676,619
808.624451,650
808.743286,621
808.862122,611
808.980896,623
809.099731,635
809.218506,599
809.337341,634
809.456116,605
809.57489,634
809.693726,599
809.8125,627
809.931274,639
810.050049,630
810.168884,622
810.287659,624
810.406372,622
810.525269,641
810.643982,624
810.762756,632
810.881531,616
811.000305,642
811.11908,631
811.237854,618
811.356567,625
811.475403,670
811.594116,630
811.71283,642
811.831604,621
811.950378,641
812.069153,630
812.187927,656
812.30658,674
812.425415,638
812.544128,606
812.662781,645
812.781616,659
812.900269,622
813.019043,611
813.137756,647
813.256531,640
813.375244,638
813.493896,638
813.612671,628
813.731384,632
813.850037,629
813.96875,639
814.087524,639
814.206238,638
814.324951,631
814.443604,613
814.562256,611
814.68103,629
814.799683,627
814.918335,629
815.037109,632
815.155762,601
815.274475,627
815.393188,641
815.511841,621
815.630554,622
815.749146,599
815.867859,617
815.986572,609
816.105164,607
816.223877,612
816.342529,627
816.461182,634
816.579895,608
816.698486,615
816.817139,598
816.935791,634
817.054504,602
817.173096,617
817.291748,627
817.4104,615
817.529053,610
817.647644,607
817.766235,587
817.884949,589
818.00354,574
818.122192,553
818.240845,560
818.359436,565
818.478088,541
818.59668,551
818.715271,528
818.833923,538
818.952515,539
819.071106,503
819.189758,508
819.30835,530
819.426941,511
819.545532,514
819.664124,519
819.782715,512
819.901306,505
820.019897,535
820.138489,509
820.25708,511
820.375671,499
820.494202,511
820.612732,502
820.731384,500
820.849915,508
820.968506,515
821.087097,491
821.205627,484
821.324158,490
821.442749,480
821.561279,497
821.679871,495
821.798401,471
821.916931,491
822.035461,458
822.154053,506
822.272583,481
822.391174,495
822.509583,465
822.628174,506
822.746704,494
822.865234,489
822.983765,483
823.102295,469
823.220825,487
823.339294,484
823.457825,472
823.576355,488
823.694824,481
823.813354,471
823.931885,476
824.050354,492
824.168884,495
824.287354,471
824.405823,482
824.524353,493
824.642822,489
824.761353,485
824.879822,477
824.998291,489
825.116699,497
825.235291,501
825.353699,476
825.472168,485
825.590637,474
825.709106,460
825.827576,475
825.946045,485
826.064453,451
826.182983,486
826.301392,479
826.4198,495
826.53833,489
826.656738,461
826.775208,462
826.893677,465
827.012024,481
827.130493,472
827.248962,486
827.36731,453
827.485779,472
827.604248,475
827.722595,473
827.841064,451
827.959412,467
828.077942,479
828.196289,444
828.314636,469
828.433105,459
828.551514,468
828.669861,460
828.78833,469
828.906677,469
829.025085,466
829.143433,445
829.261841,475
829.38031,463
829.498657,479
829.617004,456
829.735413,462
829.85376,459
829.972107,465
830.090515,462
830.208862,463
830.327209,452
830.445557,447
830.563904,474
830.682312,450
830.800659,467
830.919006,467
831.037354,475
831.155701,455
831.274048,456
831.392395,465
831.51062,439
831.629028,457
831.747314,441
831.865662,462
831.984009,447
832.102356,457
832.220642,454
832.338928,460
832.457275,448
832.575623,454
832.693909,464
832.812134,462
832.930481,457
833.048828,451
833.167114,454
833.2854,444
833.403687,475
833.521973,469
833.640259,448
833.758545,464
833.876831,452
833.995056,470
834.113281,452
834.231628,467
834.349915,459
834.468201,465
834.586426,464
834.704651,461
834.822998,466
834.941162,471
835.059448,451
835.177673,469
835.295959,454
835.414246,471
835.53241,453
835.650635,460
835.768921,452
835.887146,478
836.005371,471
836.123596,484
836.241821,490
836.360046,459
836.478271,490
836.596497,484
836.714722,459
836.832886,491
836.95105,464
837.069336,506
837.1875,489
837.305725,476
837.423889,468
837.542053,492
837.660339,472
837.778503,466
837.896667,463
838.014832,467
838.132996,449
838.25116,462
838.369385,471
838.487488,466
838.605713,461
838.723877,473
838.84198,469
838.960205,488
839.078308,482
839.196472,475
839.314636,477
839.4328,474
839.550964,468
839.669067,462
839.787231,453
839.905396,478
840.023499,455
840.141602,487
840.259766,455
840.377869,464
840.495972,450
840.614136,460
840.732239,443
840.850342,476
840.968445,468
841.086548,465
841.204651,461
841.322754,446
841.440918,457
841.55896,493
841.677002,454
841.795166,452
841.913208,441
842.031311,459
842.149353,457
842.267456,453
842.385498,468
842.503601,442
842.621643,469
842.739746,465
842.857788,454
842.97583,470
843.093933,437
843.211975,462
843.330017,454
843.44812,466
843.566101,432
843.684204,451
843.802246,436
843.920227,465
844.038269,459
844.156311,442
844.274292,448
844.392395,457
844.510376,450
844.628357,467
844.74646,465
844.864441,452
844.982422,440
845.100403,457
845.218384,446
845.336426,450
845.454468,443
845.572449,436
845.69043,458
845.808411,464
845.926453,455
846.044373,442
846.162354,456
846.280396,446
846.398315,448
846.516296,461
846.634216,424
846.752197,434
846.870178,453
846.988098,459
847.106079,439
847.22406,446
847.34198,444
847.4599,440
847.577881,441
847.695801,440
847.813782,436
847.931641,463
848.049561,451
848.167603,446
848.285461,441
848.403381,450
848.521362,446
848.639221,460
848.75708,449
848.875,445
848.99292,460
849.110901,447
849.22876,443
849.34668,442
849.464539,442
849.582458,482
849.700317,439
849.818176,439
849.936096,454
850.053955,464
850.171875,457
850.289673,447
850.407593,455
850.525452,460
850.643311,458
850.761169,449
850.878967,452
850.996887,448
851.114746,422
851.232544,463
851.350403,435
851.468262,447
851.58606,438
851.703979,441
851.821777,450
851.939636,447
852.057434,446
852.175232,465
852.293091,446
852.410889,461
852.528687,446
852.646545,461
852.764343,461
852.88208,436
852.999939,446
853.117676,464
853.235535,430
853.353271,438
853.471069,458
853.588928,453
853.706604,456
853.824402,460
853.9422,454
854.059998,450
854.177734,455
854.295532,462
854.413269,456
854.531006,440
854.648804,462
854.766541,445
854.884277,445
855.002014,445
855.119751,475
855.237549,458
855.355225,470
855.473022,466
855.590698,456
855.708435,457
855.826172,446
855.943848,452
856.061646,457
856.179321,453
856.296997,447
856.414795,455
856.53241,442
856.650085,457
856.767822,466
856.885559,471
857.003174,473
857.120911,466
857.238586,464
857.356201,463
857.473938,442
857.591614,448
857.709351,456
857.826965,454
857.944641,461
858.062317,458
858.179993,466
858.297668,441
858.415283,455
858.532959,460
858.650574,454
858.768188,447
858.885803,446
859.003479,440
859.121094,458
859.23877,486
859.356384,455
859.473999,487
859.591675,449
859.709229,458
859.826843,455
859.944458,445
860.062012,436
860.179626,450
860.297302,451
860.414856,447
860.532471,441
860.650024,440
860.767639,463
860.885193,425
861.002808,446
861.120361,459
861.237976,457
861.35553,446
861.473022,449
861.590698,461
861.708191,445
861.825745,445
861.943298,457
862.060852,452
862.178406,447
862.295959,461
862.413513,447
862.531006,459
862.64856,432
862.766113,463
862.883667,450
863.00116,455
863.118713,451
863.236206,454
863.353699,436
863.471252,446
863.588745,438
863.706177,462
863.82373,457
863.941162,462
864.058716,451
864.176208,467
864.29364,445
864.411194,453
864.528687,445
864.646118,455
864.763611,453
864.881042,449
864.998535,455
865.116028,443
865.233459,454
865.350891,451
865.468384,432
865.585754,446
865.703308,447
865.820679,456
865.938171,437
866.055542,453
866.173035,442
866.290466,458
866.407837,473
866.52533,474
866.6427,453
866.760071,449
866.877563,445
866.994934,468
867.112305,454
867.229736,462
867.347107,450
867.464539,448
867.58197,457
867.699341,461
867.81665,461
867.934082,450
868.051453,455
868.168823,468
868.286194,443
868.403564,434
868.520935,455
868.638306,446
868.755676,447
868.872986,452
868.990295,457
869.107727,453
869.225037,457
869.342346,439
869.459717,450
869.577026,454
869.694336,458
869.811707,460
869.929016,452
870.046326,456
870.163635,460
870.280945,462
870.398254,460
870.515564,455
870.632812,453
870.750183,465
870.867432,428
870.984741,453
871.102051,447
871.219299,456
871.336609,461
871.453918,456
871.571106,460
871.688416,454
871.805664,463
871.922852,465
872.040222,442
872.157471,447
872.274719,450
872.391968,456
872.509155,446
872.626465,451
872.743652,460
872.860962,457
872.978149,461
873.095337,456
873.212646,441
873.329834,458
873.44696,452
873.564209,445
873.681396,434
873.798645,436
873.915894,462
874.03302,476
874.150208,447
874.267456,450
874.384583,458
874.501831,463
874.618958,461
874.736145,455
874.853333,458
874.970459,461
875.087646,439
875.204834,443
875.32196,452
875.439148,461
875.556274,434
875.673401,460
875.790527,451
875.907715,446
876.024841,444
876.141968,472
876.259094,443
876.376282,455
876.493347,478
876.610474,452
876.7276,449
876.844727,439
876.961853,434
877.078918,459
877.195984,458
877.313171,444
877.430237,450
877.547302,476
877.664368,459
877.781433,441
877.898499,445
878.015625,461
878.13269,457
878.249695,463
878.366821,443
878.483887,444
878.600952,443
878.717957,456
878.834961,463
878.952087,470
879.069092,462
879.186157,470
879.303162,450
879.420227,456
879.537231,445
879.654236,480
879.77124,448
879.888306,452
880.005249,451
880.122314,455
880.239319,456
880.356323,454
880.473328,447
880.590271,442
880.707275,455
880.824341,473
880.941284,462
881.058228,458
881.175232,438
881.292236,465
881.40918,457
881.526123,452
881.643066,446
881.760071,462
881.877014,453
881.993958,450
882.11084,447
882.227783,449
882.344727,438
882.46167,456
882.578613,441
882.695618,462
882.812439,432
882.929382,469
883.046326,442
883.163208,470
883.280151,468
883.397034,457
883.513916,447
883.630798,463
883.747742,457
883.864563,458
883.981506,440
884.098389,459
884.21521,457
884.332153,469
884.448975,443
884.565796,484
884.682678,453
884.7995,457
884.916443,462
885.033264,467
885.150085,467
885.266968,476
885.383789,448
885.500671,463
885.617493,459
885.734314,462
885.851196,444
885.967896,471
886.084717,445
886.201599,466
886.318359,466
886.435181,440
886.552002,458
886.668762,471
886.785645,460
886.902344,453
887.019165,466
887.135925,457
887.252747,462
887.369446,451
887.486267,456
887.603027,461
887.719788,456
887.836548,465
887.953247,444
888.070068,449
888.186829,463
888.303528,467
888.420288,436
888.536987,471
888.653687,451
888.770447,453
888.887146,446
889.003967,457
889.120667,454
889.237305,461
889.354065,438
889.470703,450
889.587463,440
889.704163,463
889.820862,467
889.937561,438
890.054199,466
890.170837,454
890.287598,468
890.404236,472
890.520874,467
890.637634,452
890.754211,461
890.87085,459
890.987549,454
891.104187,469
891.220886,443
891.337463,446
891.454102,461
891.57074,463
891.687378,469
891.804077,471
891.920654,453
892.037231,466
892.15387,442
892.270447,469
892.387085,460
892.503723,463
892.6203,450
892.736877,450
892.853516,457
892.970032,467
893.08667,451
893.203186,462
893.319763,442
893.43634,459
893.552917,450
893.669556,462
893.786011,456
893.902588,454
894.019165,433
894.135681,459
894.252197,458
894.368835,450
894.485291,458
894.601868,458
894.718384,462
894.8349,448
894.951355,446
895.067932,459
895.184448,462
895.300964,466
895.417419,443
895.533936,463
895.650452,439
895.766907,466
895.883423,453
895.999878,474
896.116333,453
896.232849,482
896.349304,456
896.465759,470
896.582214,455
896.698669,464
896.815125,461
896.931641,474
897.048035,454
897.164551,482
897.280884,458
897.397339,468
897.513794,451
897.630249,477
897.746582,455
897.863098,474
897.979431,457
898.095886,461
898.212341,457
898.328674,463
898.445129,469
898.561462,468
898.677795,473
898.794312,499
898.910645,464
899.026978,465
899.143433,468
899.259766,476
899.37616,455
899.492493,451
899.608765,448
899.725159,469
899.841553,482
899.957947,475
900.07428,455
900.190552,467
900.306946,457
900.423157,475
900.53949,448
900.655884,461
900.772156,467
900.888489,461
901.004822,456
901.121033,459
901.237366,468
901.353699,484
901.46991,478
901.586304,467
901.702515,463
901.818787,461
901.93512,472
902.051331,459
902.167603,483
902.283875,454
902.400085,467
902.516418,466
902.632629,479
902.74884,480
902.865112,453
902.981384,468
903.097595,467
903.213867,486
903.330017,486
903.446289,464
903.5625,483
903.67865,472
903.794922,455
903.911072,489
904.027344,482
904.143494,489
904.259705,456
904.375916,481
904.492065,451
904.608215,443
904.724426,461
904.840576,476
904.956726,456
905.072876,478
905.189087,469
905.305176,460
905.421387,462
905.537537,480
905.653687,476
905.769775,477
905.885925,472
906.002014,485
906.118164,468
906.234314,484
906.350403,475
906.466492,466
906.582642,477
906.69873,479
906.814758,478
906.930908,485
907.046936,458
907.163086,472
907.279175,463
907.395264,466
907.511353,479
907.62738,456
907.743408,468
907.859497,489
907.975525,474
908.091553,467
908.207703,494
908.32373,478
908.439758,468
908.555786,488
908.671814,487
908.787842,481
908.90387,466
909.019775,471
909.135864,469
909.251892,460
909.367859,464
909.483826,463
909.599854,468
909.715881,482
909.831848,465
909.947815,454
910.063782,465
910.179749,475
910.295776,453
910.411743,468
910.527649,455
910.643616,470
910.759583,478
910.875488,478
910.991455,473
911.107361,467
911.223267,468
911.339294,477
911.4552,469
911.571106,454
911.687073,470
911.802979,492
911.918823,466
912.034729,466
912.150635,450
912.266602,484
912.382446,467
912.498352,461
912.614197,475
912.730103,480
912.846008,489
792.44574,626
792.56488,661
792.68396,681
792.80304,660
792.92218,610
793.041199,595
793.160339,587
793.279419,627
793.398499,611
793.517578,624
793.636658,605
793.755737,636
793.874817,640
793.993896,623
794.112976,611
794.232056,592
794.351074,634
794.470215,607
794.589233,614
794.708313,605
794.827393,604
794.946411,592
795.065552,593
795.18457,615
795.303589,606
795.422668,605
795.541687,598
795.660767,627
795.779846,597
795.898865,578
796.017883,581
796.136963,588
796.255981,608
796.375061,591
796.49408,587
796.613037,598
796.732117,584
796.851135,594
796.970154,573
797.089233,579
797.208191,578
797.327271,591
797.446228,575
797.565186,574
797.684265,581
797.803223,586
797.922241,570
798.04126,574
798.160278,587
798.279297,581
798.398315,615
798.517273,581
798.636292,584
798.75531,586
798.874268,599
798.993286,590
799.112244,594
799.231323,605
799.350281,562
799.469238,588
799.588257,606
799.707153,592
799.826111,585
799.945129,589
800.064087,581
800.183044,576
800.302063,603
800.421021,582
800.539978,567
800.658936,562
800.777893,600
800.896912,591
801.015747,576
801.134705,571
801.253723,591
801.37262,595
801.491638,580
801.610535,588
801.729492,578
801.84845,581
801.967407,568
802.086243,559
802.205261,591
802.324158,575
802.443115,600
802.562073,600
802.680969,590
802.799927,589
802.918762,605
803.037659,611
803.156677,609
803.275574,578
803.39447,624
803.513428,568
803.632263,591
803.751221,594
803.870117,593
803.989014,599
804.107971,600
804.226746,589
804.345642,611
804.4646,596
804.583496,621
804.702393,607
804.821228,598
804.940125,617
805.059021,605
805.177917,605
805.296814,615
805.415649,606
805.534546,617
805.653442,593
805.772278,600
805.891113,609
806.01001,599
806.128906,616
806.247742,620
806.366577,601
806.485413,619
806.604309,627
806.723145,627
806.84198,595
806.960876,606
807.079712,629
807.198486,624
807.317383,632
807.436218,609
807.554993,627
807.673889,615
807.792725,591
807.91156,611
808.030396,620
808.14917,614
808.268005,612
808.386841,619
808.505676,592
808.624451,617
808.743286,592
808.862122,608
808.980896,619
809.099731,627
809.218506,614
809.337341,624
809.456116,639
809.57489,624
809.693726,606
809.8125,639
809.931274,627
810.050049,641
810.168884,619
810.287659,629
810.406372,643
810.525269,656
810.643982,644
810.762756,631
810.881531,666
811.000305,631
811.11908,620
811.237854,628
811.356567,646
811.475403,635
811.594116,624
811.71283,638
811.831604,638
811.950378,615
812.069153,655
812.187927,622
812.30658,657
812.425415,644
812.544128,639
812.662781,617
812.781616,631
812.900269,633
813.019043,630
813.137756,651
813.256531,636
813.375244,646
813.493896,641
813.612671,622
813.731384,634
813.850037,601
813.96875,637
814.087524,637
814.206238,636
814.324951,607
814.443604,617
814.562256,620
814.68103,613
814.799683,635
814.918335,631
815.037109,658
815.155762,650
815.274475,615
815.393188,622
815.511841,628
815.630554,635
815.749146,622
815.867859,594
815.986572,635
816.105164,602
816.223877,602
816.342529,608
816.461182,628
816.579895,611
816.698486,626
816.817139,619
816.935791,632
817.054504,635
817.173096,590
817.291748,621
817.4104,615
817.529053,613
817.647644,589
817.766235,607
817.884949,574
818.00354,574
818.122192,601
818.240845,562
818.359436,567
818.478088,561
818.59668,540
818.715271,535
818.833923,527
818.952515,538
819.071106,528
819.189758,513
819.30835,510
819.426941,531
819.545532,506
819.664124,549
819.782715,516
819.901306,500
820.019897,519
820.138489,506
820.25708,530
820.375671,491
820.494202,498
820.612732,497
820.731384,499
820.849915,488
820.968506,487
821.087097,490
821.205627,512
821.324158,489
821.442749,490
821.561279,485
821.679871,506
821.798401,475
821.916931,473
822.035461,484
822.154053,503
822.272583,480
822.391174,485
822.509583,464
822.628174,491
822.746704,469
822.865234,515
822.983765,473
823.102295,490
823.220825,474
823.339294,475
823.457825,491
823.576355,468
823.694824,489
823.813354,487
823.931885,494
824.050354,493
824.168884,470
824.287354,481
824.405823,490
824.524353,488
824.642822,498
824.761353,487
824.879822,495
824.998291,467
825.116699,468
825.235291,508
825.353699,507
825.472168,475
825.590637,500
825.709106,482
825.827576,483
825.946045,464
826.064453,466
826.182983,461
826.301392,498
826.4198,474
826.53833,479
826.656738,489
826.775208,446
826.893677,490
827.012024,462
827.130493,463
827.248962,489
827.36731,472
827.485779,466
827.604248,461
827.722595,482
827.841064,456
827.959412,463
828.077942,476
828.196289,446
828.314636,463
828.433105,454
828.551514,484
828.669861,457
828.78833,460
828.906677,457
829.025085,449
829.143433,474
829.261841,468
829.38031,456
829.498657,467
829.617004,472
829.735413,451
829.85376,449
829.972107,459
830.090515,460
830.208862,444
830.327209,455
830.445557,454
830.563904,455
830.682312,478
830.800659,451
830.919006,471
831.037354,456
831.155701,463
831.274048,471
831.392395,457
831.51062,440
831.629028,468
831.747314,454
831.865662,463
831.984009,471
832.102356,473
832.220642,453
832.338928,455
832.457275,468
832.575623,473
832.693909,460
832.812134,457
832.930481,464
833.048828,472
833.167114,455
833.2854,468
833.403687,448
833.521973,465
833.640259,479
833.758545,469
833.876831,441
833.995056,465
834.113281,466
834.231628,481
834.349915,446
834.468201,463
834.586426,465
834.704651,448
834.822998,461
834.941162,453
835.059448,456
835.177673,472
835.295959,450
835.414246,465
835.53241,483
835.650635,445
835.768921,466
835.887146,473
836.005371,458
836.123596,476
836.241821,462
836.360046,492
836.478271,481
836.596497,477
836.714722,465
836.832886,478
836.95105,448
837.069336,452
837.1875,458
837.305725,485
837.423889,507
837.542053,472
837.660339,469
837.778503,480
837.896667,490
838.014832,480
838.132996,479
838.25116,477
838.369385,473
838.487488,464
838.605713,462
838.723877,478
838.84198,458
838.960205,482
839.078308,470
839.196472,463
839.314636,463
839.4328,465
839.550964,478
839.669067,450
839.787231,480
839.905396,482
840.023499,466
840.141602,480
840.259766,468
840.377869,460
840.495972,463
840.614136,444
840.732239,469
840.850342,461
840.968445,493
841.086548,486
841.204651,471
841.322754,478
841.440918,464
841.55896,480
841.677002,468
841.795166,455
841.913208,470
842.031311,480
842.149353,450
842.267456,466
842.385498,454
842.503601,458
842.621643,456
842.739746,435
842.857788,459
842.97583,448
843.093933,471
843.211975,458
843.330017,429
843.44812,469
843.566101,451
843.684204,450
843.802246,447
843.920227,463
844.038269,455
844.156311,451
844.274292,466
844.392395,478
844.510376,437
844.628357,440
844.74646,453
844.864441,463
844.982422,453
845.100403,467
845.218384,462
845.336426,452
845.454468,442
845.572449,466
845.69043,451
845.808411,464
845.926453,448
846.044373,459
846.162354,453
846.280396,446
846.398315,448
846.516296,454
846.634216,446
846.752197,463
846.870178,453
846.988098,446
847.106079,446
847.22406,452
847.34198,441
847.4599,453
847.577881,440
847.695801,445
847.813782,442
847.931641,445
848.049561,435
848.167603,464
848.285461,450
848.403381,465
848.521362,461
848.639221,444
848.75708,443
848.875,455
848.99292,460
849.110901,469
849.22876,456
849.34668,447
849.464539,458
849.582458,435
849.700317,422
849.818176,455
849.936096,452
850.053955,469
850.171875,437
850.289673,458
850.407593,441
850.525452,452
850.643311,448
850.761169,447
850.878967,451
850.996887,462
851.114746,457
851.232544,437
851.350403,432
851.468262,444
851.58606,453
851.703979,451
851.821777,449
851.939636,459
852.057434,439
852.175232,442
852.293091,454
852.410889,460
852.528687,447
852.646545,457
852.764343,444
852.88208,468
852.999939,465
853.117676,462
853.235535,442
853.353271,472
853.471069,456
853.588928,453
853.706604,459
853.824402,462
853.9422,452
854.059998,460
854.177734,458
854.295532,461
854.413269,473
854.531006,457
854.648804,455
854.766541,447
854.884277,456
855.002014,465
855.119751,449
855.237549,453
855.355225,445
855.473022,458
855.590698,450
855.708435,450
855.826172,448
855.943848,464
856.061646,447
856.179321,469
856.296997,437
856.414795,473
856.53241,471
856.650085,465
856.767822,444
856.885559,447
857.003174,481
857.120911,469
857.238586,470
857.356201,470
857.473938,449
857.591614,464
857.709351,464
857.826965,444
857.944641,462
858.062317,463
858.179993,450
858.297668,457
858.415283,481
858.532959,474
858.650574,458
858.768188,464
858.885803,461
859.003479,463
859.121094,454
859.23877,470
859.356384,440
859.473999,443
859.591675,441
859.709229,461
859.826843,465
859.944458,455
860.062012,465
860.179626,454
860.297302,456
860.414856,449
860.532471,446
860.650024,453
860.767639,453
860.885193,452
861.002808,469
861.120361,457
861.237976,450
861.35553,444
861.473022,470
861.590698,460
861.708191,469
861.825745,448
861.943298,456
862.060852,454
862.178406,454
862.295959,467
862.413513,453
862.531006,434
862.64856,459
862.766113,459
862.883667,443
863.00116,436
863.118713,443
863.236206,468
863.353699,450
863.471252,454
863.588745,452
863.706177,459
863.82373,449
863.941162,441
864.058716,451
864.176208,447
864.29364,454
864.411194,456
864.528687,444
864.646118,468
864.763611,456
864.881042,451
864.998535,445
865.116028,458
865.233459,459
865.350891,440
865.468384,458
865.585754,454
865.703308,459
865.820679,461
865.938171,463
866.055542,455
866.173035,463
866.290466,462
866.407837,468
866.52533,470
866.6427,459
866.760071,473
866.877563,446
866.994934,464
867.112305,451
867.229736,450
867.347107,449
867.464539,460
867.58197,451
867.699341,442
867.81665,452
867.934082,483
868.051453,471
868.168823,461
868.286194,451
868.403564,461
868.520935,430
868.638306,439
868.755676,469
868.872986,474
868.990295,447
869.107727,463
869.225037,449
869.342346,466
869.459717,458
869.577026,447
869.694336,447
869.811707,447
869.929016,460
870.046326,467
870.163635,441
870.280945,471
870.398254,454
870.515564,460
870.632812,468
870.750183,463
870.867432,452
870.984741,449
871.102051,439
871.219299,462
871.336609,444
871.453918,470
871.571106,459
871.688416,471
871.805664,445
871.922852,476
872.040222,443
872.157471,463
872.274719,463
872.391968,428
872.509155,472
872.626465,452
872.743652,448
872.860962,453
872.978149,458
873.095337,458
873.212646,459
873.329834,453
873.44696,466
873.564209,451
873.681396,466
873.798645,465
873.915894,445
874.03302,447
874.150208,452
874.267456,450
874.384583,458
874.501831,489
874.618958,437
874.736145,452
874.853333,462
874.970459,456
875.087646,440
875.204834,440
875.32196,466
875.439148,457
875.556274,462
875.673401,453
875.790527,444
875.907715,442
876.024841,450
876.141968,453
876.259094,456
876.376282,457
876.493347,462
876.610474,446
876.7276,443
876.844727,459
876.961853,454
877.078918,444
877.195984,447
877.313171,456
877.430237,438
877.547302,465
877.664368,453
877.781433,478
877.898499,446
878.015625,455
878.13269,463
878.249695,457
878.366821,445
878.483887,469
878.600952,452
878.717957,479
878.834961,457
878.952087,427
879.069092,457
879.186157,463
879.303162,437
879.420227,461
879.537231,448
879.654236,459
879.77124,453
879.888306,497
880.005249,450
880.122314,451
880.239319,468
880.356323,465
880.473328,478
880.590271,483
880.707275,423
880.824341,459
880.941284,437
881.058228,450
881.175232,457
881.292236,457
881.40918,444
881.526123,450
881.643066,463
881.760071,447
881.877014,451
881.993958,472
882.11084,450
882.227783,451
882.344727,461
882.46167,469
882.578613,436
882.695618,471
882.812439,439
882.929382,470
883.046326,469
883.163208,468
883.280151,454
883.397034,459
883.513916,450
883.630798,447
883.747742,444
883.864563,454
883.981506,455
884.098389,457
884.21521,440
884.332153,456
884.448975,461
884.565796,442
884.682678,454
884.7995,464
884.916443,451
885.033264,482
885.150085,452
885.266968,459
885.383789,461
885.500671,452
885.617493,465
885.734314,466
885.851196,460
885.967896,464
886.084717,446
886.201599,460
886.318359,478
886.435181,479
886.552002,451
886.668762,455
886.785645,462
886.902344,473
887.019165,447
887.135925,480
887.252747,466
887.369446,452
887.486267,472
887.603027,467
887.719788,459
887.836548,468
887.953247,467
888.070068,467
888.186829,463
888.303528,467
888.420288,455
888.536987,466
888.653687,460
888.770447,468
888.887146,448
889.003967,445
889.120667,457
889.237305,465
889.354065,456
889.470703,482
889.587463,466
889.704163,471
889.820862,461
889.937561,479
890.054199,451
890.170837,461
890.287598,454
890.404236,457
890.520874,463
890.637634,466
890.754211,458
890.87085,479
890.987549,475
891.104187,458
891.220886,473
891.337463,463
891.454102,467
891.57074,456
891.687378,459
891.804077,452
891.920654,460
892.037231,445
892.15387,457
892.270447,459
892.387085,465
892.503723,461
892.6203,449
892.736877,465
892.853516,469
892.970032,447
893.08667,481
893.203186,479
893.319763,474
893.43634,461
893.552917,457
893.669556,453
893.786011,468
893.902588,467
894.019165,478
894.135681,475
894.252197,466
894.368835,483
894.485291,446
894.601868,475
894.718384,448
894.8349,460
894.951355,464
895.067932,475
895.184448,446
895.300964,465
895.417419,468
895.533936,466
895.650452,447
895.766907,468
895.883423,459
895.999878,462
896.116333,463
896.232849,457
896.349304,448
896.465759,470
896.582214,481
896.698669,474
896.815125,483
896.931641,464
897.048035,451
897.164551,453
897.280884,474
897.397339,472
897.513794,470
897.630249,465
897.746582,455
897.863098,461
897.979431,477
898.095886,477
898.212341,466
898.328674,471
898.445129,479
898.561462,456
898.677795,460
898.794312,452
898.910645,468
899.026978,484
899.143433,451
899.259766,449
899.37616,475
899.492493,465
899.608765,463
899.725159,477
899.841553,458
899.957947,476
900.07428,467
900.190552,454
900.306946,454
900.423157,473
900.53949,469
900.655884,463
900.772156,461
900.888489,474
901.004822,469
901.121033,448
901.237366,456
901.353699,470
901.46991,482
901.586304,477
901.702515,455
901.818787,483
901.93512,478
902.051331,487
902.167603,453
902.283875,468
902.400085,463
902.516418,477
902.632629,454
902.74884,485
902.865112,472
902.981384,472
903.097595,459
903.213867,487
903.330017,472
903.446289,474
903.5625,487
903.67865,477
903.794922,459
903.911072,467
904.027344,459
904.143494,480
904.259705,450
904.375916,467
904.492065,483
904.608215,491
904.724426,486
904.840576,457
904.956726,474
905.072876,460
905.189087,457
905.305176,446
905.421387,451
905.537537,470
905.653687,480
905.769775,463
905.885925,459
906.002014,464
906.118164,481
906.234314,484
906.350403,464
906.466492,472
906.582642,460
906.69873,480
906.814758,450
906.930908,466
907.046936,475
907.163086,482
907.279175,480
907.395264,477
907.511353,471
907.62738,479
907.743408,448
907.859497,476
907.975525,472
908.091553,458
908.207703,462
908.32373,481
908.439758,466
908.555786,473
908.671814,477
908.787842,463
908.90387,452
909.019775,462
909.135864,470
909.251892,489
909.367859,449
909.483826,458
909.599854,469
909.715881,461
909.831848,504
909.947815,477
910.063782,442
910.179749,490
910.295776,481
910.411743,471
910.527649,471
910.643616,464
910.759583,456
910.875488,474
910.991455,479
911.107361,477
911.223267,472
911.339294,472
911.4552,472
911.571106,485
911.687073,471
911.802979,493
911.918823,470
912.034729,476
912.150635,480
912.266602,468
912.382446,479
912.498352,461
912.614197,449
912.730103,467
912.846008,469
