792.44574,644
792.56488,647
792.68396,698
792.80304,661
792.92218,622
793.041199,607
793.160339,595
793.279419,605
793.398499,639
793.517578,596
793.636658,607
793.755737,600
793.874817,647
793.993896,585
794.112976,611
794.232056,585
794.351074,592
794.470215,609
794.589233,606
794.708313,573
794.827393,607
794.946411,561
795.065552,601
795.18457,596
795.303589,573
795.422668,579
795.541687,583
795.660767,575
795.779846,594
795.898865,567
796.017883,576
796.136963,592
796.255981,592
796.375061,572
796.49408,577
796.613037,580
796.732117,591
796.851135,571
796.970154,568
797.089233,576
797.208191,597
797.327271,575
797.446228,588
797.565186,570
797.684265,605
797.803223,577
797.922241,579
798.04126,590
798.160278,566
798.279297,573
798.398315,577
798.517273,601
798.636292,589
798.75531,575
798.874268,579
798.993286,573
799.112244,582
799.231323,566
799.350281,570
799.469238,571
799.588257,566
799.707153,599
799.826111,567
799.945129,576
800.064087,571
800.183044,572
800.302063,580
800.421021,572
800.539978,580
800.658936,564
800.777893,593
800.896912,582
801.015747,572
801.134705,564
801.253723,575
801.37262,576
801.491638,586
801.610535,608
801.729492,590
801.84845,584
801.967407,557
802.086243,610
802.205261,587
802.324158,579
802.443115,600
802.562073,593
802.680969,586
802.799927,580
802.918762,582
803.037659,564
803.156677,586
803.275574,579
803.39447,592
803.513428,594
803.632263,601
803.751221,604
803.870117,604
803.989014,595
804.107971,592
804.226746,595
804.345642,591
804.4646,589
804.583496,602
804.702393,600
804.821228,590
804.940125,604
805.059021,617
805.177917,610
805.296814,601
805.415649,591
805.534546,587
805.653442,595
805.772278,610
805.891113,606
806.01001,617
806.128906,607
806.247742,608
806.366577,617
806.485413,640
806.604309,622
806.723145,622
806.84198,605
806.960876,593
807.079712,581
807.198486,607
807.317383,588
807.436218,609
807.554993,601
807.673889,639
807.792725,605
807.91156,630
808.030396,612
808.14917,604
808.268005,636
808.386841,609
808.505676,612
808.624451,625
808.743286,603
808.862122,629
808.980896,618
809.099731,632
809.218506,636
809.337341,625
809.456116,621
809.57489,612
809.693726,663
809.8125,609
809.931274,631
810.050049,637
810.168884,602
810.287659,614
810.406372,636
810.525269,635
810.643982,649
810.762756,638
810.881531,635
811.000305,622
811.11908,623
811.237854,619
811.356567,613
811.475403,637
811.594116,630
811.71283,645
811.831604,626
811.950378,628
812.069153,602
812.187927,654
812.30658,608
812.425415,648
812.544128,624
812.662781,619
812.781616,640
812.900269,633
813.019043,644
813.137756,637
813.256531,628
813.375244,622
813.493896,636
813.612671,635
813.731384,627
813.850037,621
813.96875,628
814.087524,619
814.206238,626
814.324951,642
814.443604,632
814.562256,607
814.68103,633
814.799683,626
814.918335,595
815.037109,628
815.155762,608
815.274475,611
815.393188,599
815.511841,638
815.630554,603
815.749146,623
815.867859,576
815.986572,615
816.105164,590
816.223877,616
816.342529,607
816.461182,619
816.579895,604
816.698486,616
816.817139,619
816.935791,613
817.054504,622
817.173096,628
817.291748,598
817.4104,633
817.529053,606
817.647644,587
817.766235,566
817.884949,594
818.00354,571
818.122192,572
818.240845,550
818.359436,553
818.478088,540
818.59668,528
818.715271,526
818.833923,537
818.952515,518
819.071106,501
819.189758,523
819.30835,525
819.426941,494
819.545532,543
819.664124,498
819.782715,525
819.901306,506
820.019897,512
820.138489,504
820.25708,479
820.375671,486
820.494202,508
820.612732,482
820.731384,504
820.849915,499
820.968506,492
821.087097,477
821.205627,506
821.324158,487
821.442749,479
821.561279,492
821.679871,485
821.798401,474
821.916931,485
822.035461,481
822.154053,490
822.272583,483
822.391174,471
822.509583,486
822.628174,466
822.746704,474
822.865234,478
822.983765,490
823.102295,491
823.220825,466
823.339294,485
823.457825,477
823.576355,474
823.694824,491
823.813354,503
823.931885,490
824.050354,507
824.168884,474
824.287354,481
824.405823,487
824.524353,489
824.642822,496
824.761353,502
824.879822,472
824.998291,491
825.116699,478
825.235291,494
825.353699,486
825.472168,478
825.590637,466
825.709106,458
825.827576,475
825.946045,484
826.064453,463
826.182983,479
826.301392,478
826.4198,487
826.53833,471
826.656738,473
826.775208,470
826.893677,460
827.012024,466
827.130493,472
827.248962,471
827.36731,457
827.485779,457
827.604248,467
827.722595,448
827.841064,472
827.959412,442
828.077942,476
828.196289,461
828.314636,445
828.433105,464
828.551514,460
828.669861,456
828.78833,455
828.906677,441
829.025085,476
829.143433,474
829.261841,467
829.38031,453
829.498657,471
829.617004,435
829.735413,448
829.85376,452
829.972107,453
830.090515,440
830.208862,473
830.327209,424
830.445557,448
830.563904,460
830.682312,467
830.800659,450
830.919006,447
831.037354,448
831.155701,455
831.274048,458
831.392395,480
831.51062,456
831.629028,476
831.747314,452
831.865662,459
831.984009,469
832.102356,444
832.220642,457
832.338928,469
832.457275,454
832.575623,449
832.693909,450
832.812134,435
832.930481,464
833.048828,459
833.167114,440
833.2854,465
833.403687,460
833.521973,464
833.640259,463
833.758545,457
833.876831,444
833.995056,469
834.113281,446
834.231628,469
834.349915,460
834.468201,461
834.586426,460
834.704651,458
834.822998,459
834.941162,458
835.059448,454
835.177673,463
835.295959,476
835.414246,445
835.53241,456
835.650635,462
835.768921,452
835.887146,450
836.005371,454
836.123596,466
836.241821,462
836.360046,459
836.478271,447
836.596497,454
836.714722,450
836.832886,470
836.95105,449
837.069336,464
837.1875,471
837.305725,478
837.423889,489
837.542053,473
837.660339,486
837.778503,458
837.896667,473
838.014832,472
838.132996,474
838.25116,489
838.369385,446
838.487488,473
838.605713,470
838.723877,478
838.84198,467
838.960205,469
839.078308,482
839.196472,453
839.314636,452
839.4328,485
839.550964,475
839.669067,480
839.787231,478
839.905396,470
840.023499,461
840.141602,463
840.259766,474
840.377869,459
840.495972,483
840.614136,481
840.732239,483
840.850342,463
840.968445,438
841.086548,465
841.204651,456
841.322754,455
841.440918,462
841.55896,476
841.677002,429
841.795166,473
841.913208,447
842.031311,455
842.149353,441
842.267456,469
842.385498,459
842.503601,465
842.621643,448
842.739746,438
842.857788,435
842.97583,470
843.093933,456
843.211975,448
843.330017,443
843.44812,461
843.566101,446
843.684204,445
843.802246,465
843.920227,451
844.038269,433
844.156311,428
844.274292,439
844.392395,461
844.510376,468
844.628357,462
844.74646,454
844.864441,465
844.982422,451
845.100403,436
845.218384,446
845.336426,459
845.454468,454
845.572449,448
845.69043,454
845.808411,462
845.926453,456
846.044373,442
846.162354,446
846.280396,448
846.398315,450
846.516296,453
846.634216,445
846.752197,453
846.870178,433
846.988098,434
847.106079,448
847.22406,463
847.34198,446
847.4599,446
847.577881,438
847.695801,461
847.813782,451
847.931641,446
848.049561,448
848.167603,459
848.285461,442
848.403381,445
848.521362,422
848.639221,472
848.75708,446
848.875,463
848.99292,450
849.110901,462
849.22876,445
849.34668,464
849.464539,442
849.582458,441
849.700317,442
849.818176,447
849.936096,457
850.053955,452
850.171875,458
850.289673,437
850.407593,465
850.525452,452
850.643311,459
850.761169,463
850.878967,436
850.996887,446
851.114746,459
851.232544,463
851.350403,440
851.468262,465
851.58606,439
851.703979,433
851.821777,441
851.939636,443
852.057434,446
852.175232,445
852.293091,437
852.410889,451
852.528687,433
852.646545,459
852.764343,453
852.88208,450
852.999939,450
853.117676,454
853.235535,464
853.353271,440
853.471069,453
853.588928,466
853.706604,439
853.824402,454
853.9422,437
854.059998,458
854.177734,451
854.295532,457
854.413269,437
854.531006,438
854.648804,435
854.766541,446
854.884277,428
855.002014,454
855.119751,459
855.237549,470
855.355225,444
855.473022,450
855.590698,456
855.708435,448
855.826172,459
855.943848,452
856.061646,437
856.179321,461
856.296997,436
856.414795,473
856.53241,458
856.650085,452
856.767822,440
856.885559,467
857.003174,449
857.120911,434
857.238586,458
857.356201,444
857.473938,451
857.591614,443
857.709351,436
857.826965,453
857.944641,468
858.062317,446
858.179993,435
858.297668,460
858.415283,451
858.532959,467
858.650574,443
858.768188,456
858.885803,439
859.003479,441
859.121094,452
859.23877,456
859.356384,458
859.473999,451
859.591675,467
859.709229,463
859.826843,453
859.944458,453
860.062012,436
860.179626,455
860.297302,461
860.414856,459
860.532471,448
860.650024,460
860.767639,445
860.885193,458
861.002808,446
861.120361,460
861.237976,437
861.35553,429
861.473022,449
861.590698,432
861.708191,456
861.825745,446
861.943298,431
862.060852,442
862.178406,434
862.295959,439
862.413513,460
862.531006,450
862.64856,447
862.766113,451
862.883667,453
863.00116,453
863.118713,434
863.236206,450
863.353699,448
863.471252,468
863.588745,439
863.706177,466
863.82373,451
863.941162,455
864.058716,442
864.176208,460
864.29364,439
864.411194,465
864.528687,435
864.646118,446
864.763611,449
864.881042,466
864.998535,453
865.116028,449
865.233459,448
865.350891,445
865.468384,427
865.585754,445
865.703308,448
865.820679,456
865.938171,458
866.055542,469
866.173035,435
866.290466,439
866.407837,454
866.52533,446
866.6427,441
866.760071,457
866.877563,438
866.994934,454
867.112305,440
867.229736,455
867.347107,446
867.464539,445
867.58197,452
867.699341,456
867.81665,441
867.934082,454
868.051453,450
868.168823,470
868.286194,452
868.403564,455
868.520935,482
868.638306,452
868.755676,434
868.872986,460
868.990295,458
869.107727,448
869.225037,434
869.342346,460
869.459717,446
869.577026,441
869.694336,441
869.811707,460
869.929016,446
870.046326,462
870.163635,449
870.280945,452
870.398254,444
870.515564,455
870.632812,446
870.750183,437
870.867432,445
870.984741,446
871.102051,447
871.219299,460
871.336609,458
871.453918,457
871.571106,458
871.688416,467
871.805664,446
871.922852,454
872.040222,440
872.157471,457
872.274719,443
872.391968,449
872.509155,413
872.626465,439
872.743652,443
872.860962,447
872.978149,459
873.095337,448
873.212646,431
873.329834,448
873.44696,443
873.564209,444
873.681396,466
873.798645,463
873.915894,446
874.03302,438
874.150208,453
874.267456,451
874.384583,451
874.501831,459
874.618958,437
874.736145,462
874.853333,450
874.970459,448
875.087646,459
875.204834,461
875.32196,459
875.439148,441
875.556274,472
875.673401,450
875.790527,434
875.907715,465
876.024841,461
876.141968,458
876.259094,437
876.376282,449
876.493347,454
876.610474,458
876.7276,449
876.844727,453
876.961853,439
877.078918,461
877.195984,451
877.313171,445
877.430237,432
877.547302,479
877.664368,435
877.781433,459
877.898499,442
878.015625,465
878.13269,445
878.249695,445
878.366821,430
878.483887,443
878.600952,447
878.717957,460
878.834961,439
878.952087,456
879.069092,451
879.186157,438
879.303162,448
879.420227,446
879.537231,455
879.654236,436
879.77124,449
879.888306,452
880.005249,459
880.122314,484
880.239319,440
880.356323,454
880.473328,453
880.590271,472
880.707275,443
880.824341,434
880.941284,443
881.058228,454
881.175232,443
881.292236,442
881.40918,451
881.526123,456
881.643066,437
881.760071,454
881.877014,455
881.993958,446
882.11084,438
882.227783,469
882.344727,433
882.46167,447
882.578613,443
882.695618,445
882.812439,450
882.929382,473
883.046326,455
883.163208,473
883.280151,466
883.397034,459
883.513916,439
883.630798,436
883.747742,447
883.864563,438
883.981506,466
884.098389,459
884.21521,445
884.332153,437
884.448975,443
884.565796,458
884.682678,451
884.7995,476
884.916443,424
885.033264,449
885.150085,452
885.266968,462
885.383789,446
885.500671,445
885.617493,444
885.734314,455
885.851196,465
885.967896,449
886.084717,443
886.201599,480
886.318359,445
886.435181,459
886.552002,449
886.668762,458
886.785645,451
886.902344,473
887.019165,454
887.135925,464
887.252747,445
887.369446,458
887.486267,456
887.603027,453
887.719788,469
887.836548,453
887.953247,459
888.070068,452
888.186829,462
888.303528,458
888.420288,463
888.536987,453
888.653687,453
888.770447,474
888.887146,443
889.003967,468
889.120667,450
889.237305,446
889.354065,453
889.470703,458
889.587463,447
889.704163,453
889.820862,450
889.937561,473
890.054199,441
890.170837,460
890.287598,451
890.404236,455
890.520874,453
890.637634,449
890.754211,441
890.87085,430
890.987549,455
891.104187,457
891.220886,454
891.337463,450
891.454102,443
891.57074,482
891.687378,441
891.804077,465
891.920654,451
892.037231,457
892.15387,456
892.270447,440
892.387085,456
892.503723,440
892.6203,445
892.736877,455
892.853516,438
892.970032,458
893.08667,460
893.203186,453
893.319763,466
893.43634,457
893.552917,468
893.669556,457
893.786011,454
893.902588,463
894.019165,456
894.135681,463
894.252197,468
894.368835,463
894.485291,450
894.601868,477
894.718384,454
894.8349,460
894.951355,456
895.067932,482
895.184448,457
895.300964,448
895.417419,447
895.533936,465
895.650452,446
895.766907,474
895.883423,469
895.999878,434
896.116333,445
896.232849,464
896.349304,474
896.465759,468
896.582214,465
896.698669,459
896.815125,441
896.931641,468
897.048035,471
897.164551,465
897.280884,478
897.397339,457
897.513794,467
897.630249,451
897.746582,460
897.863098,460
897.979431,457
898.095886,466
898.212341,444
898.328674,457
898.445129,458
898.561462,474
898.677795,465
898.794312,461
898.910645,438
899.026978,486
899.143433,458
899.259766,450
899.37616,465
899.492493,479
899.608765,451
899.725159,466
899.841553,476
899.957947,475
900.07428,470
900.190552,478
900.306946,463
900.423157,474
900.53949,441
900.655884,484
900.772156,467
900.888489,468
901.004822,465
901.121033,464
901.237366,454
901.353699,469
901.46991,451
901.586304,467
901.702515,455
901.818787,476
901.93512,457
902.051331,473
902.167603,438
902.283875,470
902.400085,461
902.516418,464
902.632629,468
902.74884,471
902.865112,466
902.981384,478
903.097595,459
903.213867,474
903.330017,462
903.446289,465
903.5625,471
903.67865,448
903.794922,456
903.911072,462
904.027344,456
904.143494,476
904.259705,464
904.375916,457
904.492065,454
904.608215,470
904.724426,471
904.840576,460
904.956726,451
905.072876,466
905.189087,456
905.305176,481
905.421387,461
905.537537,463
905.653687,447
905.769775,459
905.885925,452
906.002014,464
906.118164,459
906.234314,465
906.350403,473
906.466492,462
906.582642,459
906.69873,466
906.814758,471
906.930908,467
907.046936,457
907.163086,474
907.279175,464
907.395264,480
907.511353,446
907.62738,470
907.743408,456
907.859497,471
907.975525,475
908.091553,446
908.207703,445
908.32373,464
908.439758,443
908.555786,470
908.671814,464
908.787842,465
908.90387,452
909.019775,466
909.135864,459
909.251892,486
909.367859,470
909.483826,470
909.599854,477
909.715881,466
909.831848,459
909.947815,456
910.063782,469
910.179749,450
910.295776,445
910.411743,462
910.527649,486
910.643616,472
910.759583,463
910.875488,452
910.991455,459
911.107361,475
911.223267,472
911.339294,488
911.4552,444
911.571106,472
911.687073,463
911.802979,453
911.918823,464
912.034729,470
912.150635,449
912.266602,463
912.382446,456
912.498352,459
912.614197,473
912.730103,478
912.846008,478
792.44574,608
792.56488,644
792.68396,687
792.80304,667
792.92218,647
793.041199,595
793.160339,619
793.279419,636
793.398499,605
793.517578,594
793.636658,595
793.755737,603
793.874817,621
793.993896,613
794.112976,612
794.232056,597
794.351074,598
794.470215,580
794.589233,587
794.708313,586
794.827393,569
794.946411,574
795.065552,588
795.18457,597
795.303589,602
795.422668,606
795.541687,604
795.660767,569
795.779846,596
795.898865,571
796.017883,568
796.136963,600
796.255981,608
796.375061,576
796.49408,591
796.613037,593
796.732117,574
796.851135,589
796.970154,572
797.089233,583
797.208191,590
797.327271,567
797.446228,612
797.565186,587
797.684265,575
797.803223,573
797.922241,578
798.04126,609
798.160278,597
798.279297,589
798.398315,554
798.517273,574
798.636292,583
798.75531,585
798.874268,587
798.993286,596
799.112244,576
799.231323,577
799.350281,588
799.469238,578
799.588257,588
799.707153,562
799.826111,585
799.945129,569
800.064087,586
800.183044,590
800.302063,578
800.421021,581
800.539978,591
800.658936,577
800.777893,583
800.896912,577
801.015747,578
801.134705,570
801.253723,578
801.37262,587
801.491638,589
801.610535,588
801.729492,593
801.84845,587
801.967407,595
802.086243,574
802.205261,588
802.324158,592
802.443115,590
802.562073,595
802.680969,591
802.799927,594
802.918762,591
803.037659,597
803.156677,611
803.275574,575
803.39447,580
803.513428,583
803.632263,610
803.751221,577
803.870117,601
803.989014,573
804.107971,615
804.226746,581
804.345642,604
804.4646,605
804.583496,582
804.702393,589
804.821228,600
804.940125,617
805.059021,585
805.177917,610
805.296814,623
805.415649,623
805.534546,601
805.653442,606
805.772278,609
805.891113,594
806.01001,619
806.128906,624
806.247742,611
806.366577,606
806.485413,612
806.604309,602
806.723145,625
806.84198,617
806.960876,604
807.079712,631
807.198486,613
807.317383,585
807.436218,625
807.554993,614
807.673889,608
807.792725,611
807.91156,625
808.030396,627
808.14917,613
808.268005,617
808.386841,611
808.505676,628
808.624451,635
808.743286,603
808.862122,650
808.980896,617
809.099731,653
809.218506,627
809.337341,620
809.456116,631
809.57489,631
809.693726,660
809.8125,635
809.931274,668
810.050049,618
810.168884,629
810.287659,619
810.406372,646
810.525269,631
810.643982,637
810.762756,647
810.881531,609
811.000305,625
811.11908,639
811.237854,619
811.356567,624
811.475403,643
811.594116,647
811.71283,616
811.831604,630
811.950378,668
812.069153,612
812.187927,607
812.30658,637
812.425415,644
812.544128,638
812.662781,622
812.781616,655
812.900269,633
813.019043,621
813.137756,652
813.256531,624
813.375244,632
813.493896,637
813.612671,641
813.731384,637
813.850037,624
813.96875,623
814.087524,631
814.206238,634
814.324951,623
814.443604,624
814.562256,629
814.68103,619
814.799683,632
814.918335,619
815.037109,633
815.155762,617
815.274475,628
815.393188,603
815.511841,629
815.630554,607
815.749146,620
815.867859,613
815.986572,605
816.105164,597
816.223877,617
816.342529,614
816.461182,606
816.579895,638
816.698486,638
816.817139,608
816.935791,639
817.054504,604
817.173096,624
817.291748,600
817.4104,604
817.529053,581
817.647644,596
817.766235,598
817.884949,607
818.00354,586
818.122192,596
818.240845,564
818.359436,558
818.478088,545
818.59668,545
818.715271,543
818.833923,540
818.952515,523
819.071106,526
819.189758,526
819.30835,530
819.426941,517
819.545532,509
819.664124,512
819.782715,521
819.901306,486
820.019897,522
820.138489,510
820.25708,517
820.375671,492
820.494202,506
820.612732,501
820.731384,514
820.849915,490
820.968506,503
821.087097,481
821.205627,488
821.324158,482
821.442749,514
821.561279,502
821.679871,482
821.798401,495
821.916931,513
822.035461,488
822.154053,477
822.272583,491
822.391174,509
822.509583,475
822.628174,473
822.746704,473
822.865234,476
822.983765,485
823.102295,471
823.220825,467
823.339294,472
823.457825,486
823.576355,486
823.694824,496
823.813354,480
823.931885,479
824.050354,496
824.168884,479
824.287354,498
824.405823,493
824.524353,482
824.642822,486
824.761353,502
824.879822,482
824.998291,498
825.116699,488
825.235291,462
825.353699,492
825.472168,465
825.590637,471
825.709106,489
825.827576,483
825.946045,473
826.064453,477
826.182983,463
826.301392,469
826.4198,491
826.53833,450
826.656738,477
826.775208,463
826.893677,479
827.012024,456
827.130493,474
827.248962,457
827.36731,471
827.485779,482
827.604248,461
827.722595,461
827.841064,467
827.959412,472
828.077942,464
828.196289,450
828.314636,459
828.433105,472
828.551514,454
828.669861,465
828.78833,471
828.906677,452
829.025085,458
829.143433,451
829.261841,479
829.38031,471
829.498657,472
829.617004,454
829.735413,479
829.85376,443
829.972107,451
830.090515,462
830.208862,462
830.327209,471
830.445557,447
830.563904,454
830.682312,469
830.800659,454
830.919006,452
831.037354,458
831.155701,460
831.274048,467
831.392395,467
831.51062,457
831.629028,428
831.747314,452
831.865662,444
831.984009,465
832.102356,465
832.220642,470
832.338928,448
832.457275,456
832.575623,458
832.693909,458
832.812134,456
832.930481,461
833.048828,461
833.167114,458
833.2854,459
833.403687,455
833.521973,468
833.640259,462
833.758545,453
833.876831,454
833.995056,448
834.113281,450
834.231628,464
834.349915,449
834.468201,480
834.586426,467
834.704651,448
834.822998,449
834.941162,473
835.059448,457
835.177673,451
835.295959,476
835.414246,463
835.53241,460
835.650635,470
835.768921,430
835.887146,483
836.005371,454
836.123596,487
836.241821,472
836.360046,462
836.478271,477
836.596497,472
836.714722,479
836.832886,467
836.95105,463
837.069336,473
837.1875,475
837.305725,485
837.423889,482
837.542053,480
837.660339,458
837.778503,489
837.896667,483
838.014832,465
838.132996,471
838.25116,481
838.369385,484
838.487488,482
838.605713,475
838.723877,496
838.84198,471
838.960205,468
839.078308,474
839.196472,483
839.314636,460
839.4328,475
839.550964,489
839.669067,473
839.787231,480
839.905396,475
840.023499,490
840.141602,479
840.259766,475
840.377869,479
840.495972,462
840.614136,466
840.732239,462
840.850342,459
840.968445,482
841.086548,468
841.204651,452
841.322754,465
841.440918,452
841.55896,478
841.677002,456
841.795166,465
841.913208,477
842.031311,470
842.149353,450
842.267456,470
842.385498,454
842.503601,473
842.621643,468
842.739746,454
842.857788,460
842.97583,469
843.093933,445
843.211975,464
843.330017,423
843.44812,446
843.566101,441
843.684204,466
843.802246,442
843.920227,463
844.038269,452
844.156311,443
844.274292,457
844.392395,439
844.510376,447
844.628357,474
844.74646,451
844.864441,450
844.982422,478
845.100403,465
845.218384,463
845.336426,459
845.454468,457
845.572449,455
845.69043,436
845.808411,450
845.926453,431
846.044373,454
846.162354,462
846.280396,455
846.398315,447
846.516296,477
846.634216,432
846.752197,454
846.870178,462
846.988098,436
847.106079,454
847.22406,448
847.34198,447
847.4599,452
847.577881,458
847.695801,441
847.813782,440
847.931641,455
848.049561,455
848.167603,430
848.285461,475
848.403381,448
848.521362,451
848.639221,457
848.75708,447
848.875,453
848.99292,439
849.110901,440
849.22876,436
849.34668,465
849.464539,449
849.582458,443
849.700317,457
849.818176,446
849.936096,446
850.053955,452
850.171875,450
850.289673,469
850.407593,453
850.525452,448
850.643311,448
850.761169,455
850.878967,446
850.996887,448
851.114746,472
851.232544,438
851.350403,427
851.468262,433
851.58606,439
851.703979,447
851.821777,446
851.939636,441
852.057434,460
852.175232,443
852.293091,442
852.410889,455
852.528687,448
852.646545,443
852.764343,448
852.88208,438
852.999939,443
853.117676,465
853.235535,433
853.353271,447
853.471069,451
853.588928,452
853.706604,448
853.824402,456
853.9422,471
854.059998,480
854.177734,444
854.295532,442
854.413269,460
854.531006,458
854.648804,446
854.766541,452
854.884277,459
855.002014,459
855.119751,440
855.237549,449
855.355225,448
855.473022,476
855.590698,476
855.708435,452
855.826172,470
855.943848,455
856.061646,445
856.179321,456
856.296997,447
856.414795,470
856.53241,453
856.650085,446
856.767822,471
856.885559,455
857.003174,450
857.120911,459
857.238586,449
857.356201,456
857.473938,466
857.591614,453
857.709351,459
857.826965,485
857.944641,480
858.062317,448
858.179993,449
858.297668,465
858.415283,443
858.532959,451
858.650574,448
858.768188,459
858.885803,443
859.003479,455
859.121094,450
859.23877,447
859.356384,441
859.473999,463
859.591675,443
859.709229,459
859.826843,444
859.944458,448
860.062012,449
860.179626,436
860.297302,460
860.414856,461
860.532471,450
860.650024,458
860.767639,438
860.885193,457
861.002808,447
861.120361,449
861.237976,452
861.35553,436
861.473022,440
861.590698,453
861.708191,459
861.825745,471
861.943298,458
862.060852,463
862.178406,448
862.295959,453
862.413513,459
862.531006,459
862.64856,462
862.766113,437
862.883667,453
863.00116,435
863.118713,456
863.236206,439
863.353699,453
863.471252,451
863.588745,441
863.706177,441
863.82373,448
863.941162,443
864.058716,466
864.176208,452
864.29364,439
864.411194,447
864.528687,449
864.646118,468
864.763611,462
864.881042,462
864.998535,447
865.116028,467
865.233459,455
865.350891,466
865.468384,454
865.585754,458
865.703308,461
865.820679,455
865.938171,456
866.055542,462
866.173035,445
866.290466,441
866.407837,449
866.52533,436
866.6427,442
866.760071,480
866.877563,448
866.994934,462
867.112305,470
867.229736,466
867.347107,480
867.464539,452
867.58197,456
867.699341,460
867.81665,465
867.934082,460
868.051453,436
868.168823,462
868.286194,447
868.403564,462
868.520935,439
868.638306,456
868.755676,441
868.872986,453
868.990295,452
869.107727,452
869.225037,441
869.342346,450
869.459717,441
869.577026,475
869.694336,441
869.811707,457
869.929016,458
870.046326,462
870.163635,452
870.280945,463
870.398254,446
870.515564,453
870.632812,463
870.750183,442
870.867432,452
870.984741,449
871.102051,464
871.219299,450
871.336609,471
871.453918,478
871.571106,454
871.688416,458
871.805664,444
871.922852,455
872.040222,445
872.157471,424
872.274719,447
872.391968,436
872.509155,428
872.626465,455
872.743652,448
872.860962,448
872.978149,465
873.095337,462
873.212646,450
873.329834,468
873.44696,452
873.564209,456
873.681396,460
873.798645,458
873.915894,428
874.03302,438
874.150208,450
874.267456,446
874.384583,453
874.501831,460
874.618958,458
874.736145,454
874.853333,449
874.970459,451
875.087646,448
875.204834,459
875.32196,447
875.439148,463
875.556274,445
875.673401,455
875.790527,471
875.907715,443
876.024841,451
876.141968,448
876.259094,446
876.376282,451
876.493347,459
876.610474,454
876.7276,448
876.844727,468
876.961853,453
877.078918,455
877.195984,457
877.313171,457
877.430237,468
877.547302,455
877.664368,473
877.781433,461
877.898499,456
878.015625,474
878.13269,434
878.249695,456
878.366821,452
878.483887,467
878.600952,451
878.717957,451
878.834961,458
878.952087,452
879.069092,440
879.186157,451
879.303162,454
879.420227,470
879.537231,442
879.654236,463
879.77124,427
879.888306,447
880.005249,448
880.122314,456
880.239319,435
880.356323,466
880.473328,438
880.590271,461
880.707275,442
880.824341,450
880.941284,465
881.058228,460
881.175232,463
881.292236,441
881.40918,465
881.526123,453
881.643066,454
881.760071,444
881.877014,445
881.993958,460
882.11084,440
882.227783,448
882.344727,462
882.46167,445
882.578613,438
882.695618,473
882.812439,439
882.929382,454
883.046326,460
883.163208,466
883.280151,456
883.397034,461
883.513916,464
883.630798,444
883.747742,453
883.864563,453
883.981506,449
884.098389,454
884.21521,457
884.332153,486
884.448975,459
884.565796,441
884.682678,453
884.7995,453
884.916443,469
885.033264,448
885.150085,443
885.266968,465
885.383789,430
885.500671,474
885.617493,467
885.734314,457
885.851196,459
885.967896,465
886.084717,468
886.201599,451
886.318359,472
886.435181,451
886.552002,440
886.668762,473
886.785645,448
886.902344,463
887.019165,447
887.135925,463
887.252747,469
887.369446,486
887.486267,452
887.603027,463
887.719788,472
887.836548,484
887.953247,464
888.070068,488
888.186829,457
888.303528,439
888.420288,458
888.536987,458
888.653687,451
888.770447,449
888.887146,452
889.003967,461
889.120667,470
889.237305,461
889.354065,461
889.470703,467
889.587463,456
889.704163,469
889.820862,443
889.937561,447
890.054199,447
890.170837,474
890.287598,462
890.404236,464
890.520874,461
890.637634,452
890.754211,463
890.87085,466
890.987549,474
891.104187,446
891.220886,460
891.337463,464
891.454102,452
891.57074,466
891.687378,450
891.804077,477
891.920654,444
892.037231,467
892.15387,471
892.270447,467
892.387085,464
892.503723,459
892.6203,463
892.736877,467
892.853516,460
892.970032,475
893.08667,458
893.203186,456
893.319763,439
893.43634,459
893.552917,449
893.669556,474
893.786011,452
893.902588,473
894.019165,449
894.135681,475
894.252197,464
894.368835,465
894.485291,475
894.601868,472
894.718384,465
894.8349,467
894.951355,456
895.067932,464
895.184448,462
895.300964,451
895.417419,464
895.533936,461
895.650452,447
895.766907,449
895.883423,463
895.999878,482
896.116333,464
896.232849,462
896.349304,454
896.465759,438
896.582214,445
896.698669,483
896.815125,457
896.931641,478
897.048035,456
897.164551,446
897.280884,469
897.397339,462
897.513794,455
897.630249,463
897.746582,463
897.863098,468
897.979431,464
898.095886,469
898.212341,475
898.328674,466
898.445129,444
898.561462,435
898.677795,484
898.794312,447
898.910645,453
899.026978,473
899.143433,460
899.259766,454
899.37616,472
899.492493,471
899.608765,444
899.725159,465
899.841553,443
899.957947,464
900.07428,480
900.190552,459
900.306946,458
900.423157,475
900.53949,456
900.655884,464
900.772156,486
900.888489,465
901.004822,449
901.121033,461
901.237366,474
901.353699,471
901.46991,472
901.586304,456
901.702515,456
901.818787,482
901.93512,464
902.051331,477
902.167603,466
902.283875,481
902.400085,470
902.516418,475
902.632629,473
902.74884,467
902.865112,469
902.981384,471
903.097595,449
903.213867,464
903.330017,479
903.446289,485
903.5625,484
903.67865,474
903.794922,466
903.911072,476
904.027344,469
904.143494,475
904.259705,474
904.375916,467
904.492065,471
904.608215,484
904.724426,464
904.840576,462
904.956726,462
905.072876,463
905.189087,468
905.305176,478
905.421387,468
905.537537,463
905.653687,455
905.769775,460
905.885925,483
906.002014,466
906.118164,449
906.234314,475
906.350403,470
906.466492,480
906.582642,478
906.69873,471
906.814758,471
906.930908,484
907.046936,454
907.163086,465
907.279175,455
907.395264,483
907.511353,462
907.62738,462
907.743408,476
907.859497,458
907.975525,468
908.091553,459
908.207703,461
908.32373,479
908.439758,455
908.555786,479
908.671814,459
908.787842,470
908.90387,464
909.019775,456
909.135864,452
909.251892,477
909.367859,469
909.483826,478
909.599854,447
909.715881,485
909.831848,461
909.947815,480
910.063782,453
910.179749,474
910.295776,457
910.411743,483
910.527649,466
910.643616,492
910.759583,468
910.875488,487
910.991455,468
911.107361,499
911.223267,465
911.339294,479
911.4552,475
911.571106,482
911.687073,471
911.802979,462
911.918823,470
912.034729,462
912.150635,449
912.266602,473
912.382446,458
912.498352,465
912.614197,482
912.730103,479
912.846008,474
792.44574,618
792.56488,669
792.68396,723
792.80304,660
792.92218,641
793.041199,604
793.160339,603
793.279419,645
793.398499,622
793.517578,597
793.636658,594
793.755737,612
793.874817,631
793.993896,610
794.112976,632
794.232056,584
794.351074,603
794.470215,592
794.589233,604
794.708313,596
794.827393,578
794.946411,587
795.065552,597
795.18457,599
795.303589,598
795.422668,600
795.541687,602
795.660767,585
795.779846,566
795.898865,575
796.017883,588
796.136963,595
796.255981,582
796.375061,595
796.49408,584
796.613037,577
796.732117,575
796.851135,591
796.970154,582
797.089233,592
797.208191,586
797.327271,591
797.446228,592
797.565186,600
797.684265,577
797.803223,567
797.922241,594
798.04126,591
798.160278,584
798.279297,564
798.398315,586
798.517273,577
798.636292,570
798.75531,565
798.874268,579
798.993286,584
799.112244,574
799.231323,565
799.350281,597
799.469238,572
799.588257,587
799.707153,586
799.826111,588
799.945129,563
800.064087,593
800.183044,583
800.302063,596
800.421021,577
800.539978,570
800.658936,590
800.777893,577
800.896912,585
801.015747,590
801.134705,587
801.253723,592
801.37262,576
801.491638,600
801.610535,590
801.729492,599
801.84845,557
801.967407,577
802.086243,580
802.205261,600
802.324158,573
802.443115,588
802.562073,627
802.680969,610
802.799927,571
802.918762,584
803.037659,593
803.156677,596
803.275574,581
803.39447,595
803.513428,623
803.632263,601
803.751221,603
803.870117,589
803.989014,588
804.107971,600
804.226746,573
804.345642,601
804.4646,611
804.583496,633
804.702393,611
804.821228,599
804.940125,634
805.059021,621
805.177917,593
805.296814,628
805.415649,612
805.534546,608
805.653442,581
805.772278,606
805.891113,627
806.01001,618
806.128906,592
806.247742,640
806.366577,624
806.485413,635
806.604309,601
806.723145,606
806.84198,580
806.960876,603
807.079712,617
807.198486,621
807.317383,620
807.436218,611
807.554993,599
807.673889,619
807.792725,597
807.91156,619
808.030396,609
808.14917,601
808.268005,621
808.386841,636
808.505676,619
808.624451,608
808.743286,611
808.862122,640
808.980896,636
809.099731,614
809.218506,616
809.337341,634
809.456116,630
809.57489,593
809.693726,648
809.8125,619
809.931274,642
810.050049,648
810.168884,611
810.287659,628
810.406372,642
810.525269,624
810.643982,641
810.762756,652
810.881531,622
811.000305,628
811.11908,643
811.237854,610
811.356567,617
811.475403,640
811.594116,626
811.71283,629
811.831604,630
811.950378,627
812.069153,626
812.187927,627
812.30658,641
812.425415,618
812.544128,622
812.662781,632
812.781616,629
812.900269,626
813.019043,639
813.137756,634
813.256531,647
813.375244,637
813.493896,639
813.612671,635
813.731384,616
813.850037,632
813.96875,631
814.087524,627
814.206238,636
814.324951,635
814.443604,619
814.562256,641
814.68103,621
814.799683,654
814.918335,626
815.037109,633
815.155762,630
815.274475,621
815.393188,629
815.511841,618
815.630554,621
815.749146,601
815.867859,601
815.986572,609
816.105164,636
816.223877,627
816.342529,612
816.461182,606
816.579895,640
816.698486,609
816.817139,603
816.935791,645
817.054504,622
817.173096,618
817.291748,603
817.4104,594
817.529053,595
817.647644,625
817.766235,584
817.884949,585
818.00354,559
818.122192,580
818.240845,541
818.359436,564
818.478088,572
818.59668,539
818.715271,547
818.833923,542
818.952515,520
819.071106,531
819.189758,493
819.30835,530
819.426941,513
819.545532,504
819.664124,496
819.782715,507
819.901306,505
820.019897,525
820.138489,505
820.25708,502
820.375671,510
820.494202,500
820.612732,503
820.731384,510
820.849915,489
820.968506,480
821.087097,491
821.205627,507
821.324158,486
821.442749,485
821.561279,480
821.679871,492
821.798401,483
821.916931,483
822.035461,483
822.154053,487
822.272583,494
822.391174,487
822.509583,515
822.628174,500
822.746704,471
822.865234,495
822.983765,475
823.102295,483
823.220825,476
823.339294,506
823.457825,491
823.576355,496
823.694824,494
823.813354,497
823.931885,477
824.050354,477
824.168884,507
824.287354,487
824.405823,515
824.524353,501
824.642822,471
824.761353,502
824.879822,504
824.998291,482
825.116699,466
825.235291,501
825.353699,516
825.472168,504
825.590637,477
825.709106,500
825.827576,471
825.946045,475
826.064453,487
826.182983,491
826.301392,470
826.4198,484
826.53833,484
826.656738,469
826.775208,462
826.893677,479
827.012024,498
827.130493,477
827.248962,471
827.36731,470
827.485779,476
827.604248,481
827.722595,467
827.841064,471
827.959412,455
828.077942,468
828.196289,448
828.314636,472
828.433105,481
828.551514,469
828.669861,450
828.78833,468
828.906677,467
829.025085,470
829.143433,478
829.261841,480
829.38031,457
829.498657,465
829.617004,456
829.735413,466
829.85376,453
829.972107,474
830.090515,458
830.208862,464
830.327209,458
830.445557,457
830.563904,473
830.682312,459
830.800659,469
830.919006,463
831.037354,465
831.155701,481
831.274048,464
831.392395,448
831.51062,461
831.629028,449
831.747314,458
831.865662,456
831.984009,461
832.102356,459
832.220642,464
832.338928,456
832.457275,455
832.575623,464
832.693909,462
832.812134,455
832.930481,483
833.048828,468
833.167114,454
833.2854,463
833.403687,452
833.521973,472
833.640259,448
833.758545,462
833.876831,447
833.995056,451
834.113281,460
834.231628,457
834.349915,455
834.468201,458
834.586426,468
834.704651,454
834.822998,437
834.941162,468
835.059448,470
835.177673,450
835.295959,467
835.414246,464
835.53241,456
835.650635,478
835.768921,450
835.887146,456
836.005371,458
836.123596,452
836.241821,476
836.360046,472
836.478271,443
836.596497,486
836.714722,450
836.832886,485
836.95105,466
837.069336,473
837.1875,469
837.305725,484
837.423889,478
837.542053,473
837.660339,477
837.778503,478
837.896667,484
838.014832,483
838.132996,478
838.25116,450
838.369385,464
838.487488,477
838.605713,471
838.723877,465
838.84198,480
838.960205,471
839.078308,461
839.196472,479
839.314636,459
839.4328,467
839.550964,479
839.669067,475
839.787231,470
839.905396,476
840.023499,461
840.141602,432
840.259766,472
840.377869,484
840.495972,484
840.614136,478
840.732239,475
840.850342,471
840.968445,472
841.086548,462
841.204651,459
841.322754,472
841.440918,459
841.55896,487
841.677002,463
841.795166,485
841.913208,462
842.031311,463
842.149353,466
842.267456,438
842.385498,461
842.503601,458
842.621643,444
842.739746,459
842.857788,474
842.97583,465
843.093933,453
843.211975,459
843.330017,466
843.44812,471
843.566101,441
843.684204,454
843.802246,453
843.920227,456
844.038269,424
844.156311,449
844.274292,450
844.392395,464
844.510376,466
844.628357,462
844.74646,463
844.864441,443
844.982422,432
845.100403,459
845.218384,443
845.336426,442
845.454468,473
845.572449,471
845.69043,462
845.808411,450
845.926453,446
846.044373,466
846.162354,424
846.280396,442
846.398315,458
846.516296,437
846.634216,432
846.752197,459
846.870178,457
846.988098,458
847.106079,447
847.22406,458
847.34198,470
847.4599,432
847.577881,442
847.695801,456
847.813782,455
847.931641,446
848.049561,439
848.167603,433
848.285461,444
848.403381,446
848.521362,446
848.639221,451
848.75708,438
848.875,448
848.99292,478
849.110901,459
849.22876,456
849.34668,448
849.464539,446
849.582458,458
849.700317,456
849.818176,457
849.936096,435
850.053955,469
850.171875,442
850.289673,459
850.407593,450
850.525452,461
850.643311,457
850.761169,454
850.878967,446
850.996887,465
851.114746,455
851.232544,443
851.350403,431
851.468262,455
851.58606,441
851.703979,453
851.821777,443
851.939636,454
852.057434,435
852.175232,469
852.293091,444
852.410889,437
852.528687,443
852.646545,464
852.764343,438
852.88208,451
852.999939,454
853.117676,443
853.235535,444
853.353271,474
853.471069,463
853.588928,438
853.706604,461
853.824402,461
853.9422,461
854.059998,458
854.177734,443
854.295532,452
854.413269,456
854.531006,435
854.648804,463
854.766541,464
854.884277,460
855.002014,459
855.119751,445
855.237549,452
855.355225,458
855.473022,456
855.590698,465
855.708435,450
855.826172,458
855.943848,454
856.061646,463
856.179321,448
856.296997,456
856.414795,461
856.53241,463
856.650085,469
856.767822,455
856.885559,470
857.003174,456
857.120911,471
857.238586,455
857.356201,469
857.473938,444
857.591614,441
857.709351,457
857.826965,470
857.944641,461
858.062317,471
858.179993,450
858.297668,449
858.415283,462
858.532959,445
858.650574,464
858.768188,440
858.885803,435
859.003479,457
859.121094,462
859.23877,456
859.356384,453
859.473999,448
859.591675,462
859.709229,454
859.826843,446
859.944458,464
860.062012,468
860.179626,447
860.297302,452
860.414856,472
860.532471,449
860.650024,444
860.767639,431
860.885193,463
861.002808,438
861.120361,433
861.237976,457
861.35553,472
861.473022,458
861.590698,444
861.708191,443
861.825745,460
861.943298,436
862.060852,470
862.178406,461
862.295959,462
862.413513,467
862.531006,422
862.64856,452
862.766113,464
862.883667,445
863.00116,445
863.118713,434
863.236206,476
863.353699,460
863.471252,475
863.588745,450
863.706177,447
863.82373,452
863.941162,449
864.058716,448
864.176208,469
864.29364,454
864.411194,469
864.528687,437
864.646118,466
864.763611,469
864.881042,459
864.998535,437
865.116028,460
865.233459,456
865.350891,453
865.468384,451
865.585754,466
865.703308,464
865.820679,449
865.938171,456
866.055542,462
866.173035,457
866.290466,451
866.407837,445
866.52533,450
866.6427,449
866.760071,443
866.877563,475
866.994934,466
867.112305,451
867.229736,446
867.347107,451
867.464539,456
867.58197,462
867.699341,458
867.81665,448
867.934082,468
868.051453,462
868.168823,430
868.286194,470
868.403564,461
868.520935,460
868.638306,461
868.755676,447
868.872986,442
868.990295,442
869.107727,461
869.225037,460
869.342346,454
869.459717,468
869.577026,448
869.694336,460
869.811707,451
869.929016,459
870.046326,459
870.163635,461
870.280945,465
870.398254,461
870.515564,442
870.632812,475
870.750183,452
870.867432,450
870.984741,468
871.102051,437
871.219299,444
871.336609,459
871.453918,457
871.571106,459
871.688416,477
871.805664,463
871.922852,455
872.040222,451
872.157471,451
872.274719,468
872.391968,464
872.509155,461
872.626465,452
872.743652,456
872.860962,437
872.978149,452
873.095337,452
873.212646,452
873.329834,462
873.44696,445
873.564209,455
873.681396,459
873.798645,455
873.915894,468
874.03302,458
874.150208,456
874.267456,454
874.384583,453
874.501831,465
874.618958,447
874.736145,458
874.853333,457
874.970459,459
875.087646,468
875.204834,456
875.32196,459
875.439148,446
875.556274,460
875.673401,442
875.790527,467
875.907715,446
876.024841,433
876.141968,459
876.259094,450
876.376282,460
876.493347,470
876.610474,459
876.7276,460
876.844727,450
876.961853,439
877.078918,458
877.195984,452
877.313171,447
877.430237,440
877.547302,466
877.664368,461
877.781433,465
877.898499,472
878.015625,455
878.13269,465
878.249695,456
878.366821,447
878.483887,460
878.600952,457
878.717957,455
878.834961,457
878.952087,457
879.069092,440
879.186157,462
879.303162,462
879.420227,460
879.537231,443
879.654236,437
879.77124,446
879.888306,455
880.005249,449
880.122314,431
880.239319,454
880.356323,465
880.473328,468
880.590271,442
880.707275,454
880.824341,473
880.941284,439
881.058228,444
881.175232,439
881.292236,449
881.40918,449
881.526123,452
881.643066,446
881.760071,473
881.877014,440
881.993958,457
882.11084,435
882.227783,478
882.344727,448
882.46167,445
882.578613,448
882.695618,438
882.812439,440
882.929382,462
883.046326,466
883.163208,448
883.280151,444
883.397034,466
883.513916,471
883.630798,466
883.747742,461
883.864563,446
883.981506,437
884.098389,480
884.21521,462
884.332153,478
884.448975,465
884.565796,460
884.682678,454
884.7995,444
884.916443,457
885.033264,471
885.150085,465
885.266968,470
885.383789,465
885.500671,476
885.617493,451
885.734314,463
885.851196,471
885.967896,480
886.084717,446
886.201599,478
886.318359,464
886.435181,477
886.552002,457
886.668762,490
886.785645,468
886.902344,476
887.019165,472
887.135925,441
887.252747,470
887.369446,480
887.486267,477
887.603027,483
887.719788,468
887.836548,433
887.953247,462
888.070068,469
888.186829,461
888.303528,454
888.420288,462
888.536987,449
888.653687,454
888.770447,456
888.887146,461
889.003967,470
889.120667,437
889.237305,441
889.354065,468
889.470703,458
889.587463,477
889.704163,459
889.820862,450
889.937561,471
890.054199,456
890.170837,469
890.287598,458
890.404236,463
890.520874,456
890.637634,470
890.754211,471
890.87085,458
890.987549,460
891.104187,464
891.220886,443
891.337463,459
891.454102,462
891.57074,472
891.687378,447
891.804077,462
891.920654,456
892.037231,449
892.15387,451
892.270447,467
892.387085,467
892.503723,464
892.6203,470
892.736877,453
892.853516,460
892.970032,456
893.08667,465
893.203186,478
893.319763,448
893.43634,471
893.552917,471
893.669556,469
893.786011,454
893.902588,480
894.019165,457
894.135681,468
894.252197,471
894.368835,468
894.485291,475
894.601868,469
894.718384,469
894.8349,458
894.951355,442
895.067932,469
895.184448,468
895.300964,476
895.417419,448
895.533936,473
895.650452,457
895.766907,480
895.883423,446
895.999878,494
896.116333,466
896.232849,464
896.349304,468
896.465759,458
896.582214,442
896.698669,467
896.815125,454
896.931641,461
897.048035,469
897.164551,479
897.280884,458
897.397339,472
897.513794,477
897.630249,465
897.746582,456
897.863098,487
897.979431,455
898.095886,483
898.212341,450
898.328674,474
898.445129,464
898.561462,472
898.677795,465
898.794312,469
898.910645,459
899.026978,468
899.143433,451
899.259766,473
899.37616,453
899.492493,455
899.608765,454
899.725159,475
899.841553,466
899.957947,466
900.07428,464
900.190552,468
900.306946,474
900.423157,457
900.53949,462
900.655884,473
900.772156,452
900.888489,452
901.004822,452
901.121033,465
901.237366,461
901.353699,459
901.46991,476
901.586304,480
901.702515,455
901.818787,472
901.93512,456
902.051331,466
902.167603,454
902.283875,451
902.400085,456
902.516418,477
902.632629,455
902.74884,481
902.865112,481
902.981384,474
903.097595,470
903.213867,482
903.330017,464
903.446289,469
903.5625,471
903.67865,478
903.794922,477
903.911072,474
904.027344,466
904.143494,461
904.259705,457
904.375916,474
904.492065,465
904.608215,462
904.724426,479
904.840576,480
904.956726,462
905.072876,463
905.189087,459
905.305176,472
905.421387,475
905.537537,475
905.653687,449
905.769775,460
905.885925,482
906.002014,468
906.118164,466
906.234314,483
906.350403,482
906.466492,481
906.582642,468
906.69873,494
906.814758,473
906.930908,477
907.046936,465
907.163086,482
907.279175,446
907.395264,471
907.511353,467
907.62738,479
907.743408,455
907.859497,471
907.975525,468
908.091553,472
908.207703,463
908.32373,481
908.439758,474
908.555786,474
908.671814,482
908.787842,471
908.90387,449
909.019775,448
909.135864,483
909.251892,469
909.367859,464
909.483826,466
909.599854,482
909.715881,464
909.831848,467
909.947815,471
910.063782,456
910.179749,480
910.295776,460
910.411743,461
910.527649,481
910.643616,450
910.759583,470
910.875488,476
910.991455,474
911.107361,469
911.223267,484
911.339294,468
911.4552,477
911.571106,479
911.687073,488
911.802979,477
911.918823,464
912.034729,499
912.150635,469
912.266602,473
912.382446,455
912.498352,467
912.614197,476
912.730103,474
912.846008,455
