792.44574,598
792.56488,651
792.68396,718
792.80304,683
792.92218,608
793.041199,629
793.160339,613
793.279419,638
793.398499,606
793.517578,605
793.636658,609
793.755737,638
793.874817,652
793.993896,647
794.112976,602
794.232056,601
794.351074,599
794.470215,615
794.589233,582
794.708313,580
794.827393,601
794.946411,605
795.065552,616
795.18457,625
795.303589,617
795.422668,588
795.541687,619
795.660767,615
795.779846,595
795.898865,600
796.017883,581
796.136963,594
796.255981,580
796.375061,608
796.49408,585
796.613037,590
796.732117,578
796.851135,611
796.970154,581
797.089233,583
797.208191,590
797.327271,570
797.446228,582
797.565186,599
797.684265,590
797.803223,606
797.922241,591
798.04126,586
798.160278,582
798.279297,578
798.398315,573
798.517273,575
798.636292,567
798.75531,572
798.874268,564
798.993286,601
799.112244,594
799.231323,601
799.350281,590
799.469238,577
799.588257,583
799.707153,584
799.826111,563
799.945129,581
800.064087,583
800.183044,589
800.302063,593
800.421021,571
800.539978,582
800.658936,560
800.777893,584
800.896912,575
801.015747,587
801.134705,567
801.253723,579
801.37262,593
801.491638,604
801.610535,573
801.729492,584
801.84845,572
801.967407,588
802.086243,596
802.205261,562
802.324158,598
802.443115,601
802.562073,595
802.680969,575
802.799927,591
802.918762,588
803.037659,605
803.156677,579
803.275574,570
803.39447,563
803.513428,593
803.632263,593
803.751221,616
803.870117,615
803.989014,603
804.107971,602
804.226746,589
804.345642,578
804.4646,618
804.583496,613
804.702393,574
804.821228,630
804.940125,608
805.059021,605
805.177917,593
805.296814,596
805.415649,591
805.534546,566
805.653442,594
805.772278,598
805.891113,610
806.01001,612
806.128906,619
806.247742,610
806.366577,615
806.485413,603
806.604309,609
806.723145,608
806.84198,627
806.960876,624
807.079712,621
807.198486,590
807.317383,613
807.436218,641
807.554993,589
807.673889,593
807.792725,616
807.91156,624
808.030396,603
808.14917,626
808.268005,594
808.386841,614
808.505676,611
808.624451,644
808.743286,617
808.862122,627
808.980896,618
809.099731,657
809.218506,635
809.337341,617
809.456116,641
809.57489,637
809.693726,590
809.8125,620
809.931274,615
810.050049,621
810.168884,604
810.287659,640
810.406372,630
810.525269,644
810.643982,617
810.762756,615
810.881531,622
811.000305,626
811.11908,620
811.237854,622
811.356567,644
811.475403,628
811.594116,623
811.71283,624
811.831604,624
811.950378,619
812.069153,633
812.187927,635
812.30658,645
812.425415,644
812.544128,628
812.662781,663
812.781616,621
812.900269,624
813.019043,618
813.137756,603
813.256531,625
813.375244,637
813.493896,593
813.612671,666
813.731384,634
813.850037,622
813.96875,645
814.087524,618
814.206238,614
814.324951,626
814.443604,624
814.562256,591
814.68103,637
814.799683,608
814.918335,633
815.037109,615
815.155762,632
815.274475,641
815.393188,584
815.511841,634
815.630554,624
815.749146,601
815.867859,612
815.986572,597
816.105164,588
816.223877,627
816.342529,594
816.461182,628
816.579895,627
816.698486,627
816.817139,586
816.935791,620
817.054504,612
817.173096,608
817.291748,610
817.4104,586
817.529053,605
817.647644,602
817.766235,580
817.884949,583
818.00354,562
818.122192,569
818.240845,577
818.359436,558
818.478088,558
818.59668,538
818.715271,509
818.833923,531
818.952515,541
819.071106,506
819.189758,537
819.30835,513
819.426941,507
819.545532,504
819.664124,521
819.782715,516
819.901306,515
820.019897,497
820.138489,498
820.25708,494
820.375671,474
820.494202,507
820.612732,481
820.731384,491
820.849915,496
820.968506,477
821.087097,488
821.205627,484
821.324158,496
821.442749,485
821.561279,499
821.679871,482
821.798401,489
821.916931,505
822.035461,493
822.154053,485
822.272583,479
822.391174,479
822.509583,500
822.628174,468
822.746704,470
822.865234,478
822.983765,478
823.102295,475
823.220825,506
823.339294,475
823.457825,475
823.576355,468
823.694824,486
823.813354,481
823.931885,504
824.050354,513
824.168884,477
824.287354,482
824.405823,496
824.524353,489
824.642822,487
824.761353,509
824.879822,495
824.998291,499
825.116699,484
825.235291,488
825.353699,491
825.472168,459
825.590637,482
825.709106,484
825.827576,481
825.946045,485
826.064453,470
826.182983,471
826.301392,478
826.4198,476
826.53833,455
826.656738,459
826.775208,470
826.893677,454
827.012024,462
827.130493,446
827.248962,485
827.36731,471
827.485779,472
827.604248,470
827.722595,477
827.841064,454
827.959412,466
828.077942,482
828.196289,485
828.314636,474
828.433105,464
828.551514,479
828.669861,463
828.78833,462
828.906677,460
829.025085,456
829.143433,454
829.261841,459
829.38031,472
829.498657,454
829.617004,459
829.735413,471
829.85376,453
829.972107,462
830.090515,449
830.208862,475
830.327209,468
830.445557,443
830.563904,485
830.682312,455
830.800659,462
830.919006,469
831.037354,481
831.155701,461
831.274048,483
831.392395,451
831.51062,452
831.629028,475
831.747314,460
831.865662,454
831.984009,465
832.102356,464
832.220642,456
832.338928,464
832.457275,461
832.575623,444
832.693909,451
832.812134,489
832.930481,451
833.048828,479
833.167114,456
833.2854,443
833.403687,468
833.521973,478
833.640259,438
833.758545,458
833.876831,456
833.995056,450
834.113281,456
834.231628,460
834.349915,458
834.468201,472
834.586426,464
834.704651,468
834.822998,467
834.941162,471
835.059448,471
835.177673,460
835.295959,472
835.414246,450
835.53241,428
835.650635,467
835.768921,458
835.887146,461
836.005371,478
836.123596,448
836.241821,448
836.360046,488
836.478271,467
836.596497,478
836.714722,465
836.832886,485
836.95105,438
837.069336,482
837.1875,491
837.305725,472
837.423889,466
837.542053,490
837.660339,486
837.778503,495
837.896667,493
838.014832,453
838.132996,468
838.25116,488
838.369385,474
838.487488,470
838.605713,494
838.723877,465
838.84198,473
838.960205,471
839.078308,488
839.196472,467
839.314636,491
839.4328,473
839.550964,467
839.669067,441
839.787231,470
839.905396,479
840.023499,461
840.141602,469
840.259766,466
840.377869,459
840.495972,472
840.614136,484
840.732239,471
840.850342,468
840.968445,481
841.086548,460
841.204651,486
841.322754,457
841.440918,451
841.55896,451
841.677002,464
841.795166,470
841.913208,448
842.031311,469
842.149353,446
842.267456,469
842.385498,461
842.503601,466
842.621643,462
842.739746,465
842.857788,450
842.97583,446
843.093933,464
843.211975,452
843.330017,442
843.44812,474
843.566101,477
843.684204,450
843.802246,454
843.920227,454
844.038269,456
844.156311,442
844.274292,453
844.392395,449
844.510376,460
844.628357,425
844.74646,468
844.864441,442
844.982422,469
845.100403,436
845.218384,445
845.336426,454
845.454468,457
845.572449,457
845.69043,452
845.808411,450
845.926453,470
846.044373,460
846.162354,445
846.280396,461
846.398315,458
846.516296,462
846.634216,451
846.752197,455
846.870178,438
846.988098,448
847.106079,466
847.22406,456
847.34198,446
847.4599,471
847.577881,456
847.695801,439
847.813782,445
847.931641,457
848.049561,461
848.167603,435
848.285461,451
848.403381,463
848.521362,443
848.639221,431
848.75708,460
848.875,462
848.99292,439
849.110901,459
849.22876,453
849.34668,455
849.464539,444
849.582458,458
849.700317,451
849.818176,443
849.936096,458
850.053955,449
850.171875,449
850.289673,455
850.407593,439
850.525452,457
850.643311,447
850.761169,447
850.878967,443
850.996887,436
851.114746,452
851.232544,445
851.350403,465
851.468262,444
851.58606,460
851.703979,452
851.821777,465
851.939636,465
852.057434,445
852.175232,445
852.293091,462
852.410889,458
852.528687,461
852.646545,439
852.764343,447
852.88208,442
852.999939,454
853.117676,449
853.235535,444
853.353271,430
853.471069,447
853.588928,452
853.706604,451
853.824402,445
853.9422,447
854.059998,463
854.177734,443
854.295532,459
854.413269,455
854.531006,455
854.648804,464
854.766541,454
854.884277,451
855.002014,457
855.119751,447
855.237549,443
855.355225,470
855.473022,460
855.590698,467
855.708435,453
855.826172,450
855.943848,475
856.061646,455
856.179321,470
856.296997,454
856.414795,449
856.53241,454
856.650085,454
856.767822,442
856.885559,469
857.003174,456
857.120911,467
857.238586,455
857.356201,461
857.473938,460
857.591614,438
857.709351,465
857.826965,463
857.944641,445
858.062317,472
858.179993,451
858.297668,466
858.415283,444
858.532959,470
858.650574,436
858.768188,461
858.885803,477
859.003479,442
859.121094,467
859.23877,449
859.356384,460
859.473999,449
859.591675,458
859.709229,449
859.826843,450
859.944458,448
860.062012,454
860.179626,433
860.297302,458
860.414856,467
860.532471,464
860.650024,438
860.767639,459
860.885193,453
861.002808,463
861.120361,430
861.237976,451
861.35553,471
861.473022,454
861.590698,455
861.708191,442
861.825745,454
861.943298,464
862.060852,435
862.178406,464
862.295959,454
862.413513,457
862.531006,450
862.64856,449
862.766113,446
862.883667,447
863.00116,467
863.118713,461
863.236206,449
863.353699,463
863.471252,448
863.588745,462
863.706177,459
863.82373,462
863.941162,452
864.058716,449
864.176208,462
864.29364,453
864.411194,435
864.528687,449
864.646118,439
864.763611,451
864.881042,450
864.998535,433
865.116028,438
865.233459,458
865.350891,442
865.468384,473
865.585754,458
865.703308,450
865.820679,457
865.938171,447
866.055542,476
866.173035,459
866.290466,449
866.407837,460
866.52533,468
866.6427,450
866.760071,461
866.877563,456
866.994934,448
867.112305,464
867.229736,460
867.347107,455
867.464539,456
867.58197,453
867.699341,464
867.81665,446
867.934082,430
868.051453,462
868.168823,466
868.286194,458
868.403564,463
868.520935,448
868.638306,464
868.755676,463
868.872986,463
868.990295,477
869.107727,465
869.225037,470
869.342346,439
869.459717,455
869.577026,468
869.694336,471
869.811707,457
869.929016,460
870.046326,448
870.163635,458
870.280945,456
870.398254,458
870.515564,474
870.632812,470
870.750183,457
870.867432,468
870.984741,448
871.102051,465
871.219299,460
871.336609,446
871.453918,446
871.571106,459
871.688416,431
871.805664,443
871.922852,437
872.040222,462
872.157471,448
872.274719,454
872.391968,438
872.509155,481
872.626465,467
872.743652,462
872.860962,454
872.978149,456
873.095337,451
873.212646,466
873.329834,452
873.44696,470
873.564209,449
873.681396,452
873.798645,457
873.915894,455
874.03302,443
874.150208,461
874.267456,455
874.384583,457
874.501831,482
874.618958,454
874.736145,446
874.853333,450
874.970459,442
875.087646,458
875.204834,462
875.32196,436
875.439148,435
875.556274,462
875.673401,468
875.790527,459
875.907715,446
876.024841,457
876.141968,431
876.259094,428
876.376282,458
876.493347,468
876.610474,461
876.7276,465
876.844727,449
876.961853,466
877.078918,452
877.195984,456
877.313171,459
877.430237,450
877.547302,451
877.664368,473
877.781433,457
877.898499,457
878.015625,466
878.13269,460
878.249695,448
878.366821,470
878.483887,454
878.600952,462
878.717957,443
878.834961,444
878.952087,461
879.069092,450
879.186157,462
879.303162,451
879.420227,448
879.537231,457
879.654236,448
879.77124,448
879.888306,457
880.005249,468
880.122314,429
880.239319,445
880.356323,465
880.473328,466
880.590271,447
880.707275,438
880.824341,453
880.941284,462
881.058228,448
881.175232,452
881.292236,438
881.40918,456
881.526123,458
881.643066,447
881.760071,430
881.877014,477
881.993958,458
882.11084,466
882.227783,437
882.344727,482
882.46167,458
882.578613,480
882.695618,452
882.812439,454
882.929382,451
883.046326,469
883.163208,451
883.280151,445
883.397034,453
883.513916,463
883.630798,440
883.747742,455
883.864563,459
883.981506,458
884.098389,439
884.21521,462
884.332153,461
884.448975,453
884.565796,470
884.682678,458
884.7995,464
884.916443,454
885.033264,465
885.150085,454
885.266968,450
885.383789,459
885.500671,438
885.617493,470
885.734314,467
885.851196,448
885.967896,477
886.084717,454
886.201599,443
886.318359,446
886.435181,467
886.552002,460
886.668762,464
886.785645,454
886.902344,452
887.019165,451
887.135925,453
887.252747,447
887.369446,447
887.486267,452
887.603027,447
887.719788,446
887.836548,443
887.953247,458
888.070068,468
888.186829,478
888.303528,461
888.420288,446
888.536987,450
888.653687,457
888.770447,449
888.887146,456
889.003967,467
889.120667,457
889.237305,444
889.354065,470
889.470703,468
889.587463,451
889.704163,452
889.820862,441
889.937561,451
890.054199,458
890.170837,467
890.287598,454
890.404236,461
890.520874,457
890.637634,464
890.754211,474
890.87085,452
890.987549,453
891.104187,464
891.220886,454
891.337463,461
891.454102,451
891.57074,449
891.687378,470
891.804077,454
891.920654,458
892.037231,455
892.15387,466
892.270447,450
892.387085,466
892.503723,449
892.6203,456
892.736877,449
892.853516,455
892.970032,455
893.08667,440
893.203186,458
893.319763,446
893.43634,439
893.552917,445
893.669556,454
893.786011,455
893.902588,437
894.019165,467
894.135681,451
894.252197,446
894.368835,451
894.485291,470
894.601868,449
894.718384,450
894.8349,465
894.951355,475
895.067932,452
895.184448,455
895.300964,465
895.417419,469
895.533936,463
895.650452,461
895.766907,444
895.883423,467
895.999878,465
896.116333,463
896.232849,460
896.349304,455
896.465759,467
896.582214,451
896.698669,452
896.815125,460
896.931641,451
897.048035,458
897.164551,452
897.280884,454
897.397339,449
897.513794,469
897.630249,468
897.746582,464
897.863098,472
897.979431,453
898.095886,463
898.212341,451
898.328674,453
898.445129,484
898.561462,455
898.677795,463
898.794312,477
898.910645,467
899.026978,451
899.143433,458
899.259766,464
899.37616,465
899.492493,461
899.608765,451
899.725159,469
899.841553,452
899.957947,467
900.07428,448
900.190552,455
900.306946,466
900.423157,454
900.53949,464
900.655884,449
900.772156,464
900.888489,467
901.004822,457
901.121033,457
901.237366,455
901.353699,452
901.46991,459
901.586304,461
901.702515,466
901.818787,452
901.93512,461
902.051331,466
902.167603,469
902.283875,462
902.400085,468
902.516418,467
902.632629,460
902.74884,475
902.865112,474
902.981384,464
903.097595,486
903.213867,467
903.330017,480
903.446289,473
903.5625,452
903.67865,469
903.794922,465
903.911072,473
904.027344,466
904.143494,458
904.259705,475
904.375916,467
904.492065,473
904.608215,478
904.724426,467
904.840576,459
904.956726,475
905.072876,470
905.189087,474
905.305176,457
905.421387,454
905.537537,463
905.653687,469
905.769775,458
905.885925,464
906.002014,452
906.118164,463
906.234314,465
906.350403,448
906.466492,461
906.582642,476
906.69873,457
906.814758,484
906.930908,452
907.046936,468
907.163086,473
907.279175,470
907.395264,452
907.511353,467
907.62738,479
907.743408,474
907.859497,463
907.975525,469
908.091553,461
908.207703,446
908.32373,460
908.439758,493
908.555786,471
908.671814,451
908.787842,463
908.90387,447
909.019775,448
909.135864,472
909.251892,477
909.367859,473
909.483826,464
909.599854,472
909.715881,473
909.831848,473
909.947815,451
910.063782,460
910.179749,465
910.295776,466
910.411743,479
910.527649,462
910.643616,478
910.759583,467
910.875488,469
910.991455,464
911.107361,446
911.223267,456
911.339294,456
911.4552,471
911.571106,457
911.687073,467
911.802979,444
911.918823,465
912.034729,468
912.150635,467
912.266602,454
912.382446,465
912.498352,458
912.614197,476
912.730103,479
912.846008,455
792.44574,660
792.56488,644
792.68396,697
792.80304,691
792.92218,627
793.041199,633
793.160339,631
793.279419,628
793.398499,652
793.517578,621
793.636658,609
793.755737,646
793.874817,630
793.993896,617
794.112976,609
794.232056,620
794.351074,601
794.470215,603
794.589233,617
794.708313,594
794.827393,592
794.946411,598
795.065552,634
795.18457,611
795.303589,642
795.422668,622
795.541687,589
795.660767,595
795.779846,603
795.898865,578
796.017883,588
796.136963,611
796.255981,614
796.375061,586
796.49408,581
796.613037,595
796.732117,574
796.851135,607
796.970154,587
797.089233,595
797.208191,600
797.327271,593
797.446228,593
797.565186,582
797.684265,585
797.803223,588
797.922241,590
798.04126,579
798.160278,595
798.279297,565
798.398315,586
798.517273,581
798.636292,582
798.75531,611
798.874268,580
798.993286,573
799.112244,568
799.231323,594
799.350281,610
799.469238,577
799.588257,580
799.707153,597
799.826111,602
799.945129,597
800.064087,591
800.183044,591
800.302063,596
800.421021,596
800.539978,582
800.658936,567
800.777893,603
800.896912,591
801.015747,587
801.134705,578
801.253723,594
801.37262,577
801.491638,609
801.610535,580
801.729492,592
801.84845,587
801.967407,567
802.086243,584
802.205261,607
802.324158,587
802.443115,580
802.562073,582
802.680969,601
802.799927,579
802.918762,600
803.037659,585
803.156677,602
803.275574,601
803.39447,591
803.513428,599
803.632263,594
803.751221,595
803.870117,605
803.989014,602
804.107971,627
804.226746,580
804.345642,612
804.4646,630
804.583496,597
804.702393,627
804.821228,616
804.940125,603
805.059021,592
805.177917,611
805.296814,618
805.415649,615
805.534546,614
805.653442,608
805.772278,616
805.891113,609
806.01001,600
806.128906,614
806.247742,579
806.366577,602
806.485413,625
806.604309,626
806.723145,631
806.84198,623
806.960876,626
807.079712,605
807.198486,617
807.317383,597
807.436218,631
807.554993,603
807.673889,626
807.792725,606
807.91156,627
808.030396,614
808.14917,616
808.268005,613
808.386841,626
808.505676,613
808.624451,632
808.743286,604
808.862122,645
808.980896,606
809.099731,621
809.218506,613
809.337341,611
809.456116,612
809.57489,611
809.693726,632
809.8125,618
809.931274,611
810.050049,621
810.168884,612
810.287659,650
810.406372,620
810.525269,643
810.643982,629
810.762756,638
810.881531,651
811.000305,626
811.11908,606
811.237854,661
811.356567,651
811.475403,628
811.594116,609
811.71283,640
811.831604,629
811.950378,641
812.069153,610
812.187927,635
812.30658,622
812.425415,640
812.544128,615
812.662781,644
812.781616,610
812.900269,618
813.019043,624
813.137756,613
813.256531,627
813.375244,648
813.493896,632
813.612671,655
813.731384,645
813.850037,635
813.96875,619
814.087524,651
814.206238,619
814.324951,632
814.443604,635
814.562256,640
814.68103,605
814.799683,616
814.918335,650
815.037109,612
815.155762,639
815.274475,610
815.393188,627
815.511841,606
815.630554,624
815.749146,623
815.867859,610
815.986572,608
816.105164,603
816.223877,594
816.342529,597
816.461182,610
816.579895,635
816.698486,591
816.817139,612
816.935791,603
817.054504,583
817.173096,630
817.291748,636
817.4104,625
817.529053,636
817.647644,584
817.766235,586
817.884949,577
818.00354,591
818.122192,584
818.240845,539
818.359436,547
818.478088,543
818.59668,553
818.715271,543
818.833923,537
818.952515,550
819.071106,526
819.189758,519
819.30835,527
819.426941,517
819.545532,522
819.664124,528
819.782715,492
819.901306,513
820.019897,516
820.138489,522
820.25708,490
820.375671,486
820.494202,518
820.612732,489
820.731384,520
820.849915,491
820.968506,495
821.087097,510
821.205627,499
821.324158,494
821.442749,483
821.561279,486
821.679871,486
821.798401,500
821.916931,489
822.035461,490
822.154053,496
822.272583,464
822.391174,488
822.509583,497
822.628174,500
822.746704,502
822.865234,465
822.983765,474
823.102295,508
823.220825,474
823.339294,502
823.457825,496
823.576355,486
823.694824,470
823.813354,500
823.931885,483
824.050354,465
824.168884,479
824.287354,497
824.405823,486
824.524353,478
824.642822,467
824.761353,500
824.879822,483
824.998291,486
825.116699,509
825.235291,490
825.353699,472
825.472168,474
825.590637,480
825.709106,495
825.827576,488
825.946045,472
826.064453,474
826.182983,472
826.301392,476
826.4198,478
826.53833,461
826.656738,458
826.775208,474
826.893677,471
827.012024,461
827.130493,444
827.248962,472
827.36731,491
827.485779,467
827.604248,466
827.722595,451
827.841064,465
827.959412,474
828.077942,469
828.196289,472
828.314636,462
828.433105,477
828.551514,449
828.669861,471
828.78833,461
828.906677,458
829.025085,468
829.143433,461
829.261841,477
829.38031,473
829.498657,467
829.617004,475
829.735413,475
829.85376,447
829.972107,460
830.090515,473
830.208862,450
830.327209,460
830.445557,477
830.563904,478
830.682312,459
830.800659,457
830.919006,469
831.037354,466
831.155701,476
831.274048,473
831.392395,453
831.51062,471
831.629028,467
831.747314,472
831.865662,465
831.984009,472
832.102356,455
832.220642,444
832.338928,475
832.457275,466
832.575623,461
832.693909,449
832.812134,453
832.930481,478
833.048828,456
833.167114,482
833.2854,471
833.403687,464
833.521973,458
833.640259,461
833.758545,448
833.876831,478
833.995056,468
834.113281,480
834.231628,470
834.349915,472
834.468201,452
834.586426,487
834.704651,455
834.822998,463
834.941162,454
835.059448,458
835.177673,485
835.295959,446
835.414246,471
835.53241,461
835.650635,472
835.768921,461
835.887146,472
836.005371,467
836.123596,466
836.241821,457
836.360046,474
836.478271,452
836.596497,462
836.714722,467
836.832886,456
836.95105,487
837.069336,481
837.1875,460
837.305725,461
837.423889,487
837.542053,470
837.660339,487
837.778503,483
837.896667,478
838.014832,473
838.132996,471
838.25116,486
838.369385,482
838.487488,475
838.605713,478
838.723877,486
838.84198,472
838.960205,471
839.078308,484
839.196472,491
839.314636,484
839.4328,498
839.550964,479
839.669067,484
839.787231,463
839.905396,484
840.023499,505
840.141602,480
840.259766,475
840.377869,476
840.495972,486
840.614136,470
840.732239,455
840.850342,487
840.968445,464
841.086548,485
841.204651,474
841.322754,465
841.440918,467
841.55896,453
841.677002,470
841.795166,455
841.913208,470
842.031311,483
842.149353,465
842.267456,453
842.385498,461
842.503601,485
842.621643,474
842.739746,443
842.857788,452
842.97583,457
843.093933,455
843.211975,445
843.330017,470
843.44812,470
843.566101,428
843.684204,468
843.802246,453
843.920227,460
844.038269,484
844.156311,463
844.274292,457
844.392395,470
844.510376,436
844.628357,447
844.74646,471
844.864441,446
844.982422,465
845.100403,461
845.218384,439
845.336426,459
845.454468,452
845.572449,459
845.69043,470
845.808411,475
845.926453,442
846.044373,465
846.162354,462
846.280396,481
846.398315,455
846.516296,472
846.634216,449
846.752197,442
846.870178,447
846.988098,473
847.106079,431
847.22406,459
847.34198,452
847.4599,444
847.577881,451
847.695801,442
847.813782,449
847.931641,444
848.049561,471
848.167603,454
848.285461,444
848.403381,448
848.521362,456
848.639221,447
848.75708,463
848.875,465
848.99292,454
849.110901,452
849.22876,453
849.34668,449
849.464539,463
849.582458,470
849.700317,461
849.818176,445
849.936096,446
850.053955,447
850.171875,458
850.289673,450
850.407593,448
850.525452,450
850.643311,461
850.761169,449
850.878967,460
850.996887,454
851.114746,454
851.232544,451
851.350403,448
851.468262,458
851.58606,475
851.703979,471
851.821777,447
851.939636,461
852.057434,469
852.175232,473
852.293091,459
852.410889,466
852.528687,437
852.646545,441
852.764343,473
852.88208,446
852.999939,456
853.117676,453
853.235535,431
853.353271,459
853.471069,461
853.588928,471
853.706604,427
853.824402,453
853.9422,449
854.059998,456
854.177734,450
854.295532,457
854.413269,464
854.531006,455
854.648804,458
854.766541,464
854.884277,470
855.002014,464
855.119751,452
855.237549,462
855.355225,441
855.473022,469
855.590698,476
855.708435,448
855.826172,467
855.943848,460
856.061646,468
856.179321,450
856.296997,458
856.414795,482
856.53241,454
856.650085,483
856.767822,456
856.885559,462
857.003174,472
857.120911,471
857.238586,456
857.356201,471
857.473938,460
857.591614,491
857.709351,461
857.826965,473
857.944641,477
858.062317,450
858.179993,454
858.297668,481
858.415283,451
858.532959,471
858.650574,436
858.768188,451
858.885803,465
859.003479,467
859.121094,467
859.23877,463
859.356384,452
859.473999,460
859.591675,444
859.709229,463
859.826843,438
859.944458,478
860.062012,448
860.179626,443
860.297302,464
860.414856,466
860.532471,447
860.650024,462
860.767639,444
860.885193,442
861.002808,460
861.120361,463
861.237976,447
861.35553,452
861.473022,460
861.590698,442
861.708191,454
861.825745,467
861.943298,453
862.060852,449
862.178406,458
862.295959,460
862.413513,455
862.531006,468
862.64856,460
862.766113,434
862.883667,442
863.00116,459
863.118713,423
863.236206,462
863.353699,454
863.471252,473
863.588745,456
863.706177,448
863.82373,460
863.941162,461
864.058716,450
864.176208,476
864.29364,465
864.411194,455
864.528687,444
864.646118,451
864.763611,438
864.881042,445
864.998535,446
865.116028,466
865.233459,468
865.350891,455
865.468384,450
865.585754,466
865.703308,464
865.820679,438
865.938171,444
866.055542,461
866.173035,445
866.290466,454
866.407837,441
866.52533,452
866.6427,459
866.760071,445
866.877563,450
866.994934,473
867.112305,447
867.229736,450
867.347107,436
867.464539,456
867.58197,458
867.699341,464
867.81665,446
867.934082,485
868.051453,469
868.168823,463
868.286194,450
868.403564,468
868.520935,461
868.638306,428
868.755676,464
868.872986,459
868.990295,425
869.107727,453
869.225037,454
869.342346,452
869.459717,473
869.577026,459
869.694336,470
869.811707,459
869.929016,453
870.046326,464
870.163635,452
870.280945,473
870.398254,453
870.515564,447
870.632812,440
870.750183,476
870.867432,460
870.984741,442
871.102051,470
871.219299,467
871.336609,458
871.453918,476
871.571106,460
871.688416,437
871.805664,471
871.922852,453
872.040222,455
872.157471,470
872.274719,447
872.391968,448
872.509155,462
872.626465,446
872.743652,463
872.860962,449
872.978149,453
873.095337,462
873.212646,456
873.329834,469
873.44696,442
873.564209,464
873.681396,457
873.798645,461
873.915894,443
874.03302,454
874.150208,448
874.267456,466
874.384583,451
874.501831,455
874.618958,467
874.736145,447
874.853333,449
874.970459,456
875.087646,468
875.204834,456
875.32196,443
875.439148,471
875.556274,452
875.673401,450
875.790527,462
875.907715,445
876.024841,444
876.141968,453
876.259094,463
876.376282,450
876.493347,477
876.610474,458
876.7276,458
876.844727,441
876.961853,470
877.078918,466
877.195984,453
877.313171,453
877.430237,453
877.547302,462
877.664368,457
877.781433,466
877.898499,457
878.015625,470
878.13269,456
878.249695,447
878.366821,439
878.483887,460
878.600952,448
878.717957,464
878.834961,462
878.952087,457
879.069092,454
879.186157,455
879.303162,460
879.420227,450
879.537231,449
879.654236,455
879.77124,458
879.888306,456
880.005249,469
880.122314,473
880.239319,452
880.356323,446
880.473328,449
880.590271,444
880.707275,459
880.824341,451
880.941284,450
881.058228,461
881.175232,448
881.292236,465
881.40918,437
881.526123,448
881.643066,463
881.760071,465
881.877014,450
881.993958,465
882.11084,437
882.227783,471
882.344727,454
882.46167,450
882.578613,434
882.695618,460
882.812439,457
882.929382,436
883.046326,473
883.163208,463
883.280151,456
883.397034,485
883.513916,445
883.630798,461
883.747742,460
883.864563,458
883.981506,455
884.098389,468
884.21521,464
884.332153,460
884.448975,455
884.565796,448
884.682678,454
884.7995,473
884.916443,447
885.033264,457
885.150085,462
885.266968,463
885.383789,469
885.500671,489
885.617493,463
885.734314,476
885.851196,462
885.967896,479
886.084717,471
886.201599,459
886.318359,460
886.435181,468
886.552002,471
886.668762,460
886.785645,463
886.902344,468
887.019165,463
887.135925,449
887.252747,465
887.369446,461
887.486267,467
887.603027,470
887.719788,453
887.836548,475
887.953247,469
888.070068,464
888.186829,466
888.303528,467
888.420288,466
888.536987,463
888.653687,459
888.770447,446
888.887146,460
889.003967,467
889.120667,467
889.237305,440
889.354065,448
889.470703,446
889.587463,472
889.704163,476
889.820862,481
889.937561,456
890.054199,438
890.170837,465
890.287598,467
890.404236,467
890.520874,461
890.637634,472
890.754211,455
890.87085,478
890.987549,464
891.104187,470
891.220886,443
891.337463,465
891.454102,460
891.57074,446
891.687378,461
891.804077,495
891.920654,447
892.037231,457
892.15387,464
892.270447,491
892.387085,453
892.503723,454
892.6203,445
892.736877,461
892.853516,461
892.970032,466
893.08667,453
893.203186,483
893.319763,454
893.43634,453
893.552917,454
893.669556,464
893.786011,453
893.902588,468
894.019165,461
894.135681,454
894.252197,463
894.368835,446
894.485291,453
894.601868,463
894.718384,463
894.8349,477
894.951355,474
895.067932,493
895.184448,440
895.300964,462
895.417419,463
895.533936,471
895.650452,478
895.766907,458
895.883423,455
895.999878,470
896.116333,467
896.232849,464
896.349304,455
896.465759,464
896.582214,461
896.698669,464
896.815125,464
896.931641,455
897.048035,463
897.164551,476
897.280884,454
897.397339,476
897.513794,468
897.630249,473
897.746582,475
897.863098,462
897.979431,451
898.095886,470
898.212341,470
898.328674,456
898.445129,465
898.561462,481
898.677795,481
898.794312,461
898.910645,479
899.026978,480
899.143433,472
899.259766,465
899.37616,478
899.492493,460
899.608765,469
899.725159,484
899.841553,462
899.957947,473
900.07428,438
900.190552,472
900.306946,471
900.423157,465
900.53949,462
900.655884,469
900.772156,457
900.888489,470
901.004822,467
901.121033,480
901.237366,455
901.353699,470
901.46991,480
901.586304,457
901.702515,460
901.818787,461
901.93512,456
902.051331,465
902.167603,463
902.283875,461
902.400085,464
902.516418,456
902.632629,452
902.74884,479
902.865112,474
902.981384,473
903.097595,452
903.213867,478
903.330017,480
903.446289,474
903.5625,486
903.67865,489
903.794922,466
903.911072,473
904.027344,464
904.143494,484
904.259705,457
904.375916,460
904.492065,461
904.608215,450
904.724426,459
904.840576,463
904.956726,464
905.072876,478
905.189087,474
905.305176,478
905.421387,445
905.537537,456
905.653687,478
905.769775,474
905.885925,469
906.002014,461
906.118164,468
906.234314,465
906.350403,459
906.466492,476
906.582642,459
906.69873,470
906.814758,490
906.930908,466
907.046936,451
907.163086,482
907.279175,470
907.395264,470
907.511353,466
907.62738,466
907.743408,458
907.859497,479
907.975525,472
908.091553,480
908.207703,474
908.32373,480
908.439758,471
908.555786,464
908.671814,473
908.787842,471
908.90387,480
909.019775,477
909.135864,469
909.251892,454
909.367859,477
909.483826,464
909.599854,470
909.715881,505
909.831848,473
909.947815,466
910.063782,480
910.179749,457
910.295776,470
910.411743,466
910.527649,480
910.643616,469
910.759583,483
910.875488,476
910.991455,480
911.107361,467
911.223267,465
911.339294,467
911.4552,465
911.571106,462
911.687073,470
911.802979,469
911.918823,484
912.034729,475
912.150635,472
912.266602,495
912.382446,467
912.498352,466
912.614197,481
912.730103,472
912.846008,482
792.44574,622
792.56488,666
792.68396,730
792.80304,675
792.92218,628
793.041199,625
793.160339,607
793.279419,643
793.398499,634
793.517578,610
793.636658,627
793.755737,608
793.874817,645
793.993896,654
794.112976,618
794.232056,593
794.351074,597
794.470215,615
794.589233,605
794.708313,612
794.827393,613
794.946411,609
795.065552,600
795.18457,617
795.303589,590
795.422668,593
795.541687,584
795.660767,605
795.779846,578
795.898865,594
796.017883,600
796.136963,611
796.255981,613
796.375061,589
796.49408,596
796.613037,606
796.732117,586
796.851135,604
796.970154,581
797.089233,581
797.208191,616
797.327271,611
797.446228,592
797.565186,578
797.684265,582
797.803223,581
797.922241,593
798.04126,577
798.160278,592
798.279297,622
798.398315,596
798.517273,573
798.636292,585
798.75531,617
798.874268,579
798.993286,583
799.112244,610
799.231323,581
799.350281,625
799.469238,571
799.588257,573
799.707153,568
799.826111,592
799.945129,599
800.064087,581
800.183044,603
800.302063,580
800.421021,598
800.539978,586
800.658936,586
800.777893,575
800.896912,598
801.015747,595
801.134705,586
801.253723,577
801.37262,608
801.491638,588
801.610535,586
801.729492,584
801.84845,590
801.967407,590
802.086243,583
802.205261,587
802.324158,618
802.443115,616
802.562073,590
802.680969,597
802.799927,590
802.918762,581
803.037659,597
803.156677,611
803.275574,589
803.39447,612
803.513428,590
803.632263,585
803.751221,606
803.870117,621
803.989014,607
804.107971,604
804.226746,586
804.345642,600
804.4646,612
804.583496,616
804.702393,596
804.821228,618
804.940125,613
805.059021,614
805.177917,606
805.296814,580
805.415649,606
805.534546,631
805.653442,604
805.772278,604
805.891113,622
806.01001,605
806.128906,629
806.247742,621
806.366577,616
806.485413,625
806.604309,628
806.723145,611
806.84198,590
806.960876,617
807.079712,603
807.198486,592
807.317383,618
807.436218,606
807.554993,607
807.673889,638
807.792725,616
807.91156,615
808.030396,624
808.14917,607
808.268005,610
808.386841,636
808.505676,640
808.624451,598
808.743286,627
808.862122,610
808.980896,639
809.099731,610
809.218506,625
809.337341,631
809.456116,623
809.57489,636
809.693726,633
809.8125,620
809.931274,621
810.050049,637
810.168884,633
810.287659,644
810.406372,628
810.525269,639
810.643982,640
810.762756,608
810.881531,651
811.000305,623
811.11908,627
811.237854,634
811.356567,633
811.475403,612
811.594116,637
811.71283,632
811.831604,667
811.950378,615
812.069153,633
812.187927,625
812.30658,640
812.425415,608
812.544128,650
812.662781,610
812.781616,647
812.900269,649
813.019043,631
813.137756,657
813.256531,644
813.375244,634
813.493896,638
813.612671,636
813.731384,620
813.850037,631
813.96875,629
814.087524,629
814.206238,618
814.324951,631
814.443604,646
814.562256,625
814.68103,642
814.799683,624
814.918335,667
815.037109,609
815.155762,647
815.274475,624
815.393188,617
815.511841,628
815.630554,631
815.749146,625
815.867859,623
815.986572,616
816.105164,607
816.223877,573
816.342529,618
816.461182,633
816.579895,612
816.698486,619
816.817139,631
816.935791,619
817.054504,623
817.173096,626
817.291748,620
817.4104,602
817.529053,601
817.647644,605
817.766235,612
817.884949,586
818.00354,587
818.122192,597
818.240845,570
818.359436,556
818.478088,527
818.59668,551
818.715271,535
818.833923,519
818.952515,518
819.071106,523
819.189758,537
819.30835,526
819.426941,524
819.545532,505
819.664124,511
819.782715,513
819.901306,509
820.019897,491
820.138489,491
820.25708,515
820.375671,493
820.494202,511
820.612732,502
820.731384,487
820.849915,491
820.968506,472
821.087097,498
821.205627,506
821.324158,503
821.442749,494
821.561279,494
821.679871,494
821.798401,500
821.916931,509
822.035461,498
822.154053,508
822.272583,501
822.391174,473
822.509583,507
822.628174,488
822.746704,503
822.865234,498
822.983765,474
823.102295,488
823.220825,463
823.339294,507
823.457825,472
823.576355,489
823.694824,507
823.813354,480
823.931885,499
824.050354,484
824.168884,510
824.287354,509
824.405823,500
824.524353,494
824.642822,500
824.761353,488
824.879822,492
824.998291,478
825.116699,474
825.235291,494
825.353699,490
825.472168,459
825.590637,484
825.709106,494
825.827576,492
825.946045,464
826.064453,490
826.182983,469
826.301392,466
826.4198,479
826.53833,489
826.656738,477
826.775208,487
826.893677,466
827.012024,475
827.130493,482
827.248962,477
827.36731,485
827.485779,481
827.604248,482
827.722595,468
827.841064,461
827.959412,479
828.077942,462
828.196289,454
828.314636,475
828.433105,453
828.551514,463
828.669861,486
828.78833,461
828.906677,470
829.025085,463
829.143433,488
829.261841,459
829.38031,472
829.498657,459
829.617004,483
829.735413,467
829.85376,469
829.972107,465
830.090515,456
830.208862,462
830.327209,452
830.445557,477
830.563904,472
830.682312,433
830.800659,461
830.919006,452
831.037354,479
831.155701,467
831.274048,468
831.392395,463
831.51062,461
831.629028,476
831.747314,461
831.865662,441
831.984009,463
832.102356,470
832.220642,479
832.338928,463
832.457275,476
832.575623,464
832.693909,470
832.812134,462
832.930481,475
833.048828,458
833.167114,479
833.2854,457
833.403687,465
833.521973,478
833.640259,452
833.758545,475
833.876831,466
833.995056,463
834.113281,459
834.231628,469
834.349915,471
834.468201,456
834.586426,477
834.704651,463
834.822998,471
834.941162,460
835.059448,476
835.177673,480
835.295959,475
835.414246,466
835.53241,477
835.650635,439
835.768921,468
835.887146,473
836.005371,474
836.123596,446
836.241821,479
836.360046,460
836.478271,477
836.596497,492
836.714722,460
836.832886,481
836.95105,484
837.069336,473
837.1875,479
837.305725,461
837.423889,489
837.542053,464
837.660339,477
837.778503,482
837.896667,482
838.014832,473
838.132996,479
838.25116,479
838.369385,475
838.487488,477
838.605713,476
838.723877,471
838.84198,493
838.960205,487
839.078308,477
839.196472,473
839.314636,478
839.4328,468
839.550964,487
839.669067,483
839.787231,481
839.905396,486
840.023499,483
840.141602,465
840.259766,495
840.377869,468
840.495972,479
840.614136,470
840.732239,465
840.850342,479
840.968445,472
841.086548,447
841.204651,471
841.322754,477
841.440918,501
841.55896,458
841.677002,457
841.795166,467
841.913208,465
842.031311,484
842.149353,492
842.267456,443
842.385498,461
842.503601,449
842.621643,482
842.739746,467
842.857788,466
842.97583,475
843.093933,447
843.211975,470
843.330017,488
843.44812,461
843.566101,453
843.684204,469
843.802246,461
843.920227,460
844.038269,472
844.156311,442
844.274292,450
844.392395,480
844.510376,459
844.628357,468
844.74646,448
844.864441,455
844.982422,449
845.100403,442
845.218384,456
845.336426,473
845.454468,456
845.572449,450
845.69043,460
845.808411,453
845.926453,466
846.044373,452
846.162354,456
846.280396,458
846.398315,463
846.516296,452
846.634216,454
846.752197,468
846.870178,463
846.988098,458
847.106079,448
847.22406,447
847.34198,472
847.4599,454
847.577881,448
847.695801,443
847.813782,456
847.931641,437
848.049561,461
848.167603,447
848.285461,463
848.403381,457
848.521362,483
848.639221,451
848.75708,462
848.875,454
848.99292,446
849.110901,443
849.22876,469
849.34668,466
849.464539,458
849.582458,445
849.700317,467
849.818176,453
849.936096,472
850.053955,443
850.171875,470
850.289673,457
850.407593,474
850.525452,458
850.643311,462
850.761169,449
850.878967,452
850.996887,445
851.114746,451
851.232544,434
851.350403,449
851.468262,452
851.58606,445
851.703979,465
851.821777,465
851.939636,464
852.057434,458
852.175232,441
852.293091,479
852.410889,454
852.528687,464
852.646545,477
852.764343,459
852.88208,451
852.999939,458
853.117676,464
853.235535,456
853.353271,436
853.471069,466
853.588928,454
853.706604,442
853.824402,469
853.9422,457
854.059998,465
854.177734,459
854.295532,461
854.413269,455
854.531006,443
854.648804,441
854.766541,465
854.884277,459
855.002014,464
855.119751,461
855.237549,467
855.355225,469
855.473022,464
855.590698,469
855.708435,467
855.826172,459
855.943848,467
856.061646,472
856.179321,452
856.296997,453
856.414795,474
856.53241,475
856.650085,457
856.767822,454
856.885559,453
857.003174,447
857.120911,472
857.238586,462
857.356201,454
857.473938,463
857.591614,465
857.709351,463
857.826965,441
857.944641,444
858.062317,474
858.179993,468
858.297668,447
858.415283,439
858.532959,461
858.650574,461
858.768188,474
858.885803,449
859.003479,454
859.121094,445
859.23877,445
859.356384,457
859.473999,462
859.591675,460
859.709229,444
859.826843,456
859.944458,464
860.062012,457
860.179626,450
860.297302,451
860.414856,464
860.532471,459
860.650024,464
860.767639,440
860.885193,459
861.002808,451
861.120361,477
861.237976,453
861.35553,459
861.473022,457
861.590698,454
861.708191,455
861.825745,458
861.943298,458
862.060852,458
862.178406,453
862.295959,474
862.413513,456
862.531006,447
862.64856,465
862.766113,450
862.883667,465
863.00116,460
863.118713,455
863.236206,462
863.353699,464
863.471252,446
863.588745,467
863.706177,455
863.82373,461
863.941162,470
864.058716,454
864.176208,474
864.29364,436
864.411194,469
864.528687,444
864.646118,458
864.763611,467
864.881042,455
864.998535,465
865.116028,449
865.233459,482
865.350891,453
865.468384,466
865.585754,464
865.703308,474
865.820679,463
865.938171,456
866.055542,470
866.173035,454
866.290466,467
866.407837,459
866.52533,449
866.6427,459
866.760071,453
866.877563,443
866.994934,452
867.112305,467
867.229736,450
867.347107,456
867.464539,454
867.58197,476
867.699341,450
867.81665,454
867.934082,445
868.051453,450
868.168823,468
868.286194,449
868.403564,476
868.520935,479
868.638306,457
868.755676,477
868.872986,447
868.990295,454
869.107727,443
869.225037,471
869.342346,452
869.459717,456
869.577026,450
869.694336,447
869.811707,461
869.929016,466
870.046326,439
870.163635,460
870.280945,440
870.398254,477
870.515564,463
870.632812,468
870.750183,448
870.867432,468
870.984741,478
871.102051,454
871.219299,444
871.336609,463
871.453918,437
871.571106,465
871.688416,466
871.805664,477
871.922852,453
872.040222,459
872.157471,459
872.274719,452
872.391968,462
872.509155,452
872.626465,456
872.743652,461
872.860962,445
872.978149,455
873.095337,465
873.212646,454
873.329834,447
873.44696,481
873.564209,447
873.681396,449
873.798645,440
873.915894,466
874.03302,444
874.150208,468
874.267456,465
874.384583,448
874.501831,446
874.618958,464
874.736145,470
874.853333,461
874.970459,447
875.087646,446
875.204834,475
875.32196,463
875.439148,441
875.556274,437
875.673401,484
875.790527,457
875.907715,458
876.024841,456
876.141968,458
876.259094,486
876.376282,441
876.493347,445
876.610474,467
876.7276,476
876.844727,436
876.961853,453
877.078918,459
877.195984,458
877.313171,455
877.430237,456
877.547302,473
877.664368,458
877.781433,458
877.898499,443
878.015625,451
878.13269,457
878.249695,455
878.366821,473
878.483887,444
878.600952,434
878.717957,468
878.834961,470
878.952087,444
879.069092,462
879.186157,460
879.303162,462
879.420227,452
879.537231,449
879.654236,437
879.77124,441
879.888306,445
880.005249,477
880.122314,470
880.239319,460
880.356323,462
880.473328,476
880.590271,452
880.707275,454
880.824341,454
880.941284,468
881.058228,470
881.175232,455
881.292236,475
881.40918,455
881.526123,445
881.643066,467
881.760071,456
881.877014,469
881.993958,481
882.11084,462
882.227783,459
882.344727,445
882.46167,458
882.578613,457
882.695618,457
882.812439,481
882.929382,463
883.046326,464
883.163208,470
883.280151,446
883.397034,437
883.513916,461
883.630798,466
883.747742,452
883.864563,442
883.981506,453
884.098389,467
884.21521,462
884.332153,451
884.448975,445
884.565796,464
884.682678,460
884.7995,461
884.916443,471
885.033264,438
885.150085,462
885.266968,465
885.383789,462
885.500671,462
885.617493,477
885.734314,453
885.851196,474
885.967896,460
886.084717,454
886.201599,454
886.318359,468
886.435181,472
886.552002,443
886.668762,456
886.785645,456
886.902344,477
887.019165,476
887.135925,462
887.252747,466
887.369446,463
887.486267,473
887.603027,441
887.719788,467
887.836548,468
887.953247,464
888.070068,460
888.186829,454
888.303528,458
888.420288,461
888.536987,466
888.653687,468
888.770447,464
888.887146,445
889.003967,457
889.120667,465
889.237305,482
889.354065,455
889.470703,454
889.587463,446
889.704163,459
889.820862,446
889.937561,467
890.054199,478
890.170837,473
890.287598,469
890.404236,445
890.520874,470
890.637634,460
890.754211,460
890.87085,459
890.987549,460
891.104187,460
891.220886,447
891.337463,473
891.454102,470
891.57074,459
891.687378,467
891.804077,467
891.920654,461
892.037231,464
892.15387,481
892.270447,434
892.387085,456
892.503723,448
892.6203,465
892.736877,455
892.853516,454
892.970032,471
893.08667,489
893.203186,478
893.319763,479
893.43634,458
893.552917,460
893.669556,471
893.786011,459
893.902588,462
894.019165,472
894.135681,454
894.252197,444
894.368835,462
894.485291,474
894.601868,479
894.718384,455
894.8349,463
894.951355,488
895.067932,478
895.184448,464
895.300964,466
895.417419,464
895.533936,470
895.650452,452
895.766907,448
895.883423,471
895.999878,444
896.116333,463
896.232849,470
896.349304,469
896.465759,461
896.582214,470
896.698669,479
896.815125,466
896.931641,465
897.048035,465
897.164551,460
897.280884,476
897.397339,463
897.513794,484
897.630249,467
897.746582,458
897.863098,462
897.979431,471
898.095886,479
898.212341,488
898.328674,468
898.445129,462
898.561462,466
898.677795,443
898.794312,456
898.910645,475
899.026978,459
899.143433,472
899.259766,463
899.37616,488
899.492493,476
899.608765,464
899.725159,465
899.841553,464
899.957947,455
900.07428,478
900.190552,460
900.306946,484
900.423157,489
900.53949,477
900.655884,467
900.772156,478
900.888489,464
901.004822,461
901.121033,462
901.237366,463
901.353699,482
901.46991,473
901.586304,467
901.702515,439
901.818787,460
901.93512,502
902.051331,457
902.167603,470
902.283875,452
902.400085,488
902.516418,461
902.632629,462
902.74884,491
902.865112,466
902.981384,479
903.097595,463
903.213867,477
903.330017,476
903.446289,498
903.5625,480
903.67865,469
903.794922,481
903.911072,465
904.027344,481
904.143494,462
904.259705,490
904.375916,466
904.492065,474
904.608215,484
904.724426,464
904.840576,465
904.956726,465
905.072876,482
905.189087,480
905.305176,473
905.421387,474
905.537537,474
905.653687,457
905.769775,486
905.885925,485
906.002014,456
906.118164,488
906.234314,476
906.350403,472
906.466492,473
906.582642,464
906.69873,454
906.814758,473
906.930908,456
907.046936,461
907.163086,463
907.279175,479
907.395264,466
907.511353,476
907.62738,467
907.743408,469
907.859497,475
907.975525,470
908.091553,488
908.207703,483
908.32373,485
908.439758,488
908.555786,463
908.671814,485
908.787842,464
908.90387,461
909.019775,481
909.135864,462
909.251892,449
909.367859,462
909.483826,490
909.599854,455
909.715881,480
909.831848,470
909.947815,454
910.063782,469
910.179749,472
910.295776,474
910.411743,468
910.527649,475
910.643616,452
910.759583,464
910.875488,462
910.991455,453
911.107361,478
911.223267,495
911.339294,487
911.4552,497
911.571106,487
911.687073,490
911.802979,461
911.918823,452
912.034729,480
912.150635,477
912.266602,460
912.382446,484
912.498352,479
912.614197,459
912.730103,478
912.846008,463
