792.44574,915
792.56488,934
792.68396,944
792.80304,910
792.92218,839
793.041199,849
793.160339,838
793.279419,829
793.398499,839
793.517578,800
793.636658,776
793.755737,781
793.874817,772
793.993896,776
794.112976,767
794.232056,720
794.351074,741
794.470215,731
794.589233,729
794.708313,744
794.827393,715
794.946411,690
795.065552,720
795.18457,700
795.303589,707
795.422668,713
795.541687,688
795.660767,695
795.779846,664
795.898865,697
796.017883,705
796.136963,653
796.255981,683
796.375061,676
796.49408,654
796.613037,631
796.732117,686
796.851135,648
796.970154,678
797.089233,645
797.208191,645
797.327271,657
797.446228,637
797.565186,620
797.684265,628
797.803223,641
797.922241,661
798.04126,620
798.160278,622
798.279297,613
798.398315,616
798.517273,624
798.636292,635
798.75531,624
798.874268,617
798.993286,632
799.112244,613
799.231323,602
799.350281,635
799.469238,651
799.588257,624
799.707153,612
799.826111,594
799.945129,601
800.064087,621
800.183044,604
800.302063,635
800.421021,614
800.539978,604
800.658936,602
800.777893,631
800.896912,618
801.015747,611
801.134705,600
801.253723,604
801.37262,597
801.491638,623
801.610535,605
801.729492,627
801.84845,589
801.967407,600
802.086243,593
802.205261,615
802.324158,579
802.443115,604
802.562073,596
802.680969,642
802.799927,598
802.918762,601
803.037659,598
803.156677,595
803.275574,597
803.39447,596
803.513428,604
803.632263,609
803.751221,602
803.870117,607
803.989014,566
804.107971,587
804.226746,591
804.345642,585
804.4646,605
804.583496,603
804.702393,599
804.821228,610
804.940125,591
805.059021,591
805.177917,600
805.296814,635
805.415649,582
805.534546,593
805.653442,599
805.772278,590
805.891113,599
806.01001,603
806.128906,604
806.247742,613
806.366577,601
806.485413,597
806.604309,579
806.723145,605
806.84198,595
806.960876,595
807.079712,603
807.198486,594
807.317383,593
807.436218,635
807.554993,621
807.673889,592
807.792725,584
807.91156,615
808.030396,573
808.14917,619
808.268005,601
808.386841,597
808.505676,618
808.624451,619
808.743286,571
808.862122,610
808.980896,572
809.099731,591
809.218506,592
809.337341,575
809.456116,606
809.57489,602
809.693726,591
809.8125,587
809.931274,614
810.050049,589
810.168884,600
810.287659,617
810.406372,601
810.525269,594
810.643982,599
810.762756,602
810.881531,607
811.000305,597
811.11908,589
811.237854,594
811.356567,601
811.475403,584
811.594116,591
811.71283,608
811.831604,620
811.950378,619
812.069153,595
812.187927,615
812.30658,595
812.425415,618
812.544128,612
812.662781,599
812.781616,591
812.900269,590
813.019043,620
813.137756,599
813.256531,615
813.375244,624
813.493896,583
813.612671,595
813.731384,588
813.850037,595
813.96875,589
814.087524,617
814.206238,619
814.324951,610
814.443604,574
814.562256,618
814.68103,587
814.799683,611
814.918335,577
815.037109,587
815.155762,584
815.274475,606
815.393188,566
815.511841,603
815.630554,596
815.749146,581
815.867859,575
815.986572,567
816.105164,596
816.223877,574
816.342529,597
816.461182,573
816.579895,585
816.698486,586
816.817139,602
816.935791,608
817.054504,569
817.173096,586
817.291748,576
817.4104,598
817.529053,548
817.647644,567
817.766235,552
817.884949,556
818.00354,582
818.122192,552
818.240845,548
818.359436,563
818.478088,551
818.59668,512
818.715271,543
818.833923,545
818.952515,529
819.071106,545
819.189758,530
819.30835,515
819.426941,528
819.545532,514
819.664124,522
819.782715,505
819.901306,495
820.019897,500
820.138489,498
820.25708,512
820.375671,515
820.494202,518
820.612732,511
820.731384,504
820.849915,500
820.968506,512
821.087097,514
821.205627,514
821.324158,511
821.442749,496
821.561279,477
821.679871,515
821.798401,482
821.916931,514
822.035461,473
822.154053,514
822.272583,493
822.391174,493
822.509583,481
822.628174,491
822.746704,514
822.865234,501
822.983765,497
823.102295,507
823.220825,502
823.339294,482
823.457825,500
823.576355,487
823.694824,492
823.813354,514
823.931885,505
824.050354,497
824.168884,489
824.287354,491
824.405823,495
824.524353,513
824.642822,490
824.761353,505
824.879822,491
824.998291,518
825.116699,519
825.235291,496
825.353699,509
825.472168,511
825.590637,494
825.709106,504
825.827576,473
825.946045,521
826.064453,501
826.182983,495
826.301392,480
826.4198,466
826.53833,497
826.656738,475
826.775208,483
826.893677,474
827.012024,480
827.130493,487
827.248962,481
827.36731,476
827.485779,486
827.604248,489
827.722595,474
827.841064,495
827.959412,479
828.077942,477
828.196289,462
828.314636,483
828.433105,467
828.551514,498
828.669861,473
828.78833,465
828.906677,475
829.025085,461
829.143433,476
829.261841,480
829.38031,477
829.498657,502
829.617004,471
829.735413,464
829.85376,464
829.972107,476
830.090515,471
830.208862,477
830.327209,459
830.445557,477
830.563904,486
830.682312,458
830.800659,474
830.919006,482
831.037354,461
831.155701,486
831.274048,489
831.392395,479
831.51062,472
831.629028,462
831.747314,489
831.865662,488
831.984009,473
832.102356,488
832.220642,474
832.338928,494
832.457275,473
832.575623,501
832.693909,478
832.812134,489
832.930481,484
833.048828,487
833.167114,479
833.2854,489
833.403687,456
833.521973,465
833.640259,469
833.758545,497
833.876831,459
833.995056,486
834.113281,505
834.231628,478
834.349915,462
834.468201,492
834.586426,480
834.704651,483
834.822998,481
834.941162,485
835.059448,478
835.177673,493
835.295959,486
835.414246,479
835.53241,487
835.650635,486
835.768921,483
835.887146,469
836.005371,488
836.123596,476
836.241821,487
836.360046,499
836.478271,465
836.596497,498
836.714722,479
836.832886,489
836.95105,482
837.069336,496
837.1875,482
837.305725,478
837.423889,464
837.542053,496
837.660339,488
837.778503,491
837.896667,485
838.014832,502
838.132996,495
838.25116,496
838.369385,485
838.487488,472
838.605713,489
838.723877,497
838.84198,495
838.960205,481
839.078308,486
839.196472,493
839.314636,481
839.4328,505
839.550964,479
839.669067,498
839.787231,500
839.905396,513
840.023499,489
840.141602,513
840.259766,493
840.377869,507
840.495972,479
840.614136,495
840.732239,504
840.850342,501
840.968445,486
841.086548,506
841.204651,513
841.322754,494
841.440918,497
841.55896,513
841.677002,508
841.795166,501
841.913208,518
842.031311,509
842.149353,504
842.267456,505
842.385498,514
842.503601,493
842.621643,487
842.739746,473
842.857788,495
842.97583,517
843.093933,499
843.211975,511
843.330017,481
843.44812,493
843.566101,485
843.684204,495
843.802246,480
843.920227,522
844.038269,494
844.156311,488
844.274292,502
844.392395,509
844.510376,469
844.628357,483
844.74646,495
844.864441,492
844.982422,504
845.100403,487
845.218384,492
845.336426,480
845.454468,490
845.572449,488
845.69043,483
845.808411,513
845.926453,496
846.044373,464
846.162354,499
846.280396,496
846.398315,484
846.516296,463
846.634216,493
846.752197,477
846.870178,493
846.988098,497
847.106079,509
847.22406,490
847.34198,497
847.4599,495
847.577881,471
847.695801,494
847.813782,493
847.931641,494
848.049561,502
848.167603,480
848.285461,512
848.403381,475
848.521362,488
848.639221,499
848.75708,476
848.875,498
848.99292,487
849.110901,489
849.22876,504
849.34668,504
849.464539,481
849.582458,496
849.700317,497
849.818176,487
849.936096,476
850.053955,498
850.171875,480
850.289673,512
850.407593,501
850.525452,479
850.643311,490
850.761169,496
850.878967,498
850.996887,495
851.114746,475
851.232544,487
851.350403,490
851.468262,490
851.58606,495
851.703979,499
851.821777,504
851.939636,477
852.057434,477
852.175232,465
852.293091,489
852.410889,503
852.528687,495
852.646545,541
852.764343,508
852.88208,502
852.999939,513
853.117676,506
853.235535,490
853.353271,508
853.471069,512
853.588928,507
853.706604,486
853.824402,503
853.9422,489
854.059998,505
854.177734,478
854.295532,499
854.413269,488
854.531006,495
854.648804,483
854.766541,507
854.884277,509
855.002014,504
855.119751,483
855.237549,492
855.355225,492
855.473022,490
855.590698,483
855.708435,497
855.826172,508
855.943848,495
856.061646,502
856.179321,495
856.296997,502
856.414795,515
856.53241,509
856.650085,507
856.767822,505
856.885559,521
857.003174,500
857.120911,498
857.238586,501
857.356201,523
857.473938,497
857.591614,511
857.709351,501
857.826965,502
857.944641,499
858.062317,515
858.179993,511
858.297668,495
858.415283,513
858.532959,525
858.650574,506
858.768188,514
858.885803,501
859.003479,494
859.121094,503
859.23877,508
859.356384,498
859.473999,498
859.591675,493
859.709229,508
859.826843,491
859.944458,504
860.062012,493
860.179626,476
860.297302,473
860.414856,489
860.532471,484
860.650024,482
860.767639,492
860.885193,488
861.002808,489
861.120361,481
861.237976,479
861.35553,485
861.473022,490
861.590698,493
861.708191,485
861.825745,491
861.943298,474
862.060852,482
862.178406,479
862.295959,490
862.413513,469
862.531006,467
862.64856,463
862.766113,473
862.883667,485
863.00116,487
863.118713,484
863.236206,481
863.353699,475
863.471252,483
863.588745,489
863.706177,486
863.82373,491
863.941162,466
864.058716,502
864.176208,492
864.29364,473
864.411194,491
864.528687,479
864.646118,501
864.763611,472
864.881042,487
864.998535,474
865.116028,486
865.233459,467
865.350891,500
865.468384,484
865.585754,477
865.703308,463
865.820679,497
865.938171,471
866.055542,480
866.173035,484
866.290466,469
866.407837,458
866.52533,491
866.6427,484
866.760071,483
866.877563,449
866.994934,485
867.112305,475
867.229736,480
867.347107,458
867.464539,492
867.58197,479
867.699341,479
867.81665,480
867.934082,491
868.051453,511
868.168823,485
868.286194,484
868.403564,471
868.520935,487
868.638306,496
868.755676,484
868.872986,487
868.990295,468
869.107727,480
869.225037,480
869.342346,498
869.459717,487
869.577026,507
869.694336,485
869.811707,478
869.929016,475
870.046326,495
870.163635,477
870.280945,494
870.398254,516
870.515564,491
870.632812,518
870.750183,509
870.867432,509
870.984741,503
871.102051,487
871.219299,494
871.336609,492
871.453918,516
871.571106,502
871.688416,484
871.805664,512
871.922852,526
872.040222,508
872.157471,509
872.274719,517
872.391968,493
872.509155,489
872.626465,507
872.743652,508
872.860962,521
872.978149,502
873.095337,504
873.212646,506
873.329834,509
873.44696,491
873.564209,516
873.681396,490
873.798645,508
873.915894,502
874.03302,514
874.150208,485
874.267456,523
874.384583,493
874.501831,501
874.618958,500
874.736145,521
874.853333,501
874.970459,519
875.087646,487
875.204834,524
875.32196,493
875.439148,508
875.556274,506
875.673401,494
875.790527,509
875.907715,501
876.024841,482
876.141968,489
876.259094,500
876.376282,474
876.493347,485
876.610474,501
876.7276,498
876.844727,494
876.961853,489
877.078918,500
877.195984,467
877.313171,475
877.430237,488
877.547302,510
877.664368,481
877.781433,483
877.898499,494
878.015625,491
878.13269,493
878.249695,484
878.366821,492
878.483887,491
878.600952,475
878.717957,476
878.834961,465
878.952087,481
879.069092,503
879.186157,470
879.303162,482
879.420227,462
879.537231,455
879.654236,490
879.77124,483
879.888306,492
880.005249,462
880.122314,485
880.239319,483
880.356323,456
880.473328,475
880.590271,478
880.707275,479
880.824341,462
880.941284,461
881.058228,500
881.175232,484
881.292236,493
881.40918,469
881.526123,472
881.643066,458
881.760071,488
881.877014,461
881.993958,457
882.11084,488
882.227783,477
882.344727,470
882.46167,471
882.578613,482
882.695618,478
882.812439,474
882.929382,479
883.046326,468
883.163208,481
883.280151,499
883.397034,475
883.513916,492
883.630798,470
883.747742,476
883.864563,492
883.981506,511
884.098389,476
884.21521,476
884.332153,494
884.448975,476
884.565796,503
884.682678,489
884.7995,517
884.916443,498
885.033264,535
885.150085,523
885.266968,526
885.383789,530
885.500671,543
885.617493,531
885.734314,549
885.851196,542
885.967896,543
886.084717,522
886.201599,545
886.318359,542
886.435181,534
886.552002,537
886.668762,537
886.785645,518
886.902344,530
887.019165,523
887.135925,538
887.252747,504
887.369446,522
887.486267,513
887.603027,506
887.719788,506
887.836548,499
887.953247,499
888.070068,485
888.186829,486
888.303528,492
888.420288,497
888.536987,473
888.653687,474
888.770447,485
888.887146,474
889.003967,459
889.120667,483
889.237305,492
889.354065,483
889.470703,474
889.587463,474
889.704163,451
889.820862,474
889.937561,454
890.054199,469
890.170837,480
890.287598,464
890.404236,481
890.520874,462
890.637634,468
890.754211,462
890.87085,472
890.987549,476
891.104187,474
891.220886,465
891.337463,478
891.454102,444
891.57074,463
891.687378,447
891.804077,468
891.920654,469
892.037231,485
892.15387,469
892.270447,465
892.387085,459
892.503723,467
892.6203,453
892.736877,488
892.853516,463
892.970032,479
893.08667,465
893.203186,460
893.319763,464
893.43634,475
893.552917,459
893.669556,493
893.786011,445
893.902588,477
894.019165,481
894.135681,466
894.252197,455
894.368835,461
894.485291,456
894.601868,469
894.718384,466
894.8349,469
894.951355,475
895.067932,481
895.184448,463
895.300964,466
895.417419,476
895.533936,465
895.650452,463
895.766907,474
895.883423,445
895.999878,484
896.116333,458
896.232849,477
896.349304,492
896.465759,469
896.582214,468
896.698669,487
896.815125,468
896.931641,482
897.048035,477
897.164551,462
897.280884,456
897.397339,453
897.513794,487
897.630249,440
897.746582,476
897.863098,477
897.979431,464
898.095886,466
898.212341,479
898.328674,459
898.445129,469
898.561462,470
898.677795,460
898.794312,471
898.910645,475
899.026978,464
899.143433,478
899.259766,479
899.37616,474
899.492493,480
899.608765,482
899.725159,498
899.841553,465
899.957947,504
900.07428,474
900.190552,465
900.306946,477
900.423157,475
900.53949,472
900.655884,487
900.772156,455
900.888489,469
901.004822,476
901.121033,478
901.237366,468
901.353699,485
901.46991,505
901.586304,491
901.702515,475
901.818787,482
901.93512,484
902.051331,495
902.167603,507
902.283875,516
902.400085,489
902.516418,492
902.632629,513
902.74884,509
902.865112,501
902.981384,515
903.097595,494
903.213867,525
903.330017,503
903.446289,481
903.5625,500
903.67865,500
903.794922,488
903.911072,488
904.027344,468
904.143494,489
904.259705,486
904.375916,487
904.492065,474
904.608215,467
904.724426,479
904.840576,467
904.956726,476
905.072876,501
905.189087,468
905.305176,481
905.421387,474
905.537537,459
905.653687,462
905.769775,480
905.885925,466
906.002014,473
906.118164,468
906.234314,485
906.350403,466
906.466492,471
906.582642,465
906.69873,461
906.814758,467
906.930908,458
907.046936,476
907.163086,475
907.279175,471
907.395264,466
907.511353,469
907.62738,467
907.743408,463
907.859497,489
907.975525,471
908.091553,471
908.207703,482
908.32373,478
908.439758,463
908.555786,499
908.671814,474
908.787842,465
908.90387,464
909.019775,485
909.135864,471
909.251892,495
909.367859,453
909.483826,472
909.599854,479
909.715881,477
909.831848,473
909.947815,483
910.063782,460
910.179749,490
910.295776,466
910.411743,462
910.527649,479
910.643616,491
910.759583,464
910.875488,474
910.991455,460
911.107361,463
911.223267,472
911.339294,471
911.4552,461
911.571106,469
911.687073,458
911.802979,486
911.918823,472
912.034729,474
912.150635,462
912.266602,463
912.382446,467
912.498352,472
912.614197,465
912.730103,461
912.846008,484
792.44574,913
792.56488,954
792.68396,943
792.80304,936
792.92218,866
793.041199,842
793.160339,782
793.279419,812
793.398499,817
793.517578,790
793.636658,786
793.755737,818
793.874817,784
793.993896,811
794.112976,793
794.232056,749
794.351074,772
794.470215,724
794.589233,731
794.708313,722
794.827393,728
794.946411,699
795.065552,701
795.18457,712
795.303589,731
795.422668,698
795.541687,714
795.660767,672
795.779846,703
795.898865,693
796.017883,703
796.136963,647
796.255981,687
796.375061,705
796.49408,663
796.613037,680
796.732117,667
796.851135,662
796.970154,634
797.089233,660
797.208191,659
797.327271,633
797.446228,643
797.565186,662
797.684265,652
797.803223,616
797.922241,631
798.04126,662
798.160278,611
798.279297,649
798.398315,614
798.517273,614
798.636292,618
798.75531,633
798.874268,614
798.993286,638
799.112244,598
799.231323,637
799.350281,617
799.469238,643
799.588257,613
799.707153,638
799.826111,620
799.945129,612
800.064087,596
800.183044,622
800.302063,623
800.421021,591
800.539978,616
800.658936,600
800.777893,607
800.896912,590
801.015747,604
801.134705,615
801.253723,610
801.37262,608
801.491638,617
801.610535,634
801.729492,618
801.84845,602
801.967407,608
802.086243,625
802.205261,623
802.324158,595
802.443115,627
802.562073,629
802.680969,612
802.799927,625
802.918762,573
803.037659,595
803.156677,598
803.275574,619
803.39447,613
803.513428,580
803.632263,603
803.751221,627
803.870117,594
803.989014,605
804.107971,587
804.226746,595
804.345642,612
804.4646,595
804.583496,592
804.702393,602
804.821228,604
804.940125,603
805.059021,601
805.177917,611
805.296814,596
805.415649,614
805.534546,576
805.653442,590
805.772278,599
805.891113,597
806.01001,587
806.128906,615
806.247742,600
806.366577,574
806.485413,590
806.604309,635
806.723145,610
806.84198,589
806.960876,589
807.079712,597
807.198486,612
807.317383,612
807.436218,595
807.554993,607
807.673889,611
807.792725,591
807.91156,602
808.030396,622
808.14917,587
808.268005,602
808.386841,602
808.505676,583
808.624451,624
808.743286,601
808.862122,583
808.980896,587
809.099731,610
809.218506,595
809.337341,581
809.456116,591
809.57489,590
809.693726,615
809.8125,611
809.931274,614
810.050049,591
810.168884,620
810.287659,594
810.406372,606
810.525269,615
810.643982,606
810.762756,594
810.881531,593
811.000305,598
811.11908,598
811.237854,590
811.356567,603
811.475403,608
811.594116,617
811.71283,597
811.831604,581
811.950378,622
812.069153,616
812.187927,607
812.30658,617
812.425415,601
812.544128,607
812.662781,618
812.781616,620
812.900269,604
813.019043,615
813.137756,563
813.256531,609
813.375244,606
813.493896,614
813.612671,606
813.731384,595
813.850037,601
813.96875,595
814.087524,606
814.206238,580
814.324951,577
814.443604,625
814.562256,605
814.68103,608
814.799683,591
814.918335,606
815.037109,576
815.155762,584
815.274475,596
815.393188,597
815.511841,575
815.630554,614
815.749146,595
815.867859,593
815.986572,597
816.105164,564
816.223877,582
816.342529,608
816.461182,590
816.579895,603
816.698486,603
816.817139,610
816.935791,620
817.054504,579
817.173096,612
817.291748,596
817.4104,609
817.529053,564
817.647644,587
817.766235,579
817.884949,590
818.00354,560
818.122192,564
818.240845,575
818.359436,556
818.478088,569
818.59668,547
818.715271,536
818.833923,540
818.952515,515
819.071106,532
819.189758,537
819.30835,527
819.426941,528
819.545532,508
819.664124,501
819.782715,511
819.901306,526
820.019897,508
820.138489,518
820.25708,506
820.375671,515
820.494202,512
820.612732,523
820.731384,495
820.849915,524
820.968506,509
821.087097,511
821.205627,505
821.324158,499
821.442749,508
821.561279,494
821.679871,484
821.798401,499
821.916931,503
822.035461,511
822.154053,502
822.272583,506
822.391174,502
822.509583,500
822.628174,516
822.746704,486
822.865234,472
822.983765,502
823.102295,509
823.220825,512
823.339294,483
823.457825,515
823.576355,498
823.694824,494
823.813354,503
823.931885,524
824.050354,486
824.168884,496
824.287354,493
824.405823,506
824.524353,511
824.642822,497
824.761353,500
824.879822,484
824.998291,515
825.116699,503
825.235291,487
825.353699,498
825.472168,491
825.590637,486
825.709106,501
825.827576,492
825.946045,501
826.064453,486
826.182983,497
826.301392,472
826.4198,475
826.53833,475
826.656738,482
826.775208,506
826.893677,477
827.012024,480
827.130493,488
827.248962,482
827.36731,478
827.485779,485
827.604248,487
827.722595,499
827.841064,475
827.959412,491
828.077942,485
828.196289,487
828.314636,459
828.433105,489
828.551514,494
828.669861,487
828.78833,482
828.906677,484
829.025085,493
829.143433,477
829.261841,477
829.38031,496
829.498657,478
829.617004,498
829.735413,484
829.85376,495
829.972107,478
830.090515,495
830.208862,466
830.327209,483
830.445557,488
830.563904,480
830.682312,481
830.800659,476
830.919006,472
831.037354,482
831.155701,491
831.274048,509
831.392395,475
831.51062,490
831.629028,470
831.747314,472
831.865662,481
831.984009,466
832.102356,480
832.220642,468
832.338928,487
832.457275,507
832.575623,478
832.693909,490
832.812134,491
832.930481,505
833.048828,480
833.167114,467
833.2854,498
833.403687,504
833.521973,466
833.640259,480
833.758545,477
833.876831,491
833.995056,481
834.113281,486
834.231628,484
834.349915,471
834.468201,489
834.586426,472
834.704651,473
834.822998,493
834.941162,499
835.059448,496
835.177673,480
835.295959,482
835.414246,471
835.53241,466
835.650635,473
835.768921,464
835.887146,494
836.005371,468
836.123596,494
836.241821,487
836.360046,465
836.478271,490
836.596497,473
836.714722,490
836.832886,479
836.95105,502
837.069336,500
837.1875,490
837.305725,488
837.423889,506
837.542053,492
837.660339,509
837.778503,482
837.896667,462
838.014832,511
838.132996,489
838.25116,478
838.369385,488
838.487488,475
838.605713,506
838.723877,506
838.84198,491
838.960205,477
839.078308,482
839.196472,488
839.314636,497
839.4328,482
839.550964,495
839.669067,510
839.787231,516
839.905396,502
840.023499,492
840.141602,493
840.259766,502
840.377869,505
840.495972,502
840.614136,510
840.732239,513
840.850342,509
840.968445,491
841.086548,508
841.204651,522
841.322754,478
841.440918,501
841.55896,496
841.677002,515
841.795166,528
841.913208,505
842.031311,500
842.149353,513
842.267456,511
842.385498,509
842.503601,508
842.621643,492
842.739746,512
842.857788,476
842.97583,512
843.093933,490
843.211975,474
843.330017,500
843.44812,500
843.566101,510
843.684204,507
843.802246,511
843.920227,478
844.038269,512
844.156311,481
844.274292,513
844.392395,492
844.510376,510
844.628357,481
844.74646,491
844.864441,511
844.982422,498
845.100403,509
845.218384,494
845.336426,482
845.454468,506
845.572449,477
845.69043,492
845.808411,506
845.926453,499
846.044373,496
846.162354,475
846.280396,510
846.398315,500
846.516296,498
846.634216,509
846.752197,485
846.870178,500
846.988098,494
847.106079,520
847.22406,479
847.34198,481
847.4599,498
847.577881,496
847.695801,487
847.813782,498
847.931641,477
848.049561,492
848.167603,492
848.285461,468
848.403381,496
848.521362,486
848.639221,504
848.75708,505
848.875,481
848.99292,516
849.110901,484
849.22876,509
849.34668,499
849.464539,481
849.582458,482
849.700317,492
849.818176,491
849.936096,513
850.053955,494
850.171875,504
850.289673,507
850.407593,497
850.525452,508
850.643311,499
850.761169,471
850.878967,477
850.996887,489
851.114746,504
851.232544,482
851.350403,481
851.468262,497
851.58606,468
851.703979,489
851.821777,501
851.939636,475
852.057434,500
852.175232,465
852.293091,494
852.410889,512
852.528687,503
852.646545,513
852.764343,519
852.88208,509
852.999939,501
853.117676,499
853.235535,511
853.353271,483
853.471069,500
853.588928,502
853.706604,485
853.824402,469
853.9422,506
854.059998,480
854.177734,504
854.295532,496
854.413269,499
854.531006,502
854.648804,514
854.766541,483
854.884277,509
855.002014,507
855.119751,477
855.237549,514
855.355225,493
855.473022,503
855.590698,505
855.708435,514
855.826172,508
855.943848,500
856.061646,478
856.179321,478
856.296997,498
856.414795,499
856.53241,524
856.650085,513
856.767822,504
856.885559,518
857.003174,514
857.120911,523
857.238586,515
857.356201,506
857.473938,511
857.591614,509
857.709351,528
857.826965,512
857.944641,518
858.062317,510
858.179993,488
858.297668,499
858.415283,490
858.532959,501
858.650574,508
858.768188,486
858.885803,509
859.003479,490
859.121094,517
859.23877,491
859.356384,511
859.473999,507
859.591675,508
859.709229,515
859.826843,507
859.944458,508
860.062012,495
860.179626,486
860.297302,513
860.414856,481
860.532471,489
860.650024,488
860.767639,502
860.885193,484
861.002808,492
861.120361,499
861.237976,485
861.35553,491
861.473022,496
861.590698,486
861.708191,498
861.825745,497
861.943298,489
862.060852,500
862.178406,476
862.295959,476
862.413513,480
862.531006,481
862.64856,497
862.766113,481
862.883667,469
863.00116,472
863.118713,466
863.236206,467
863.353699,484
863.471252,472
863.588745,493
863.706177,485
863.82373,492
863.941162,507
864.058716,507
864.176208,489
864.29364,490
864.411194,485
864.528687,482
864.646118,505
864.763611,480
864.881042,459
864.998535,512
865.116028,472
865.233459,475
865.350891,483
865.468384,486
865.585754,459
865.703308,468
865.820679,493
865.938171,465
866.055542,479
866.173035,486
866.290466,481
866.407837,485
866.52533,486
866.6427,473
866.760071,486
866.877563,500
866.994934,465
867.112305,480
867.229736,488
867.347107,489
867.464539,491
867.58197,486
867.699341,471
867.81665,503
867.934082,502
868.051453,492
868.168823,477
868.286194,485
868.403564,488
868.520935,480
868.638306,491
868.755676,476
868.872986,487
868.990295,492
869.107727,493
869.225037,499
869.342346,483
869.459717,475
869.577026,501
869.694336,508
869.811707,500
869.929016,518
870.046326,505
870.163635,499
870.280945,495
870.398254,511
870.515564,513
870.632812,520
870.750183,510
870.867432,506
870.984741,495
871.102051,499
871.219299,499
871.336609,509
871.453918,519
871.571106,512
871.688416,511
871.805664,497
871.922852,512
872.040222,491
872.157471,501
872.274719,501
872.391968,476
872.509155,500
872.626465,485
872.743652,505
872.860962,511
872.978149,489
873.095337,512
873.212646,524
873.329834,504
873.44696,502
873.564209,498
873.681396,501
873.798645,482
873.915894,500
874.03302,482
874.150208,501
874.267456,502
874.384583,502
874.501831,524
874.618958,508
874.736145,504
874.853333,505
874.970459,500
875.087646,519
875.204834,527
875.32196,499
875.439148,491
875.556274,503
875.673401,509
875.790527,500
875.907715,517
876.024841,519
876.141968,503
876.259094,482
876.376282,481
876.493347,506
876.610474,482
876.7276,505
876.844727,494
876.961853,499
877.078918,502
877.195984,487
877.313171,497
877.430237,494
877.547302,504
877.664368,515
877.781433,484
877.898499,498
878.015625,508
878.13269,489
878.249695,486
878.366821,484
878.483887,491
878.600952,493
878.717957,486
878.834961,476
878.952087,480
879.069092,494
879.186157,473
879.303162,463
879.420227,487
879.537231,489
879.654236,470
879.77124,488
879.888306,456
880.005249,481
880.122314,472
880.239319,475
880.356323,471
880.473328,475
880.590271,474
880.707275,477
880.824341,477
880.941284,461
881.058228,471
881.175232,496
881.292236,485
881.40918,458
881.526123,479
881.643066,476
881.760071,490
881.877014,469
881.993958,473
882.11084,471
882.227783,466
882.344727,475
882.46167,467
882.578613,477
882.695618,494
882.812439,486
882.929382,492
883.046326,472
883.163208,471
883.280151,481
883.397034,468
883.513916,464
883.630798,484
883.747742,472
883.864563,486
883.981506,476
884.098389,483
884.21521,484
884.332153,478
884.448975,459
884.565796,485
884.682678,522
884.7995,505
884.916443,529
885.033264,555
885.150085,521
885.266968,535
885.383789,530
885.500671,530
885.617493,538
885.734314,535
885.851196,533
885.967896,528
886.084717,537
886.201599,533
886.318359,535
886.435181,526
886.552002,545
886.668762,522
886.785645,539
886.902344,542
887.019165,524
887.135925,523
887.252747,514
887.369446,498
887.486267,502
887.603027,495
887.719788,520
887.836548,515
887.953247,491
888.070068,503
888.186829,482
888.303528,501
888.420288,501
888.536987,470
888.653687,482
888.770447,471
888.887146,478
889.003967,476
889.120667,481
889.237305,473
889.354065,455
889.470703,469
889.587463,480
889.704163,445
889.820862,447
889.937561,467
890.054199,494
890.170837,468
890.287598,464
890.404236,481
890.520874,477
890.637634,468
890.754211,478
890.87085,476
890.987549,468
891.104187,483
891.220886,475
891.337463,448
891.454102,479
891.57074,476
891.687378,495
891.804077,485
891.920654,449
892.037231,488
892.15387,476
892.270447,506
892.387085,463
892.503723,485
892.6203,474
892.736877,458
892.853516,462
892.970032,480
893.08667,473
893.203186,466
893.319763,476
893.43634,491
893.552917,461
893.669556,472
893.786011,472
893.902588,472
894.019165,458
894.135681,467
894.252197,473
894.368835,479
894.485291,477
894.601868,464
894.718384,471
894.8349,454
894.951355,488
895.067932,476
895.184448,466
895.300964,467
895.417419,476
895.533936,475
895.650452,459
895.766907,478
895.883423,474
895.999878,458
896.116333,481
896.232849,466
896.349304,480
896.465759,438
896.582214,483
896.698669,464
896.815125,485
896.931641,483
897.048035,469
897.164551,501
897.280884,471
897.397339,461
897.513794,466
897.630249,464
897.746582,467
897.863098,466
897.979431,485
898.095886,475
898.212341,489
898.328674,475
898.445129,453
898.561462,466
898.677795,469
898.794312,482
898.910645,471
899.026978,483
899.143433,468
899.259766,474
899.37616,482
899.492493,454
899.608765,475
899.725159,491
899.841553,477
899.957947,474
900.07428,466
900.190552,461
900.306946,458
900.423157,503
900.53949,479
900.655884,465
900.772156,483
900.888489,475
901.004822,477
901.121033,482
901.237366,483
901.353699,486
901.46991,490
901.586304,487
901.702515,481
901.818787,494
901.93512,486
902.051331,485
902.167603,499
902.283875,524
902.400085,500
902.516418,505
902.632629,510
902.74884,527
902.865112,527
902.981384,526
903.097595,498
903.213867,488
903.330017,529
903.446289,499
903.5625,517
903.67865,516
903.794922,514
903.911072,487
904.027344,517
904.143494,496
904.259705,503
904.375916,505
904.492065,497
904.608215,480
904.724426,473
904.840576,475
904.956726,475
905.072876,485
905.189087,463
905.305176,477
905.421387,478
905.537537,483
905.653687,472
905.769775,490
905.885925,470
906.002014,480
906.118164,487
906.234314,480
906.350403,479
906.466492,482
906.582642,479
906.69873,465
906.814758,488
906.930908,487
907.046936,448
907.163086,476
907.279175,467
907.395264,452
907.511353,457
907.62738,449
907.743408,464
907.859497,482
907.975525,462
908.091553,475
908.207703,463
908.32373,486
908.439758,464
908.555786,471
908.671814,469
908.787842,489
908.90387,482
909.019775,477
909.135864,477
909.251892,454
909.367859,475
909.483826,491
909.599854,477
909.715881,492
909.831848,482
909.947815,468
910.063782,478
910.179749,470
910.295776,469
910.411743,489
910.527649,476
910.643616,459
910.759583,473
910.875488,492
910.991455,467
911.107361,467
911.223267,480
911.339294,484
911.4552,458
911.571106,464
911.687073,471
911.802979,493
911.918823,473
912.034729,473
912.150635,465
912.266602,469
912.382446,464
912.498352,472
912.614197,465
912.730103,443
912.846008,448
792.44574,917
792.56488,959
792.68396,938
792.80304,923
792.92218,887
793.041199,842
793.160339,854
793.279419,865
793.398499,839
793.517578,786
793.636658,804
793.755737,791
793.874817,804
793.993896,774
794.112976,761
794.232056,773
794.351074,767
794.470215,749
794.589233,745
794.708313,709
794.827393,719
794.946411,709
795.065552,722
795.18457,716
795.303589,698
795.422668,714
795.541687,698
795.660767,704
795.779846,685
795.898865,696
796.017883,697
796.136963,683
796.255981,714
796.375061,676
796.49408,662
796.613037,696
796.732117,670
796.851135,655
796.970154,657
797.089233,679
797.208191,700
797.327271,617
797.446228,644
797.565186,641
797.684265,646
797.803223,675
797.922241,626
798.04126,651
798.160278,620
798.279297,623
798.398315,647
798.517273,623
798.636292,625
798.75531,629
798.874268,637
798.993286,615
799.112244,620
799.231323,629
799.350281,636
799.469238,640
799.588257,617
799.707153,622
799.826111,609
799.945129,646
800.064087,636
800.183044,632
800.302063,584
800.421021,632
800.539978,610
800.658936,604
800.777893,611
800.896912,602
801.015747,575
801.134705,614
801.253723,612
801.37262,618
801.491638,626
801.610535,608
801.729492,617
801.84845,598
801.967407,605
802.086243,621
802.205261,618
802.324158,595
802.443115,610
802.562073,605
802.680969,633
802.799927,600
802.918762,604
803.037659,601
803.156677,603
803.275574,612
803.39447,595
803.513428,584
803.632263,594
803.751221,608
803.870117,604
803.989014,598
804.107971,617
804.226746,578
804.345642,583
804.4646,578
804.583496,620
804.702393,595
804.821228,614
804.940125,607
805.059021,590
805.177917,592
805.296814,586
805.415649,584
805.534546,601
805.653442,617
805.772278,615
805.891113,597
806.01001,602
806.128906,565
806.247742,617
806.366577,597
806.485413,620
806.604309,582
806.723145,613
806.84198,615
806.960876,621
807.079712,600
807.198486,621
807.317383,610
807.436218,593
807.554993,586
807.673889,598
807.792725,601
807.91156,592
808.030396,593
808.14917,611
808.268005,594
808.386841,593
808.505676,615
808.624451,596
808.743286,618
808.862122,593
808.980896,578
809.099731,592
809.218506,611
809.337341,591
809.456116,604
809.57489,603
809.693726,608
809.8125,631
809.931274,610
810.050049,593
810.168884,580
810.287659,608
810.406372,635
810.525269,587
810.643982,588
810.762756,600
810.881531,626
811.000305,592
811.11908,612
811.237854,601
811.356567,612
811.475403,626
811.594116,611
811.71283,599
811.831604,621
811.950378,603
812.069153,580
812.187927,627
812.30658,589
812.425415,616
812.544128,582
812.662781,610
812.781616,620
812.900269,618
813.019043,611
813.137756,615
813.256531,604
813.375244,606
813.493896,603
813.612671,591
813.731384,598
813.850037,592
813.96875,603
814.087524,583
814.206238,606
814.324951,578
814.443604,592
814.562256,606
814.68103,628
814.799683,601
814.918335,610
815.037109,606
815.155762,589
815.274475,584
815.393188,582
815.511841,600
815.630554,594
815.749146,575
815.867859,572
815.986572,584
816.105164,551
816.223877,591
816.342529,584
816.461182,593
816.579895,607
816.698486,611
816.817139,556
816.935791,608
817.054504,596
817.173096,597
817.291748,608
817.4104,592
817.529053,563
817.647644,599
817.766235,552
817.884949,577
818.00354,583
818.122192,558
818.240845,551
818.359436,547
818.478088,546
818.59668,558
818.715271,525
818.833923,554
818.952515,546
819.071106,517
819.189758,519
819.30835,513
819.426941,495
819.545532,520
819.664124,536
819.782715,493
819.901306,502
820.019897,525
820.138489,508
820.25708,525
820.375671,513
820.494202,522
820.612732,528
820.731384,513
820.849915,507
820.968506,503
821.087097,518
821.205627,527
821.324158,503
821.442749,518
821.561279,499
821.679871,506
821.798401,518
821.916931,515
822.035461,482
822.154053,504
822.272583,511
822.391174,514
822.509583,495
822.628174,520
822.746704,488
822.865234,497
822.983765,495
823.102295,504
823.220825,496
823.339294,500
823.457825,496
823.576355,482
823.694824,499
823.813354,516
823.931885,495
824.050354,512
824.168884,501
824.287354,515
824.405823,487
824.524353,504
824.642822,502
824.761353,491
824.879822,506
824.998291,536
825.116699,496
825.235291,510
825.353699,496
825.472168,491
825.590637,499
825.709106,526
825.827576,491
825.946045,501
826.064453,488
826.182983,488
826.301392,494
826.4198,491
826.53833,488
826.656738,493
826.775208,467
826.893677,487
827.012024,491
827.130493,491
827.248962,505
827.36731,499
827.485779,490
827.604248,494
827.722595,483
827.841064,488
827.959412,493
828.077942,490
828.196289,471
828.314636,497
828.433105,460
828.551514,485
828.669861,496
828.78833,477
828.906677,490
829.025085,496
829.143433,492
829.261841,483
829.38031,471
829.498657,495
829.617004,479
829.735413,506
829.85376,472
829.972107,495
830.090515,495
830.208862,514
830.327209,460
830.445557,474
830.563904,486
830.682312,499
830.800659,491
830.919006,470
831.037354,481
831.155701,473
831.274048,488
831.392395,482
831.51062,490
831.629028,470
831.747314,497
831.865662,485
831.984009,493
832.102356,464
832.220642,475
832.338928,481
832.457275,495
832.575623,489
832.693909,484
832.812134,471
832.930481,483
833.048828,485
833.167114,478
833.2854,478
833.403687,480
833.521973,482
833.640259,491
833.758545,500
833.876831,507
833.995056,490
834.113281,486
834.231628,488
834.349915,478
834.468201,503
834.586426,482
834.704651,491
834.822998,476
834.941162,496
835.059448,509
835.177673,508
835.295959,482
835.414246,493
835.53241,499
835.650635,505
835.768921,495
835.887146,504
836.005371,476
836.123596,484
836.241821,491
836.360046,499
836.478271,486
836.596497,492
836.714722,496
836.832886,504
836.95105,483
837.069336,522
837.1875,489
837.305725,488
837.423889,476
837.542053,496
837.660339,483
837.778503,503
837.896667,488
838.014832,488
838.132996,490
838.25116,487
838.369385,492
838.487488,499
838.605713,505
838.723877,490
838.84198,503
838.960205,504
839.078308,471
839.196472,500
839.314636,502
839.4328,500
839.550964,486
839.669067,516
839.787231,507
839.905396,525
840.023499,500
840.141602,523
840.259766,500
840.377869,487
840.495972,501
840.614136,493
840.732239,510
840.850342,498
840.968445,491
841.086548,482
841.204651,500
841.322754,500
841.440918,485
841.55896,500
841.677002,499
841.795166,496
841.913208,519
842.031311,514
842.149353,491
842.267456,503
842.385498,539
842.503601,505
842.621643,498
842.739746,504
842.857788,492
842.97583,519
843.093933,474
843.211975,496
843.330017,504
843.44812,508
843.566101,491
843.684204,511
843.802246,509
843.920227,516
844.038269,488
844.156311,515
844.274292,516
844.392395,499
844.510376,499
844.628357,469
844.74646,503
844.864441,479
844.982422,464
845.100403,483
845.218384,498
845.336426,516
845.454468,488
845.572449,500
845.69043,491
845.808411,492
845.926453,487
846.044373,509
846.162354,481
846.280396,517
846.398315,478
846.516296,513
846.634216,482
846.752197,497
846.870178,494
846.988098,502
847.106079,494
847.22406,500
847.34198,491
847.4599,503
847.577881,487
847.695801,516
847.813782,495
847.931641,486
848.049561,504
848.167603,507
848.285461,501
848.403381,490
848.521362,492
848.639221,495
848.75708,492
848.875,503
848.99292,497
849.110901,499
849.22876,504
849.34668,495
849.464539,498
849.582458,513
849.700317,471
849.818176,478
849.936096,483
850.053955,524
850.171875,495
850.289673,511
850.407593,470
850.525452,496
850.643311,508
850.761169,516
850.878967,477
850.996887,488
851.114746,481
851.232544,510
851.350403,481
851.468262,494
851.58606,488
851.703979,491
851.821777,493
851.939636,485
852.057434,484
852.175232,501
852.293091,501
852.410889,477
852.528687,509
852.646545,513
852.764343,537
852.88208,515
852.999939,477
853.117676,497
853.235535,497
853.353271,487
853.471069,486
853.588928,489
853.706604,498
853.824402,495
853.9422,485
854.059998,494
854.177734,508
854.295532,504
854.413269,523
854.531006,485
854.648804,496
854.766541,530
854.884277,485
855.002014,497
855.119751,501
855.237549,508
855.355225,486
855.473022,510
855.590698,495
855.708435,517
855.826172,504
855.943848,495
856.061646,498
856.179321,526
856.296997,517
856.414795,519
856.53241,507
856.650085,509
856.767822,495
856.885559,520
857.003174,513
857.120911,527
857.238586,511
857.356201,513
857.473938,495
857.591614,519
857.709351,514
857.826965,527
857.944641,499
858.062317,511
858.179993,511
858.297668,514
858.415283,513
858.532959,537
858.650574,488
858.768188,503
858.885803,519
859.003479,499
859.121094,500
859.23877,482
859.356384,500
859.473999,494
859.591675,492
859.709229,506
859.826843,498
859.944458,495
860.062012,496
860.179626,482
860.297302,480
860.414856,500
860.532471,502
860.650024,494
860.767639,494
860.885193,481
861.002808,503
861.120361,490
861.237976,512
861.35553,503
861.473022,497
861.590698,511
861.708191,493
861.825745,497
861.943298,514
862.060852,490
862.178406,479
862.295959,478
862.413513,462
862.531006,488
862.64856,489
862.766113,482
862.883667,479
863.00116,504
863.118713,466
863.236206,482
863.353699,493
863.471252,490
863.588745,494
863.706177,486
863.82373,470
863.941162,472
864.058716,486
864.176208,484
864.29364,473
864.411194,499
864.528687,493
864.646118,472
864.763611,485
864.881042,487
864.998535,458
865.116028,510
865.233459,494
865.350891,489
865.468384,471
865.585754,500
865.703308,494
865.820679,471
865.938171,485
866.055542,482
866.173035,496
866.290466,487
866.407837,473
866.52533,480
866.6427,478
866.760071,478
866.877563,501
866.994934,496
867.112305,475
867.229736,484
867.347107,473
867.464539,521
867.58197,492
867.699341,497
867.81665,484
867.934082,504
868.051453,495
868.168823,496
868.286194,481
868.403564,486
868.520935,477
868.638306,494
868.755676,486
868.872986,505
868.990295,490
869.107727,493
869.225037,485
869.342346,496
869.459717,495
869.577026,515
869.694336,472
869.811707,503
869.929016,505
870.046326,477
870.163635,509
870.280945,505
870.398254,501
870.515564,503
870.632812,519
870.750183,498
870.867432,497
870.984741,518
871.102051,491
871.219299,527
871.336609,511
871.453918,511
871.571106,498
871.688416,522
871.805664,509
871.922852,516
872.040222,502
872.157471,512
872.274719,512
872.391968,503
872.509155,505
872.626465,514
872.743652,505
872.860962,506
872.978149,510
873.095337,513
873.212646,485
873.329834,517
873.44696,508
873.564209,510
873.681396,502
873.798645,519
873.915894,506
874.03302,511
874.150208,494
874.267456,504
874.384583,508
874.501831,510
874.618958,505
874.736145,515
874.853333,506
874.970459,500
875.087646,524
875.204834,511
875.32196,501
875.439148,495
875.556274,494
875.673401,510
875.790527,515
875.907715,507
876.024841,505
876.141968,500
876.259094,512
876.376282,500
876.493347,505
876.610474,487
876.7276,490
876.844727,491
876.961853,494
877.078918,478
877.195984,488
877.313171,508
877.430237,494
877.547302,491
877.664368,503
877.781433,503
877.898499,484
878.015625,501
878.13269,497
878.249695,503
878.366821,494
878.483887,507
878.600952,491
878.717957,478
878.834961,501
878.952087,508
879.069092,488
879.186157,484
879.303162,495
879.420227,491
879.537231,487
879.654236,488
879.77124,467
879.888306,464
880.005249,462
880.122314,474
880.239319,467
880.356323,467
880.473328,473
880.590271,459
880.707275,484
880.824341,478
880.941284,487
881.058228,486
881.175232,485
881.292236,489
881.40918,487
881.526123,473
881.643066,478
881.760071,486
881.877014,471
881.993958,476
882.11084,506
882.227783,476
882.344727,483
882.46167,510
882.578613,498
882.695618,493
882.812439,473
882.929382,498
883.046326,462
883.163208,487
883.280151,488
883.397034,476
883.513916,474
883.630798,501
883.747742,479
883.864563,498
883.981506,490
884.098389,508
884.21521,493
884.332153,490
884.448975,500
884.565796,510
884.682678,497
884.7995,513
884.916443,522
885.033264,518
885.150085,529
885.266968,537
885.383789,527
885.500671,529
885.617493,544
885.734314,537
885.851196,540
885.967896,565
886.084717,539
886.201599,564
886.318359,546
886.435181,545
886.552002,530
886.668762,534
886.785645,517
886.902344,527
887.019165,530
887.135925,531
887.252747,520
887.369446,529
887.486267,506
887.603027,528
887.719788,515
887.836548,509
887.953247,502
888.070068,506
888.186829,481
888.303528,479
888.420288,487
888.536987,482
888.653687,467
888.770447,479
888.887146,463
889.003967,473
889.120667,490
889.237305,468
889.354065,465
889.470703,473
889.587463,483
889.704163,484
889.820862,463
889.937561,466
890.054199,476
890.170837,495
890.287598,459
890.404236,471
890.520874,466
890.637634,472
890.754211,468
890.87085,476
890.987549,481
891.104187,477
891.220886,478
891.337463,485
891.454102,471
891.57074,493
891.687378,458
891.804077,487
891.920654,480
892.037231,492
892.15387,479
892.270447,471
892.387085,474
892.503723,478
892.6203,463
892.736877,496
892.853516,477
892.970032,478
893.08667,477
893.203186,482
893.319763,479
893.43634,484
893.552917,473
893.669556,486
893.786011,467
893.902588,482
894.019165,461
894.135681,470
894.252197,463
894.368835,478
894.485291,490
894.601868,485
894.718384,507
894.8349,481
894.951355,474
895.067932,453
895.184448,466
895.300964,489
895.417419,468
895.533936,459
895.650452,455
895.766907,482
895.883423,499
895.999878,459
896.116333,484
896.232849,486
896.349304,471
896.465759,472
896.582214,478
896.698669,466
896.815125,489
896.931641,489
897.048035,484
897.164551,462
897.280884,480
897.397339,502
897.513794,462
897.630249,475
897.746582,466
897.863098,486
897.979431,464
898.095886,479
898.212341,479
898.328674,487
898.445129,472
898.561462,468
898.677795,489
898.794312,485
898.910645,448
899.026978,478
899.143433,477
899.259766,468
899.37616,474
899.492493,476
899.608765,479
899.725159,461
899.841553,480
899.957947,491
900.07428,470
900.190552,481
900.306946,476
900.423157,483
900.53949,492
900.655884,453
900.772156,485
900.888489,476
901.004822,461
901.121033,480
901.237366,459
901.353699,477
901.46991,478
901.586304,493
901.702515,479
901.818787,483
901.93512,488
902.051331,502
902.167603,497
902.283875,507
902.400085,510
902.516418,514
902.632629,506
902.74884,506
902.865112,500
902.981384,544
903.097595,513
903.213867,502
903.330017,515
903.446289,512
903.5625,504
903.67865,528
903.794922,489
903.911072,502
904.027344,494
904.143494,517
904.259705,482
904.375916,504
904.492065,493
904.608215,497
904.724426,476
904.840576,491
904.956726,469
905.072876,495
905.189087,478
905.305176,470
905.421387,476
905.537537,466
905.653687,490
905.769775,496
905.885925,464
906.002014,464
906.118164,482
906.234314,489
906.350403,484
906.466492,472
906.582642,460
906.69873,474
906.814758,463
906.930908,477
907.046936,471
907.163086,479
907.279175,462
907.395264,471
907.511353,463
907.62738,471
907.743408,473
907.859497,459
907.975525,479
908.091553,487
908.207703,470
908.32373,476
908.439758,493
908.555786,493
908.671814,479
908.787842,490
908.90387,478
909.019775,464
909.135864,461
909.251892,486
909.367859,466
909.483826,483
909.599854,477
909.715881,485
909.831848,476
909.947815,472
910.063782,463
910.179749,470
910.295776,455
910.411743,478
910.527649,460
910.643616,466
910.759583,471
910.875488,473
910.991455,442
911.107361,469
911.223267,484
911.339294,480
911.4552,464
911.571106,486
911.687073,465
911.802979,473
911.918823,465
912.034729,495
912.150635,463
912.266602,494
912.382446,463
912.498352,498
912.614197,466
912.730103,471
912.846008,476
