792.44574,603
792.56488,646
792.68396,686
792.80304,641
792.92218,622
793.041199,589
793.160339,607
793.279419,623
793.398499,624
793.517578,593
793.636658,627
793.755737,612
793.874817,620
793.993896,625
794.112976,618
794.232056,580
794.351074,589
794.470215,609
794.589233,586
794.708313,578
794.827393,590
794.946411,596
795.065552,600
795.18457,583
795.303589,573
795.422668,601
795.541687,573
795.660767,579
795.779846,580
795.898865,585
796.017883,575
796.136963,570
796.255981,573
796.375061,577
796.49408,611
796.613037,591
796.732117,566
796.851135,558
796.970154,579
797.089233,558
797.208191,583
797.327271,571
797.446228,563
797.565186,574
797.684265,566
797.803223,583
797.922241,573
798.04126,582
798.160278,582
798.279297,564
798.398315,566
798.517273,559
798.636292,579
798.75531,576
798.874268,567
798.993286,579
799.112244,569
799.231323,581
799.350281,558
799.469238,578
799.588257,554
799.707153,563
799.826111,582
799.945129,572
800.064087,559
800.183044,541
800.302063,563
800.421021,587
800.539978,598
800.658936,598
800.777893,570
800.896912,572
801.015747,597
801.134705,575
801.253723,597
801.37262,574
801.491638,588
801.610535,598
801.729492,589
801.84845,563
801.967407,601
802.086243,584
802.205261,616
802.324158,579
802.443115,573
802.562073,573
802.680969,561
802.799927,602
802.918762,582
803.037659,573
803.156677,587
803.275574,592
803.39447,570
803.513428,585
803.632263,587
803.751221,602
803.870117,596
803.989014,579
804.107971,590
804.226746,569
804.345642,604
804.4646,611
804.583496,582
804.702393,611
804.821228,604
804.940125,601
805.059021,604
805.177917,590
805.296814,604
805.415649,623
805.534546,595
805.653442,605
805.772278,602
805.891113,591
806.01001,606
806.128906,621
806.247742,604
806.366577,605
806.485413,610
806.604309,583
806.723145,628
806.84198,610
806.960876,588
807.079712,613
807.198486,596
807.317383,593
807.436218,615
807.554993,629
807.673889,603
807.792725,628
807.91156,593
808.030396,595
808.14917,614
808.268005,625
808.386841,619
808.505676,606
808.624451,621
808.743286,635
808.862122,614
808.980896,621
809.099731,612
809.218506,636
809.337341,613
809.456116,638
809.57489,611
809.693726,642
809.8125,632
809.931274,654
810.050049,615
810.168884,650
810.287659,626
810.406372,646
810.525269,616
810.643982,639
810.762756,616
810.881531,633
811.000305,622
811.11908,628
811.237854,637
811.356567,610
811.475403,643
811.594116,620
811.71283,629
811.831604,616
811.950378,629
812.069153,642
812.187927,659
812.30658,625
812.425415,618
812.544128,606
812.662781,618
812.781616,642
812.900269,618
813.019043,622
813.137756,613
813.256531,635
813.375244,634
813.493896,641
813.612671,662
813.731384,626
813.850037,615
813.96875,627
814.087524,633
814.206238,640
814.324951,621
814.443604,615
814.562256,624
814.68103,637
814.799683,625
814.918335,629
815.037109,618
815.155762,616
815.274475,629
815.393188,620
815.511841,598
815.630554,605
815.749146,627
815.867859,605
815.986572,612
816.105164,605
816.223877,611
816.342529,637
816.461182,607
816.579895,625
816.698486,616
816.817139,618
816.935791,634
817.054504,609
817.173096,617
817.291748,633
817.4104,621
817.529053,599
817.647644,581
817.766235,595
817.884949,562
818.00354,560
818.122192,549
818.240845,576
818.359436,574
818.478088,567
818.59668,525
818.715271,528
818.833923,521
818.952515,545
819.071106,514
819.189758,514
819.30835,509
819.426941,491
819.545532,520
819.664124,498
819.782715,506
819.901306,511
820.019897,505
820.138489,492
820.25708,509
820.375671,504
820.494202,516
820.612732,497
820.731384,475
820.849915,479
820.968506,501
821.087097,478
821.205627,483
821.324158,498
821.442749,483
821.561279,464
821.679871,496
821.798401,484
821.916931,484
822.035461,496
822.154053,497
822.272583,469
822.391174,481
822.509583,485
822.628174,484
822.746704,474
822.865234,500
822.983765,483
823.102295,477
823.220825,464
823.339294,488
823.457825,484
823.576355,462
823.694824,484
823.813354,472
823.931885,486
824.050354,459
824.168884,490
824.287354,478
824.405823,498
824.524353,497
824.642822,490
824.761353,480
824.879822,501
824.998291,476
825.116699,490
825.235291,470
825.353699,474
825.472168,466
825.590637,480
825.709106,467
825.827576,487
825.946045,466
826.064453,486
826.182983,446
826.301392,475
826.4198,481
826.53833,472
826.656738,477
826.775208,459
826.893677,466
827.012024,471
827.130493,450
827.248962,454
827.36731,448
827.485779,483
827.604248,457
827.722595,458
827.841064,456
827.959412,495
828.077942,456
828.196289,458
828.314636,467
828.433105,470
828.551514,441
828.669861,469
828.78833,453
828.906677,453
829.025085,458
829.143433,482
829.261841,440
829.38031,457
829.498657,462
829.617004,451
829.735413,457
829.85376,459
829.972107,460
830.090515,451
830.208862,467
830.327209,444
830.445557,450
830.563904,437
830.682312,435
830.800659,446
830.919006,452
831.037354,462
831.155701,452
831.274048,440
831.392395,436
831.51062,460
831.629028,441
831.747314,453
831.865662,453
831.984009,442
832.102356,462
832.220642,469
832.338928,430
832.457275,447
832.575623,464
832.693909,448
832.812134,459
832.930481,450
833.048828,453
833.167114,460
833.2854,458
833.403687,462
833.521973,446
833.640259,457
833.758545,464
833.876831,448
833.995056,465
834.113281,448
834.231628,454
834.349915,470
834.468201,453
834.586426,472
834.704651,443
834.822998,466
834.941162,460
835.059448,450
835.177673,464
835.295959,462
835.414246,466
835.53241,442
835.650635,467
835.768921,472
835.887146,459
836.005371,458
836.123596,464
836.241821,456
836.360046,461
836.478271,461
836.596497,458
836.714722,468
836.832886,480
836.95105,466
837.069336,481
837.1875,479
837.305725,495
837.423889,463
837.542053,484
837.660339,470
837.778503,486
837.896667,467
838.014832,465
838.132996,479
838.25116,469
838.369385,468
838.487488,479
838.605713,461
838.723877,479
838.84198,456
838.960205,475
839.078308,482
839.196472,467
839.314636,478
839.4328,465
839.550964,482
839.669067,455
839.787231,472
839.905396,450
840.023499,456
840.141602,474
840.259766,469
840.377869,471
840.495972,479
840.614136,478
840.732239,457
840.850342,455
840.968445,451
841.086548,447
841.204651,469
841.322754,454
841.440918,483
841.55896,456
841.677002,455
841.795166,451
841.913208,455
842.031311,456
842.149353,455
842.267456,445
842.385498,467
842.503601,459
842.621643,462
842.739746,440
842.857788,460
842.97583,471
843.093933,446
843.211975,449
843.330017,445
843.44812,462
843.566101,464
843.684204,433
843.802246,443
843.920227,457
844.038269,451
844.156311,459
844.274292,442
844.392395,440
844.510376,449
844.628357,446
844.74646,446
844.864441,461
844.982422,448
845.100403,433
845.218384,445
845.336426,438
845.454468,472
845.572449,455
845.69043,446
845.808411,443
845.926453,448
846.044373,442
846.162354,434
846.280396,449
846.398315,453
846.516296,458
846.634216,441
846.752197,433
846.870178,451
846.988098,434
847.106079,462
847.22406,434
847.34198,429
847.4599,443
847.577881,454
847.695801,447
847.813782,444
847.931641,433
848.049561,446
848.167603,433
848.285461,444
848.403381,439
848.521362,448
848.639221,443
848.75708,452
848.875,469
848.99292,451
849.110901,435
849.22876,467
849.34668,429
849.464539,441
849.582458,451
849.700317,430
849.818176,457
849.936096,433
850.053955,450
850.171875,452
850.289673,442
850.407593,452
850.525452,443
850.643311,444
850.761169,413
850.878967,453
850.996887,440
851.114746,449
851.232544,437
851.350403,445
851.468262,448
851.58606,442
851.703979,440
851.821777,461
851.939636,460
852.057434,452
852.175232,442
852.293091,445
852.410889,453
852.528687,444
852.646545,470
852.764343,444
852.88208,463
852.999939,455
853.117676,435
853.235535,449
853.353271,425
853.471069,461
853.588928,459
853.706604,442
853.824402,445
853.9422,451
854.059998,442
854.177734,445
854.295532,474
854.413269,447
854.531006,446
854.648804,454
854.766541,459
854.884277,446
855.002014,451
855.119751,462
855.237549,445
855.355225,445
855.473022,456
855.590698,451
855.708435,438
855.826172,452
855.943848,459
856.061646,439
856.179321,480
856.296997,444
856.414795,457
856.53241,472
856.650085,448
856.767822,477
856.885559,442
857.003174,459
857.120911,456
857.238586,438
857.356201,453
857.473938,448
857.591614,445
857.709351,425
857.826965,464
857.944641,448
858.062317,439
858.179993,457
858.297668,449
858.415283,453
858.532959,461
858.650574,441
858.768188,449
858.885803,450
859.003479,463
859.121094,440
859.23877,418
859.356384,442
859.473999,452
859.591675,432
859.709229,443
859.826843,470
859.944458,451
860.062012,462
860.179626,438
860.297302,464
860.414856,448
860.532471,436
860.650024,456
860.767639,458
860.885193,469
861.002808,443
861.120361,453
861.237976,447
861.35553,460
861.473022,464
861.590698,445
861.708191,472
861.825745,446
861.943298,437
862.060852,449
862.178406,460
862.295959,464
862.413513,456
862.531006,429
862.64856,439
862.766113,423
862.883667,441
863.00116,438
863.118713,447
863.236206,446
863.353699,446
863.471252,438
863.588745,445
863.706177,455
863.82373,452
863.941162,444
864.058716,460
864.176208,448
864.29364,436
864.411194,444
864.528687,444
864.646118,450
864.763611,446
864.881042,429
864.998535,464
865.116028,441
865.233459,457
865.350891,463
865.468384,443
865.585754,452
865.703308,436
865.820679,452
865.938171,449
866.055542,438
866.173035,449
866.290466,468
866.407837,443
866.52533,457
866.6427,471
866.760071,450
866.877563,438
866.994934,453
867.112305,450
867.229736,445
867.347107,458
867.464539,462
867.58197,442
867.699341,458
867.81665,459
867.934082,456
868.051453,458
868.168823,439
868.286194,443
868.403564,464
868.520935,464
868.638306,434
868.755676,439
868.872986,461
868.990295,460
869.107727,442
869.225037,438
869.342346,450
869.459717,452
869.577026,462
869.694336,459
869.811707,457
869.929016,458
870.046326,458
870.163635,465
870.280945,453
870.398254,456
870.515564,455
870.632812,457
870.750183,451
870.867432,465
870.984741,450
871.102051,447
871.219299,439
871.336609,457
871.453918,448
871.571106,444
871.688416,452
871.805664,448
871.922852,445
872.040222,463
872.157471,461
872.274719,454
872.391968,457
872.509155,459
872.626465,432
872.743652,449
872.860962,437
872.978149,452
873.095337,444
873.212646,443
873.329834,446
873.44696,437
873.564209,444
873.681396,454
873.798645,462
873.915894,467
874.03302,422
874.150208,460
874.267456,462
874.384583,464
874.501831,477
874.618958,443
874.736145,440
874.853333,448
874.970459,447
875.087646,457
875.204834,435
875.32196,453
875.439148,436
875.556274,458
875.673401,458
875.790527,441
875.907715,442
876.024841,439
876.141968,434
876.259094,447
876.376282,453
876.493347,473
876.610474,430
876.7276,436
876.844727,432
876.961853,464
877.078918,445
877.195984,460
877.313171,454
877.430237,451
877.547302,439
877.664368,466
877.781433,439
877.898499,456
878.015625,453
878.13269,451
878.249695,444
878.366821,453
878.483887,433
878.600952,457
878.717957,417
878.834961,459
878.952087,460
879.069092,461
879.186157,458
879.303162,457
879.420227,437
879.537231,463
879.654236,462
879.77124,452
879.888306,468
880.005249,450
880.122314,439
880.239319,451
880.356323,449
880.473328,455
880.590271,452
880.707275,466
880.824341,466
880.941284,450
881.058228,423
881.175232,451
881.292236,443
881.40918,466
881.526123,454
881.643066,439
881.760071,458
881.877014,442
881.993958,446
882.11084,463
882.227783,448
882.344727,468
882.46167,447
882.578613,441
882.695618,447
882.812439,447
882.929382,452
883.046326,437
883.163208,465
883.280151,447
883.397034,454
883.513916,435
883.630798,456
883.747742,446
883.864563,458
883.981506,447
884.098389,432
884.21521,458
884.332153,458
884.448975,444
884.565796,439
884.682678,447
884.7995,439
884.916443,466
885.033264,459
885.150085,456
885.266968,451
885.383789,436
885.500671,465
885.617493,452
885.734314,428
885.851196,452
885.967896,469
886.084717,465
886.201599,451
886.318359,464
886.435181,459
886.552002,471
886.668762,459
886.785645,462
886.902344,469
887.019165,460
887.135925,430
887.252747,460
887.369446,469
887.486267,448
887.603027,448
887.719788,467
887.836548,461
887.953247,460
888.070068,463
888.186829,478
888.303528,466
888.420288,462
888.536987,460
888.653687,460
888.770447,466
888.887146,444
889.003967,460
889.120667,449
889.237305,464
889.354065,462
889.470703,468
889.587463,464
889.704163,457
889.820862,437
889.937561,435
890.054199,458
890.170837,462
890.287598,455
890.404236,445
890.520874,446
890.637634,454
890.754211,466
890.87085,456
890.987549,461
891.104187,452
891.220886,455
891.337463,448
891.454102,459
891.57074,437
891.687378,456
891.804077,443
891.920654,449
892.037231,453
892.15387,463
892.270447,463
892.387085,438
892.503723,477
892.6203,473
892.736877,459
892.853516,467
892.970032,457
893.08667,472
893.203186,439
893.319763,476
893.43634,461
893.552917,470
893.669556,468
893.786011,473
893.902588,457
894.019165,452
894.135681,464
894.252197,455
894.368835,462
894.485291,469
894.601868,461
894.718384,446
894.8349,462
894.951355,479
895.067932,460
895.184448,442
895.300964,485
895.417419,475
895.533936,466
895.650452,452
895.766907,460
895.883423,469
895.999878,437
896.116333,452
896.232849,443
896.349304,455
896.465759,460
896.582214,460
896.698669,451
896.815125,482
896.931641,447
897.048035,472
897.164551,452
897.280884,475
897.397339,470
897.513794,460
897.630249,452
897.746582,481
897.863098,487
897.979431,470
898.095886,456
898.212341,469
898.328674,485
898.445129,452
898.561462,471
898.677795,470
898.794312,454
898.910645,459
899.026978,457
899.143433,450
899.259766,451
899.37616,446
899.492493,468
899.608765,458
899.725159,471
899.841553,470
899.957947,462
900.07428,462
900.190552,461
900.306946,461
900.423157,469
900.53949,475
900.655884,471
900.772156,482
900.888489,462
901.004822,471
901.121033,447
901.237366,445
901.353699,449
901.46991,464
901.586304,457
901.702515,464
901.818787,471
901.93512,457
902.051331,475
902.167603,472
902.283875,458
902.400085,458
902.516418,461
902.632629,452
902.74884,458
902.865112,496
902.981384,483
903.097595,451
903.213867,451
903.330017,450
903.446289,439
903.5625,457
903.67865,470
903.794922,481
903.911072,464
904.027344,465
904.143494,473
904.259705,469
904.375916,461
904.492065,483
904.608215,458
904.724426,464
904.840576,474
904.956726,471
905.072876,470
905.189087,469
905.305176,462
905.421387,462
905.537537,468
905.653687,469
905.769775,461
905.885925,464
906.002014,466
906.118164,459
906.234314,448
906.350403,475
906.466492,465
906.582642,463
906.69873,478
906.814758,475
906.930908,490
907.046936,469
907.163086,468
907.279175,468
907.395264,471
907.511353,463
907.62738,456
907.743408,461
907.859497,483
907.975525,491
908.091553,457
908.207703,460
908.32373,457
908.439758,470
908.555786,475
908.671814,467
908.787842,485
908.90387,454
909.019775,460
909.135864,455
909.251892,475
909.367859,492
909.483826,484
909.599854,477
909.715881,466
909.831848,458
909.947815,465
910.063782,482
910.179749,453
910.295776,469
910.411743,465
910.527649,473
910.643616,476
910.759583,463
910.875488,475
910.991455,470
911.107361,472
911.223267,455
911.339294,479
911.4552,485
911.571106,452
911.687073,478
911.802979,449
911.918823,462
912.034729,459
912.150635,461
912.266602,467
912.382446,465
912.498352,458
912.614197,486
912.730103,472
912.846008,478
792.44574,611
792.56488,652
792.68396,684
792.80304,646
792.92218,612
793.041199,574
793.160339,598
793.279419,617
793.398499,628
793.517578,589
793.636658,571
793.755737,613
793.874817,635
793.993896,609
794.112976,606
794.232056,573
794.351074,616
794.470215,581
794.589233,574
794.708313,590
794.827393,621
794.946411,584
795.065552,584
795.18457,608
795.303589,593
795.422668,605
795.541687,566
795.660767,605
795.779846,593
795.898865,606
796.017883,579
796.136963,579
796.255981,592
796.375061,583
796.49408,594
796.613037,567
796.732117,585
796.851135,590
796.970154,566
797.089233,561
797.208191,574
797.327271,558
797.446228,567
797.565186,577
797.684265,576
797.803223,574
797.922241,577
798.04126,611
798.160278,555
798.279297,556
798.398315,579
798.517273,582
798.636292,580
798.75531,570
798.874268,586
798.993286,566
799.112244,582
799.231323,562
799.350281,579
799.469238,570
799.588257,562
799.707153,573
799.826111,566
799.945129,575
800.064087,590
800.183044,576
800.302063,599
800.421021,577
800.539978,586
800.658936,574
800.777893,564
800.896912,590
801.015747,574
801.134705,593
801.253723,601
801.37262,591
801.491638,569
801.610535,581
801.729492,585
801.84845,570
801.967407,578
802.086243,591
802.205261,592
802.324158,589
802.443115,594
802.562073,584
802.680969,601
802.799927,586
802.918762,597
803.037659,589
803.156677,575
803.275574,600
803.39447,609
803.513428,597
803.632263,600
803.751221,582
803.870117,604
803.989014,593
804.107971,610
804.226746,585
804.345642,588
804.4646,606
804.583496,605
804.702393,584
804.821228,596
804.940125,601
805.059021,626
805.177917,620
805.296814,593
805.415649,575
805.534546,577
805.653442,602
805.772278,633
805.891113,611
806.01001,604
806.128906,600
806.247742,605
806.366577,605
806.485413,630
806.604309,622
806.723145,593
806.84198,598
806.960876,617
807.079712,585
807.198486,642
807.317383,606
807.436218,646
807.554993,619
807.673889,621
807.792725,618
807.91156,623
808.030396,616
808.14917,627
808.268005,611
808.386841,616
808.505676,587
808.624451,634
808.743286,623
808.862122,616
808.980896,635
809.099731,625
809.218506,633
809.337341,614
809.456116,598
809.57489,629
809.693726,609
809.8125,638
809.931274,624
810.050049,622
810.168884,618
810.287659,646
810.406372,627
810.525269,642
810.643982,613
810.762756,632
810.881531,624
811.000305,639
811.11908,640
811.237854,617
811.356567,637
811.475403,643
811.594116,602
811.71283,640
811.831604,643
811.950378,626
812.069153,627
812.187927,651
812.30658,621
812.425415,629
812.544128,621
812.662781,620
812.781616,648
812.900269,621
813.019043,649
813.137756,634
813.256531,621
813.375244,661
813.493896,631
813.612671,635
813.731384,618
813.850037,628
813.96875,623
814.087524,611
814.206238,610
814.324951,604
814.443604,631
814.562256,590
814.68103,607
814.799683,612
814.918335,633
815.037109,629
815.155762,628
815.274475,596
815.393188,600
815.511841,637
815.630554,620
815.749146,622
815.867859,594
815.986572,592
816.105164,579
816.223877,608
816.342529,616
816.461182,632
816.579895,623
816.698486,629
816.817139,609
816.935791,620
817.054504,619
817.173096,633
817.291748,613
817.4104,608
817.529053,592
817.647644,603
817.766235,595
817.884949,585
818.00354,595
818.122192,585
818.240845,568
818.359436,568
818.478088,566
818.59668,535
818.715271,527
818.833923,531
818.952515,515
819.071106,520
819.189758,491
819.30835,519
819.426941,527
819.545532,494
819.664124,510
819.782715,504
819.901306,497
820.019897,513
820.138489,507
820.25708,513
820.375671,505
820.494202,483
820.612732,513
820.731384,499
820.849915,513
820.968506,501
821.087097,507
821.205627,487
821.324158,479
821.442749,506
821.561279,488
821.679871,486
821.798401,485
821.916931,471
822.035461,474
822.154053,479
822.272583,499
822.391174,500
822.509583,469
822.628174,479
822.746704,481
822.865234,462
822.983765,470
823.102295,482
823.220825,473
823.339294,498
823.457825,478
823.576355,460
823.694824,464
823.813354,466
823.931885,490
824.050354,464
824.168884,482
824.287354,485
824.405823,502
824.524353,497
824.642822,479
824.761353,491
824.879822,483
824.998291,497
825.116699,479
825.235291,478
825.353699,470
825.472168,462
825.590637,494
825.709106,471
825.827576,476
825.946045,473
826.064453,462
826.182983,505
826.301392,454
826.4198,470
826.53833,467
826.656738,471
826.775208,473
826.893677,474
827.012024,472
827.130493,463
827.248962,458
827.36731,453
827.485779,477
827.604248,468
827.722595,480
827.841064,471
827.959412,442
828.077942,488
828.196289,458
828.314636,484
828.433105,453
828.551514,471
828.669861,446
828.78833,455
828.906677,454
829.025085,466
829.143433,449
829.261841,461
829.38031,456
829.498657,457
829.617004,463
829.735413,479
829.85376,446
829.972107,455
830.090515,459
830.208862,461
830.327209,431
830.445557,473
830.563904,457
830.682312,446
830.800659,452
830.919006,486
831.037354,435
831.155701,451
831.274048,469
831.392395,457
831.51062,458
831.629028,449
831.747314,467
831.865662,475
831.984009,449
832.102356,459
832.220642,442
832.338928,451
832.457275,474
832.575623,443
832.693909,442
832.812134,470
832.930481,469
833.048828,456
833.167114,468
833.2854,463
833.403687,446
833.521973,475
833.640259,446
833.758545,464
833.876831,469
833.995056,457
834.113281,447
834.231628,441
834.349915,432
834.468201,448
834.586426,459
834.704651,454
834.822998,460
834.941162,453
835.059448,459
835.177673,460
835.295959,474
835.414246,448
835.53241,463
835.650635,425
835.768921,462
835.887146,476
836.005371,455
836.123596,468
836.241821,454
836.360046,478
836.478271,470
836.596497,466
836.714722,483
836.832886,483
836.95105,464
837.069336,489
837.1875,472
837.305725,478
837.423889,475
837.542053,471
837.660339,471
837.778503,469
837.896667,484
838.014832,458
838.132996,469
838.25116,477
838.369385,474
838.487488,467
838.605713,469
838.723877,468
838.84198,458
838.960205,477
839.078308,472
839.196472,467
839.314636,483
839.4328,449
839.550964,456
839.669067,453
839.787231,483
839.905396,462
840.023499,466
840.141602,493
840.259766,461
840.377869,467
840.495972,485
840.614136,475
840.732239,474
840.850342,456
840.968445,447
841.086548,473
841.204651,479
841.322754,467
841.440918,453
841.55896,478
841.677002,446
841.795166,455
841.913208,471
842.031311,458
842.149353,481
842.267456,471
842.385498,458
842.503601,448
842.621643,445
842.739746,463
842.857788,436
842.97583,474
843.093933,445
843.211975,463
843.330017,430
843.44812,458
843.566101,459
843.684204,457
843.802246,432
843.920227,467
844.038269,461
844.156311,460
844.274292,439
844.392395,451
844.510376,470
844.628357,454
844.74646,454
844.864441,446
844.982422,437
845.100403,452
845.218384,435
845.336426,456
845.454468,477
845.572449,456
845.69043,452
845.808411,458
845.926453,450
846.044373,456
846.162354,446
846.280396,450
846.398315,431
846.516296,462
846.634216,420
846.752197,448
846.870178,444
846.988098,461
847.106079,445
847.22406,445
847.34198,455
847.4599,433
847.577881,443
847.695801,428
847.813782,451
847.931641,446
848.049561,434
848.167603,444
848.285461,443
848.403381,439
848.521362,430
848.639221,454
848.75708,440
848.875,452
848.99292,462
849.110901,467
849.22876,421
849.34668,451
849.464539,468
849.582458,454
849.700317,439
849.818176,451
849.936096,465
850.053955,445
850.171875,443
850.289673,432
850.407593,449
850.525452,432
850.643311,443
850.761169,437
850.878967,442
850.996887,424
851.114746,437
851.232544,458
851.350403,446
851.468262,450
851.58606,458
851.703979,456
851.821777,437
851.939636,437
852.057434,449
852.175232,458
852.293091,461
852.410889,461
852.528687,463
852.646545,444
852.764343,444
852.88208,464
852.999939,430
853.117676,454
853.235535,443
853.353271,445
853.471069,452
853.588928,447
853.706604,453
853.824402,455
853.9422,461
854.059998,455
854.177734,463
854.295532,455
854.413269,457
854.531006,457
854.648804,454
854.766541,441
854.884277,438
855.002014,463
855.119751,453
855.237549,449
855.355225,453
855.473022,451
855.590698,456
855.708435,450
855.826172,463
855.943848,470
856.061646,421
856.179321,462
856.296997,451
856.414795,459
856.53241,454
856.650085,458
856.767822,447
856.885559,470
857.003174,439
857.120911,455
857.238586,461
857.356201,446
857.473938,453
857.591614,450
857.709351,455
857.826965,445
857.944641,475
858.062317,445
858.179993,450
858.297668,463
858.415283,446
858.532959,439
858.650574,443
858.768188,434
858.885803,453
859.003479,442
859.121094,455
859.23877,457
859.356384,455
859.473999,466
859.591675,432
859.709229,437
859.826843,478
859.944458,454
860.062012,440
860.179626,470
860.297302,433
860.414856,469
860.532471,457
860.650024,445
860.767639,470
860.885193,438
861.002808,457
861.120361,435
861.237976,437
861.35553,468
861.473022,419
861.590698,461
861.708191,445
861.825745,468
861.943298,448
862.060852,421
862.178406,456
862.295959,443
862.413513,441
862.531006,456
862.64856,448
862.766113,450
862.883667,451
863.00116,446
863.118713,456
863.236206,433
863.353699,461
863.471252,445
863.588745,452
863.706177,447
863.82373,458
863.941162,460
864.058716,452
864.176208,450
864.29364,471
864.411194,459
864.528687,426
864.646118,470
864.763611,442
864.881042,437
864.998535,451
865.116028,448
865.233459,466
865.350891,453
865.468384,441
865.585754,438
865.703308,423
865.820679,438
865.938171,440
866.055542,464
866.173035,458
866.290466,458
866.407837,458
866.52533,465
866.6427,440
866.760071,458
866.877563,446
866.994934,449
867.112305,454
867.229736,476
867.347107,450
867.464539,448
867.58197,455
867.699341,466
867.81665,454
867.934082,452
868.051453,440
868.168823,454
868.286194,443
868.403564,453
868.520935,455
868.638306,441
868.755676,426
868.872986,457
868.990295,425
869.107727,449
869.225037,448
869.342346,455
869.459717,458
869.577026,451
869.694336,461
869.811707,439
869.929016,459
870.046326,453
870.163635,442
870.280945,458
870.398254,459
870.515564,433
870.632812,464
870.750183,455
870.867432,436
870.984741,464
871.102051,437
871.219299,454
871.336609,449
871.453918,431
871.571106,456
871.688416,453
871.805664,444
871.922852,454
872.040222,423
872.157471,452
872.274719,448
872.391968,466
872.509155,444
872.626465,462
872.743652,442
872.860962,467
872.978149,441
873.095337,467
873.212646,456
873.329834,448
873.44696,436
873.564209,452
873.681396,441
873.798645,458
873.915894,436
874.03302,447
874.150208,458
874.267456,446
874.384583,449
874.501831,459
874.618958,451
874.736145,461
874.853333,464
874.970459,458
875.087646,465
875.204834,466
875.32196,438
875.439148,446
875.556274,446
875.673401,453
875.790527,475
875.907715,439
876.024841,446
876.141968,458
876.259094,441
876.376282,431
876.493347,458
876.610474,453
876.7276,453
876.844727,477
876.961853,438
877.078918,459
877.195984,466
877.313171,448
877.430237,459
877.547302,452
877.664368,453
877.781433,453
877.898499,442
878.015625,450
878.13269,446
878.249695,452
878.366821,450
878.483887,456
878.600952,442
878.717957,437
878.834961,468
878.952087,457
879.069092,461
879.186157,456
879.303162,453
879.420227,474
879.537231,450
879.654236,458
879.77124,458
879.888306,460
880.005249,446
880.122314,451
880.239319,459
880.356323,452
880.473328,441
880.590271,445
880.707275,455
880.824341,460
880.941284,453
881.058228,465
881.175232,450
881.292236,453
881.40918,435
881.526123,452
881.643066,419
881.760071,455
881.877014,446
881.993958,451
882.11084,467
882.227783,461
882.344727,437
882.46167,450
882.578613,439
882.695618,458
882.812439,462
882.929382,455
883.046326,444
883.163208,450
883.280151,463
883.397034,443
883.513916,444
883.630798,455
883.747742,450
883.864563,439
883.981506,440
884.098389,451
884.21521,456
884.332153,460
884.448975,444
884.565796,459
884.682678,441
884.7995,440
884.916443,452
885.033264,450
885.150085,459
885.266968,476
885.383789,452
885.500671,463
885.617493,462
885.734314,460
885.851196,461
885.967896,465
886.084717,450
886.201599,459
886.318359,469
886.435181,460
886.552002,453
886.668762,439
886.785645,443
886.902344,465
887.019165,447
887.135925,463
887.252747,459
887.369446,472
887.486267,441
887.603027,471
887.719788,459
887.836548,465
887.953247,456
888.070068,443
888.186829,474
888.303528,451
888.420288,451
888.536987,471
888.653687,458
888.770447,453
888.887146,442
889.003967,459
889.120667,436
889.237305,451
889.354065,464
889.470703,473
889.587463,448
889.704163,470
889.820862,473
889.937561,455
890.054199,457
890.170837,452
890.287598,464
890.404236,475
890.520874,434
890.637634,467
890.754211,436
890.87085,453
890.987549,444
891.104187,464
891.220886,450
891.337463,461
891.454102,451
891.57074,473
891.687378,456
891.804077,469
891.920654,461
892.037231,461
892.15387,472
892.270447,449
892.387085,457
892.503723,452
892.6203,483
892.736877,465
892.853516,439
892.970032,472
893.08667,462
893.203186,461
893.319763,449
893.43634,467
893.552917,478
893.669556,464
893.786011,451
893.902588,470
894.019165,464
894.135681,474
894.252197,472
894.368835,462
894.485291,461
894.601868,468
894.718384,456
894.8349,459
894.951355,461
895.067932,477
895.184448,477
895.300964,476
895.417419,455
895.533936,470
895.650452,451
895.766907,471
895.883423,471
895.999878,472
896.116333,448
896.232849,480
896.349304,466
896.465759,468
896.582214,465
896.698669,474
896.815125,460
896.931641,464
897.048035,462
897.164551,451
897.280884,452
897.397339,481
897.513794,464
897.630249,467
897.746582,454
897.863098,460
897.979431,477
898.095886,472
898.212341,464
898.328674,471
898.445129,468
898.561462,463
898.677795,464
898.794312,469
898.910645,465
899.026978,439
899.143433,459
899.259766,453
899.37616,475
899.492493,464
899.608765,465
899.725159,465
899.841553,447
899.957947,481
900.07428,454
900.190552,470
900.306946,457
900.423157,470
900.53949,455
900.655884,464
900.772156,464
900.888489,474
901.004822,446
901.121033,472
901.237366,469
901.353699,463
901.46991,457
901.586304,459
901.702515,457
901.818787,468
901.93512,476
902.051331,450
902.167603,466
902.283875,457
902.400085,488
902.516418,457
902.632629,459
902.74884,490
902.865112,468
902.981384,472
903.097595,474
903.213867,453
903.330017,460
903.446289,487
903.5625,457
903.67865,459
903.794922,475
903.911072,475
904.027344,462
904.143494,476
904.259705,456
904.375916,470
904.492065,446
904.608215,468
904.724426,465
904.840576,465
904.956726,463
905.072876,466
905.189087,478
905.305176,473
905.421387,460
905.537537,463
905.653687,483
905.769775,445
905.885925,470
906.002014,471
906.118164,461
906.234314,472
906.350403,466
906.466492,468
906.582642,470
906.69873,458
906.814758,486
906.930908,481
907.046936,477
907.163086,462
907.279175,448
907.395264,469
907.511353,481
907.62738,487
907.743408,453
907.859497,468
907.975525,450
908.091553,474
908.207703,480
908.32373,460
908.439758,476
908.555786,487
908.671814,464
908.787842,475
908.90387,475
909.019775,485
909.135864,465
909.251892,490
909.367859,467
909.483826,479
909.599854,461
909.715881,487
909.831848,456
909.947815,472
910.063782,476
910.179749,487
910.295776,464
910.411743,493
910.527649,466
910.643616,492
910.759583,471
910.875488,478
910.991455,470
911.107361,463
911.223267,476
911.339294,480
911.4552,453
911.571106,488
911.687073,469
911.802979,480
911.918823,487
912.034729,469
912.150635,462
912.266602,473
912.382446,451
912.498352,469
912.614197,457
912.730103,488
912.846008,474
792.44574,606
792.56488,637
792.68396,678
792.80304,653
792.92218,617
793.041199,615
793.160339,600
793.279419,612
793.398499,597
793.517578,600
793.636658,598
793.755737,592
793.874817,626
793.993896,601
794.112976,617
794.232056,573
794.351074,605
794.470215,612
794.589233,564
794.708313,593
794.827393,571
794.946411,592
795.065552,598
795.18457,592
795.303589,602
795.422668,583
795.541687,585
795.660767,585
795.779846,576
795.898865,586
796.017883,572
796.136963,587
796.255981,570
796.375061,579
796.49408,575
796.613037,569
796.732117,585
796.851135,592
796.970154,584
797.089233,585
797.208191,582
797.327271,580
797.446228,576
797.565186,566
797.684265,576
797.803223,589
797.922241,598
798.04126,572
798.160278,552
798.279297,569
798.398315,583
798.517273,595
798.636292,571
798.75531,567
798.874268,578
798.993286,574
799.112244,574
799.231323,567
799.350281,611
799.469238,571
799.588257,578
799.707153,593
799.826111,584
799.945129,581
800.064087,566
800.183044,559
800.302063,573
800.421021,587
800.539978,576
800.658936,579
800.777893,549
800.896912,561
801.015747,594
801.134705,567
801.253723,568
801.37262,585
801.491638,566
801.610535,581
801.729492,600
801.84845,564
801.967407,592
802.086243,557
802.205261,573
802.324158,627
802.443115,590
802.562073,560
802.680969,596
802.799927,583
802.918762,568
803.037659,607
803.156677,609
803.275574,591
803.39447,611
803.513428,592
803.632263,600
803.751221,586
803.870117,614
803.989014,591
804.107971,597
804.226746,603
804.345642,564
804.4646,596
804.583496,593
804.702393,602
804.821228,608
804.940125,589
805.059021,579
805.177917,588
805.296814,616
805.415649,609
805.534546,593
805.653442,600
805.772278,620
805.891113,626
806.01001,615
806.128906,590
806.247742,604
806.366577,618
806.485413,588
806.604309,612
806.723145,626
806.84198,622
806.960876,595
807.079712,627
807.198486,626
807.317383,626
807.436218,637
807.554993,624
807.673889,628
807.792725,624
807.91156,602
808.030396,616
808.14917,625
808.268005,623
808.386841,603
808.505676,631
808.624451,617
808.743286,610
808.862122,632
808.980896,617
809.099731,596
809.218506,621
809.337341,649
809.456116,605
809.57489,637
809.693726,626
809.8125,629
809.931274,646
810.050049,636
810.168884,638
810.287659,651
810.406372,608
810.525269,636
810.643982,623
810.762756,617
810.881531,650
811.000305,630
811.11908,606
811.237854,635
811.356567,634
811.475403,611
811.594116,595
811.71283,614
811.831604,614
811.950378,643
812.069153,650
812.187927,618
812.30658,607
812.425415,610
812.544128,647
812.662781,637
812.781616,637
812.900269,634
813.019043,633
813.137756,637
813.256531,663
813.375244,634
813.493896,631
813.612671,623
813.731384,614
813.850037,627
813.96875,604
814.087524,639
814.206238,637
814.324951,603
814.443604,617
814.562256,629
814.68103,633
814.799683,626
814.918335,639
815.037109,630
815.155762,620
815.274475,599
815.393188,628
815.511841,609
815.630554,612
815.749146,617
815.867859,612
815.986572,588
816.105164,598
816.223877,611
816.342529,611
816.461182,595
816.579895,617
816.698486,628
816.817139,606
816.935791,631
817.054504,626
817.173096,633
817.291748,614
817.4104,600
817.529053,591
817.647644,600
817.766235,578
817.884949,578
818.00354,565
818.122192,570
818.240845,574
818.359436,554
818.478088,570
818.59668,527
818.715271,511
818.833923,518
818.952515,539
819.071106,532
819.189758,536
819.30835,514
819.426941,511
819.545532,487
819.664124,512
819.782715,506
819.901306,505
820.019897,510
820.138489,513
820.25708,494
820.375671,521
820.494202,488
820.612732,502
820.731384,478
820.849915,496
820.968506,479
821.087097,486
821.205627,475
821.324158,498
821.442749,493
821.561279,484
821.679871,486
821.798401,487
821.916931,479
822.035461,483
822.154053,468
822.272583,487
822.391174,484
822.509583,475
822.628174,499
822.746704,498
822.865234,472
822.983765,476
823.102295,489
823.220825,480
823.339294,469
823.457825,482
823.576355,494
823.694824,477
823.813354,498
823.931885,479
824.050354,482
824.168884,470
824.287354,494
824.405823,517
824.524353,488
824.642822,500
824.761353,504
824.879822,481
824.998291,491
825.116699,480
825.235291,485
825.353699,491
825.472168,477
825.590637,469
825.709106,470
825.827576,473
825.946045,483
826.064453,479
826.182983,474
826.301392,479
826.4198,461
826.53833,502
826.656738,463
826.775208,441
826.893677,474
827.012024,475
827.130493,467
827.248962,463
827.36731,472
827.485779,452
827.604248,473
827.722595,467
827.841064,478
827.959412,447
828.077942,465
828.196289,465
828.314636,460
828.433105,484
828.551514,464
828.669861,494
828.78833,468
828.906677,459
829.025085,467
829.143433,456
829.261841,465
829.38031,461
829.498657,443
829.617004,462
829.735413,488
829.85376,443
829.972107,476
830.090515,457
830.208862,451
830.327209,460
830.445557,472
830.563904,469
830.682312,464
830.800659,464
830.919006,461
831.037354,471
831.155701,454
831.274048,459
831.392395,441
831.51062,468
831.629028,464
831.747314,458
831.865662,457
831.984009,454
832.102356,451
832.220642,477
832.338928,479
832.457275,440
832.575623,458
832.693909,452
832.812134,439
832.930481,443
833.048828,442
833.167114,442
833.2854,459
833.403687,454
833.521973,467
833.640259,464
833.758545,445
833.876831,481
833.995056,469
834.113281,457
834.231628,455
834.349915,461
834.468201,468
834.586426,463
834.704651,474
834.822998,462
834.941162,465
835.059448,471
835.177673,438
835.295959,462
835.414246,454
835.53241,455
835.650635,464
835.768921,483
835.887146,456
836.005371,453
836.123596,489
836.241821,478
836.360046,454
836.478271,468
836.596497,471
836.714722,459
836.832886,457
836.95105,448
837.069336,463
837.1875,484
837.305725,491
837.423889,476
837.542053,470
837.660339,465
837.778503,479
837.896667,473
838.014832,497
838.132996,466
838.25116,470
838.369385,475
838.487488,484
838.605713,488
838.723877,499
838.84198,491
838.960205,481
839.078308,474
839.196472,486
839.314636,466
839.4328,464
839.550964,469
839.669067,465
839.787231,477
839.905396,458
840.023499,450
840.141602,470
840.259766,470
840.377869,467
840.495972,467
840.614136,477
840.732239,481
840.850342,473
840.968445,427
841.086548,479
841.204651,487
841.322754,454
841.440918,459
841.55896,461
841.677002,446
841.795166,471
841.913208,455
842.031311,464
842.149353,462
842.267456,452
842.385498,458
842.503601,452
842.621643,451
842.739746,456
842.857788,460
842.97583,471
843.093933,459
843.211975,451
843.330017,447
843.44812,459
843.566101,441
843.684204,452
843.802246,436
843.920227,438
844.038269,460
844.156311,442
844.274292,457
844.392395,463
844.510376,454
844.628357,452
844.74646,455
844.864441,465
844.982422,465
845.100403,456
845.218384,457
845.336426,434
845.454468,461
845.572449,467
845.69043,456
845.808411,444
845.926453,447
846.044373,480
846.162354,448
846.280396,474
846.398315,455
846.516296,435
846.634216,452
846.752197,449
846.870178,446
846.988098,447
847.106079,474
847.22406,443
847.34198,457
847.4599,450
847.577881,454
847.695801,457
847.813782,443
847.931641,427
848.049561,465
848.167603,429
848.285461,442
848.403381,449
848.521362,444
848.639221,455
848.75708,459
848.875,447
848.99292,440
849.110901,426
849.22876,455
849.34668,454
849.464539,454
849.582458,461
849.700317,453
849.818176,461
849.936096,439
850.053955,455
850.171875,451
850.289673,440
850.407593,435
850.525452,455
850.643311,442
850.761169,454
850.878967,455
850.996887,435
851.114746,456
851.232544,438
851.350403,437
851.468262,439
851.58606,460
851.703979,442
851.821777,471
851.939636,448
852.057434,428
852.175232,462
852.293091,457
852.410889,439
852.528687,456
852.646545,437
852.764343,448
852.88208,433
852.999939,444
853.117676,461
853.235535,445
853.353271,446
853.471069,446
853.588928,437
853.706604,447
853.824402,453
853.9422,464
854.059998,457
854.177734,475
854.295532,449
854.413269,451
854.531006,450
854.648804,488
854.766541,458
854.884277,457
855.002014,438
855.119751,461
855.237549,461
855.355225,474
855.473022,444
855.590698,457
855.708435,446
855.826172,444
855.943848,458
856.061646,466
856.179321,444
856.296997,456
856.414795,457
856.53241,473
856.650085,464
856.767822,439
856.885559,469
857.003174,459
857.120911,465
857.238586,466
857.356201,451
857.473938,461
857.591614,471
857.709351,462
857.826965,450
857.944641,463
858.062317,461
858.179993,466
858.297668,474
858.415283,460
858.532959,447
858.650574,455
858.768188,439
858.885803,459
859.003479,465
859.121094,454
859.23877,450
859.356384,452
859.473999,472
859.591675,451
859.709229,438
859.826843,463
859.944458,442
860.062012,445
860.179626,469
860.297302,453
860.414856,445
860.532471,461
860.650024,459
860.767639,439
860.885193,460
861.002808,457
861.120361,448
861.237976,450
861.35553,439
861.473022,432
861.590698,442
861.708191,428
861.825745,444
861.943298,451
862.060852,452
862.178406,460
862.295959,463
862.413513,455
862.531006,465
862.64856,458
862.766113,461
862.883667,441
863.00116,443
863.118713,454
863.236206,459
863.353699,450
863.471252,441
863.588745,445
863.706177,442
863.82373,448
863.941162,452
864.058716,463
864.176208,441
864.29364,457
864.411194,441
864.528687,444
864.646118,459
864.763611,462
864.881042,441
864.998535,451
865.116028,444
865.233459,467
865.350891,450
865.468384,461
865.585754,462
865.703308,468
865.820679,439
865.938171,466
866.055542,438
866.173035,425
866.290466,458
866.407837,445
866.52533,448
866.6427,465
866.760071,485
866.877563,462
866.994934,461
867.112305,468
867.229736,451
867.347107,447
867.464539,448
867.58197,462
867.699341,464
867.81665,455
867.934082,444
868.051453,451
868.168823,440
868.286194,470
868.403564,438
868.520935,445
868.638306,455
868.755676,463
868.872986,453
868.990295,470
869.107727,454
869.225037,468
869.342346,446
869.459717,462
869.577026,465
869.694336,448
869.811707,436
869.929016,460
870.046326,457
870.163635,468
870.280945,421
870.398254,456
870.515564,466
870.632812,454
870.750183,455
870.867432,451
870.984741,447
871.102051,459
871.219299,446
871.336609,455
871.453918,453
871.571106,470
871.688416,446
871.805664,465
871.922852,464
872.040222,446
872.157471,435
872.274719,450
872.391968,453
872.509155,445
872.626465,454
872.743652,459
872.860962,458
872.978149,453
873.095337,451
873.212646,468
873.329834,444
873.44696,451
873.564209,451
873.681396,442
873.798645,437
873.915894,459
874.03302,464
874.150208,455
874.267456,447
874.384583,447
874.501831,449
874.618958,459
874.736145,435
874.853333,448
874.970459,452
875.087646,445
875.204834,425
875.32196,449
875.439148,448
875.556274,471
875.673401,458
875.790527,451
875.907715,446
876.024841,463
876.141968,451
876.259094,453
876.376282,460
876.493347,448
876.610474,435
876.7276,467
876.844727,444
876.961853,456
877.078918,445
877.195984,456
877.313171,452
877.430237,456
877.547302,450
877.664368,463
877.781433,449
877.898499,464
878.015625,449
878.13269,461
878.249695,461
878.366821,444
878.483887,470
878.600952,455
878.717957,461
878.834961,474
878.952087,456
879.069092,450
879.186157,460
879.303162,464
879.420227,456
879.537231,466
879.654236,435
879.77124,462
879.888306,438
880.005249,477
880.122314,475
880.239319,431
880.356323,434
880.473328,453
880.590271,450
880.707275,461
880.824341,456
880.941284,466
881.058228,454
881.175232,474
881.292236,464
881.40918,452
881.526123,451
881.643066,472
881.760071,449
881.877014,466
881.993958,466
882.11084,456
882.227783,458
882.344727,458
882.46167,469
882.578613,442
882.695618,442
882.812439,462
882.929382,448
883.046326,463
883.163208,451
883.280151,471
883.397034,446
883.513916,463
883.630798,447
883.747742,452
883.864563,433
883.981506,446
884.098389,453
884.21521,461
884.332153,445
884.448975,454
884.565796,438
884.682678,466
884.7995,471
884.916443,452
885.033264,464
885.150085,447
885.266968,475
885.383789,454
885.500671,466
885.617493,469
885.734314,460
885.851196,477
885.967896,457
886.084717,455
886.201599,452
886.318359,448
886.435181,459
886.552002,458
886.668762,461
886.785645,465
886.902344,453
887.019165,458
887.135925,454
887.252747,473
887.369446,452
887.486267,459
887.603027,458
887.719788,459
887.836548,460
887.953247,465
888.070068,463
888.186829,478
888.303528,458
888.420288,467
888.536987,456
888.653687,461
888.770447,457
888.887146,461
889.003967,441
889.120667,460
889.237305,456
889.354065,460
889.470703,462
889.587463,475
889.704163,447
889.820862,462
889.937561,459
890.054199,455
890.170837,475
890.287598,477
890.404236,456
890.520874,458
890.637634,466
890.754211,453
890.87085,470
890.987549,469
891.104187,442
891.220886,471
891.337463,455
891.454102,463
891.57074,471
891.687378,463
891.804077,466
891.920654,443
892.037231,468
892.15387,442
892.270447,458
892.387085,465
892.503723,470
892.6203,464
892.736877,473
892.853516,466
892.970032,470
893.08667,464
893.203186,458
893.319763,471
893.43634,457
893.552917,471
893.669556,488
893.786011,449
893.902588,451
894.019165,460
894.135681,461
894.252197,491
894.368835,456
894.485291,454
894.601868,466
894.718384,469
894.8349,464
894.951355,458
895.067932,455
895.184448,459
895.300964,460
895.417419,480
895.533936,463
895.650452,477
895.766907,452
895.883423,467
895.999878,454
896.116333,461
896.232849,466
896.349304,467
896.465759,460
896.582214,450
896.698669,459
896.815125,466
896.931641,468
897.048035,468
897.164551,472
897.280884,466
897.397339,467
897.513794,462
897.630249,471
897.746582,455
897.863098,467
897.979431,454
898.095886,473
898.212341,472
898.328674,468
898.445129,452
898.561462,476
898.677795,459
898.794312,458
898.910645,455
899.026978,465
899.143433,466
899.259766,473
899.37616,461
899.492493,458
899.608765,449
899.725159,451
899.841553,466
899.957947,456
900.07428,449
900.190552,463
900.306946,459
900.423157,460
900.53949,460
900.655884,479
900.772156,465
900.888489,470
901.004822,489
901.121033,469
901.237366,462
901.353699,477
901.46991,458
901.586304,456
901.702515,478
901.818787,460
901.93512,472
902.051331,460
902.167603,479
902.283875,471
902.400085,473
902.516418,472
902.632629,473
902.74884,482
902.865112,469
902.981384,495
903.097595,456
903.213867,454
903.330017,440
903.446289,455
903.5625,469
903.67865,470
903.794922,487
903.911072,476
904.027344,468
904.143494,461
904.259705,471
904.375916,447
904.492065,467
904.608215,470
904.724426,466
904.840576,471
904.956726,466
905.072876,465
905.189087,463
905.305176,479
905.421387,479
905.537537,464
905.653687,456
905.769775,460
905.885925,459
906.002014,462
906.118164,471
906.234314,466
906.350403,475
906.466492,477
906.582642,483
906.69873,465
906.814758,482
906.930908,458
907.046936,463
907.163086,466
907.279175,462
907.395264,453
907.511353,493
907.62738,449
907.743408,483
907.859497,466
907.975525,487
908.091553,482
908.207703,490
908.32373,473
908.439758,453
908.555786,482
908.671814,460
908.787842,483
908.90387,473
909.019775,471
909.135864,464
909.251892,461
909.367859,467
909.483826,465
909.599854,478
909.715881,454
909.831848,472
909.947815,468
910.063782,472
910.179749,470
910.295776,466
910.411743,463
910.527649,458
910.643616,474
910.759583,456
910.875488,457
910.991455,478
911.107361,462
911.223267,481
911.339294,481
911.4552,486
911.571106,491
911.687073,486
911.802979,479
911.918823,474
912.034729,480
912.150635,458
912.266602,481
912.382446,487
912.498352,467
912.614197,477
912.730103,478
912.846008,475
