792.44574,625
792.56488,634
792.68396,689
792.80304,672
792.92218,620
793.041199,615
793.160339,614
793.279419,604
793.398499,611
793.517578,599
793.636658,584
793.755737,609
793.874817,595
793.993896,623
794.112976,627
794.232056,578
794.351074,602
794.470215,598
794.589233,602
794.708313,588
794.827393,596
794.946411,605
795.065552,592
795.18457,560
795.303589,588
795.422668,587
795.541687,583
795.660767,581
795.779846,597
795.898865,598
796.017883,586
796.136963,596
796.255981,570
796.375061,572
796.49408,572
796.613037,561
796.732117,608
796.851135,578
796.970154,567
797.089233,557
797.208191,567
797.327271,571
797.446228,574
797.565186,586
797.684265,576
797.803223,565
797.922241,550
798.04126,584
798.160278,566
798.279297,569
798.398315,572
798.517273,586
798.636292,590
798.75531,563
798.874268,564
798.993286,587
799.112244,586
799.231323,568
799.350281,576
799.469238,583
799.588257,565
799.707153,587
799.826111,590
799.945129,587
800.064087,588
800.183044,580
800.302063,563
800.421021,588
800.539978,579
800.658936,582
800.777893,579
800.896912,590
801.015747,542
801.134705,574
801.253723,586
801.37262,584
801.491638,587
801.610535,565
801.729492,573
801.84845,578
801.967407,582
802.086243,604
802.205261,592
802.324158,582
802.443115,602
802.562073,594
802.680969,598
802.799927,558
802.918762,589
803.037659,582
803.156677,589
803.275574,581
803.39447,593
803.513428,602
803.632263,584
803.751221,593
803.870117,583
803.989014,589
804.107971,598
804.226746,600
804.345642,609
804.4646,594
804.583496,609
804.702393,613
804.821228,609
804.940125,603
805.059021,605
805.177917,595
805.296814,621
805.415649,606
805.534546,613
805.653442,586
805.772278,613
805.891113,606
806.01001,604
806.128906,612
806.247742,627
806.366577,586
806.485413,614
806.604309,643
806.723145,590
806.84198,597
806.960876,584
807.079712,612
807.198486,607
807.317383,630
807.436218,601
807.554993,635
807.673889,615
807.792725,609
807.91156,618
808.030396,601
808.14917,588
808.268005,615
808.386841,599
808.505676,631
808.624451,610
808.743286,625
808.862122,622
808.980896,611
809.099731,625
809.218506,630
809.337341,657
809.456116,624
809.57489,633
809.693726,626
809.8125,615
809.931274,627
810.050049,621
810.168884,633
810.287659,612
810.406372,634
810.525269,638
810.643982,641
810.762756,625
810.881531,653
811.000305,628
811.11908,635
811.237854,619
811.356567,599
811.475403,658
811.594116,636
811.71283,651
811.831604,628
811.950378,629
812.069153,640
812.187927,621
812.30658,658
812.425415,629
812.544128,648
812.662781,613
812.781616,627
812.900269,614
813.019043,621
813.137756,620
813.256531,629
813.375244,624
813.493896,618
813.612671,624
813.731384,636
813.850037,621
813.96875,650
814.087524,631
814.206238,615
814.324951,611
814.443604,640
814.562256,644
814.68103,609
814.799683,618
814.918335,652
815.037109,635
815.155762,611
815.274475,614
815.393188,612
815.511841,624
815.630554,626
815.749146,628
815.867859,612
815.986572,615
816.105164,622
816.223877,627
816.342529,607
816.461182,630
816.579895,622
816.698486,628
816.817139,635
816.935791,589
817.054504,606
817.173096,609
817.291748,586
817.4104,618
817.529053,595
817.647644,604
817.766235,592
817.884949,580
818.00354,593
818.122192,556
818.240845,570
818.359436,560
818.478088,546
818.59668,516
818.715271,548
818.833923,529
818.952515,529
819.071106,529
819.189758,508
819.30835,518
819.426941,514
819.545532,518
819.664124,498
819.782715,516
819.901306,522
820.019897,513
820.138489,517
820.25708,510
820.375671,499
820.494202,495
820.612732,483
820.731384,481
820.849915,487
820.968506,491
821.087097,499
821.205627,501
821.324158,487
821.442749,488
821.561279,492
821.679871,485
821.798401,486
821.916931,507
822.035461,477
822.154053,495
822.272583,484
822.391174,501
822.509583,480
822.628174,495
822.746704,478
822.865234,494
822.983765,480
823.102295,497
823.220825,467
823.339294,480
823.457825,493
823.576355,478
823.694824,475
823.813354,493
823.931885,488
824.050354,477
824.168884,491
824.287354,480
824.405823,471
824.524353,471
824.642822,494
824.761353,483
824.879822,485
824.998291,480
825.116699,494
825.235291,483
825.353699,490
825.472168,486
825.590637,481
825.709106,502
825.827576,479
825.946045,472
826.064453,466
826.182983,489
826.301392,477
826.4198,459
826.53833,466
826.656738,462
826.775208,462
826.893677,448
827.012024,490
827.130493,486
827.248962,455
827.36731,447
827.485779,452
827.604248,460
827.722595,435
827.841064,470
827.959412,454
828.077942,464
828.196289,464
828.314636,456
828.433105,456
828.551514,465
828.669861,477
828.78833,457
828.906677,462
829.025085,470
829.143433,476
829.261841,458
829.38031,450
829.498657,468
829.617004,459
829.735413,458
829.85376,478
829.972107,471
830.090515,467
830.208862,472
830.327209,445
830.445557,443
830.563904,464
830.682312,465
830.800659,456
830.919006,456
831.037354,471
831.155701,457
831.274048,462
831.392395,452
831.51062,451
831.629028,463
831.747314,466
831.865662,446
831.984009,455
832.102356,449
832.220642,456
832.338928,471
832.457275,474
832.575623,452
832.693909,477
832.812134,442
832.930481,447
833.048828,458
833.167114,450
833.2854,439
833.403687,458
833.521973,453
833.640259,469
833.758545,460
833.876831,461
833.995056,456
834.113281,476
834.231628,458
834.349915,470
834.468201,482
834.586426,455
834.704651,463
834.822998,457
834.941162,485
835.059448,439
835.177673,455
835.295959,449
835.414246,457
835.53241,442
835.650635,461
835.768921,460
835.887146,441
836.005371,480
836.123596,449
836.241821,470
836.360046,474
836.478271,465
836.596497,451
836.714722,473
836.832886,458
836.95105,461
837.069336,473
837.1875,486
837.305725,477
837.423889,454
837.542053,465
837.660339,481
837.778503,475
837.896667,472
838.014832,479
838.132996,490
838.25116,452
838.369385,477
838.487488,455
838.605713,471
838.723877,484
838.84198,466
838.960205,472
839.078308,477
839.196472,447
839.314636,484
839.4328,464
839.550964,486
839.669067,471
839.787231,486
839.905396,465
840.023499,458
840.141602,470
840.259766,492
840.377869,458
840.495972,466
840.614136,467
840.732239,463
840.850342,461
840.968445,460
841.086548,441
841.204651,479
841.322754,448
841.440918,449
841.55896,464
841.677002,450
841.795166,451
841.913208,448
842.031311,460
842.149353,470
842.267456,448
842.385498,443
842.503601,475
842.621643,457
842.739746,440
842.857788,463
842.97583,443
843.093933,464
843.211975,449
843.330017,460
843.44812,433
843.566101,459
843.684204,450
843.802246,438
843.920227,449
844.038269,460
844.156311,446
844.274292,445
844.392395,453
844.510376,445
844.628357,454
844.74646,452
844.864441,444
844.982422,441
845.100403,426
845.218384,447
845.336426,442
845.454468,450
845.572449,434
845.69043,448
845.808411,438
845.926453,456
846.044373,454
846.162354,441
846.280396,444
846.398315,436
846.516296,456
846.634216,454
846.752197,461
846.870178,447
846.988098,452
847.106079,460
847.22406,461
847.34198,443
847.4599,449
847.577881,448
847.695801,456
847.813782,444
847.931641,444
848.049561,457
848.167603,444
848.285461,437
848.403381,444
848.521362,456
848.639221,455
848.75708,448
848.875,438
848.99292,460
849.110901,452
849.22876,445
849.34668,441
849.464539,444
849.582458,421
849.700317,449
849.818176,441
849.936096,452
850.053955,447
850.171875,431
850.289673,445
850.407593,433
850.525452,443
850.643311,464
850.761169,429
850.878967,449
850.996887,432
851.114746,451
851.232544,441
851.350403,459
851.468262,427
851.58606,436
851.703979,455
851.821777,447
851.939636,470
852.057434,455
852.175232,449
852.293091,444
852.410889,441
852.528687,462
852.646545,448
852.764343,457
852.88208,439
852.999939,464
853.117676,458
853.235535,444
853.353271,459
853.471069,458
853.588928,456
853.706604,465
853.824402,455
853.9422,436
854.059998,439
854.177734,455
854.295532,420
854.413269,439
854.531006,447
854.648804,458
854.766541,450
854.884277,453
855.002014,455
855.119751,454
855.237549,463
855.355225,462
855.473022,465
855.590698,453
855.708435,458
855.826172,431
855.943848,478
856.061646,455
856.179321,451
856.296997,459
856.414795,448
856.53241,471
856.650085,463
856.767822,453
856.885559,442
857.003174,462
857.120911,455
857.238586,451
857.356201,448
857.473938,455
857.591614,444
857.709351,457
857.826965,445
857.944641,450
858.062317,441
858.179993,460
858.297668,453
858.415283,454
858.532959,439
858.650574,451
858.768188,456
858.885803,464
859.003479,459
859.121094,460
859.23877,454
859.356384,452
859.473999,453
859.591675,434
859.709229,454
859.826843,447
859.944458,443
860.062012,464
860.179626,448
860.297302,459
860.414856,449
860.532471,450
860.650024,446
860.767639,456
860.885193,438
861.002808,461
861.120361,439
861.237976,442
861.35553,450
861.473022,452
861.590698,454
861.708191,457
861.825745,466
861.943298,444
862.060852,447
862.178406,432
862.295959,440
862.413513,473
862.531006,452
862.64856,449
862.766113,447
862.883667,437
863.00116,459
863.118713,441
863.236206,457
863.353699,451
863.471252,442
863.588745,450
863.706177,453
863.82373,434
863.941162,452
864.058716,461
864.176208,445
864.29364,462
864.411194,441
864.528687,460
864.646118,444
864.763611,444
864.881042,439
864.998535,442
865.116028,459
865.233459,447
865.350891,439
865.468384,444
865.585754,463
865.703308,451
865.820679,453
865.938171,456
866.055542,474
866.173035,464
866.290466,461
866.407837,453
866.52533,458
866.6427,453
866.760071,450
866.877563,477
866.994934,460
867.112305,465
867.229736,442
867.347107,452
867.464539,459
867.58197,455
867.699341,465
867.81665,452
867.934082,474
868.051453,467
868.168823,450
868.286194,439
868.403564,454
868.520935,444
868.638306,447
868.755676,460
868.872986,466
868.990295,433
869.107727,434
869.225037,447
869.342346,444
869.459717,454
869.577026,443
869.694336,452
869.811707,449
869.929016,436
870.046326,430
870.163635,446
870.280945,446
870.398254,449
870.515564,468
870.632812,440
870.750183,470
870.867432,462
870.984741,464
871.102051,468
871.219299,451
871.336609,438
871.453918,446
871.571106,463
871.688416,458
871.805664,429
871.922852,451
872.040222,451
872.157471,448
872.274719,450
872.391968,446
872.509155,444
872.626465,440
872.743652,448
872.860962,448
872.978149,468
873.095337,447
873.212646,455
873.329834,456
873.44696,462
873.564209,449
873.681396,446
873.798645,457
873.915894,441
874.03302,454
874.150208,450
874.267456,446
874.384583,453
874.501831,445
874.618958,441
874.736145,443
874.853333,439
874.970459,445
875.087646,453
875.204834,461
875.32196,431
875.439148,448
875.556274,433
875.673401,452
875.790527,429
875.907715,451
876.024841,442
876.141968,436
876.259094,434
876.376282,449
876.493347,459
876.610474,443
876.7276,458
876.844727,447
876.961853,452
877.078918,438
877.195984,463
877.313171,448
877.430237,448
877.547302,462
877.664368,456
877.781433,428
877.898499,444
878.015625,453
878.13269,464
878.249695,463
878.366821,457
878.483887,464
878.600952,463
878.717957,460
878.834961,464
878.952087,440
879.069092,464
879.186157,437
879.303162,465
879.420227,444
879.537231,435
879.654236,449
879.77124,471
879.888306,454
880.005249,439
880.122314,432
880.239319,450
880.356323,445
880.473328,446
880.590271,457
880.707275,450
880.824341,467
880.941284,461
881.058228,446
881.175232,443
881.292236,446
881.40918,445
881.526123,462
881.643066,442
881.760071,455
881.877014,451
881.993958,452
882.11084,442
882.227783,447
882.344727,445
882.46167,446
882.578613,457
882.695618,459
882.812439,456
882.929382,464
883.046326,451
883.163208,442
883.280151,446
883.397034,462
883.513916,447
883.630798,436
883.747742,449
883.864563,445
883.981506,418
884.098389,457
884.21521,452
884.332153,456
884.448975,459
884.565796,457
884.682678,456
884.7995,440
884.916443,448
885.033264,452
885.150085,464
885.266968,450
885.383789,441
885.500671,443
885.617493,457
885.734314,460
885.851196,450
885.967896,450
886.084717,456
886.201599,457
886.318359,447
886.435181,460
886.552002,445
886.668762,457
886.785645,450
886.902344,451
887.019165,466
887.135925,456
887.252747,444
887.369446,447
887.486267,446
887.603027,455
887.719788,473
887.836548,456
887.953247,447
888.070068,447
888.186829,486
888.303528,453
888.420288,470
888.536987,472
888.653687,455
888.770447,454
888.887146,443
889.003967,442
889.120667,461
889.237305,445
889.354065,452
889.470703,488
889.587463,433
889.704163,465
889.820862,460
889.937561,446
890.054199,450
890.170837,447
890.287598,460
890.404236,450
890.520874,462
890.637634,458
890.754211,447
890.87085,445
890.987549,449
891.104187,450
891.220886,463
891.337463,457
891.454102,466
891.57074,447
891.687378,450
891.804077,459
891.920654,457
892.037231,457
892.15387,473
892.270447,454
892.387085,450
892.503723,452
892.6203,452
892.736877,451
892.853516,460
892.970032,462
893.08667,456
893.203186,441
893.319763,467
893.43634,467
893.552917,449
893.669556,474
893.786011,475
893.902588,462
894.019165,432
894.135681,470
894.252197,466
894.368835,472
894.485291,460
894.601868,473
894.718384,472
894.8349,459
894.951355,468
895.067932,446
895.184448,460
895.300964,458
895.417419,458
895.533936,463
895.650452,460
895.766907,448
895.883423,443
895.999878,454
896.116333,457
896.232849,452
896.349304,433
896.465759,444
896.582214,475
896.698669,464
896.815125,460
896.931641,437
897.048035,466
897.164551,441
897.280884,442
897.397339,456
897.513794,468
897.630249,467
897.746582,468
897.863098,482
897.979431,472
898.095886,438
898.212341,446
898.328674,459
898.445129,463
898.561462,472
898.677795,475
898.794312,464
898.910645,445
899.026978,466
899.143433,458
899.259766,478
899.37616,464
899.492493,453
899.608765,473
899.725159,448
899.841553,468
899.957947,454
900.07428,472
900.190552,468
900.306946,445
900.423157,473
900.53949,466
900.655884,454
900.772156,451
900.888489,470
901.004822,452
901.121033,448
901.237366,465
901.353699,450
901.46991,454
901.586304,476
901.702515,455
901.818787,474
901.93512,458
902.051331,472
902.167603,463
902.283875,446
902.400085,473
902.516418,467
902.632629,461
902.74884,461
902.865112,476
902.981384,477
903.097595,455
903.213867,466
903.330017,457
903.446289,459
903.5625,442
903.67865,479
903.794922,466
903.911072,458
904.027344,468
904.143494,480
904.259705,462
904.375916,463
904.492065,458
904.608215,470
904.724426,467
904.840576,457
904.956726,442
905.072876,462
905.189087,475
905.305176,465
905.421387,458
905.537537,472
905.653687,477
905.769775,450
905.885925,468
906.002014,454
906.118164,460
906.234314,462
906.350403,477
906.466492,451
906.582642,482
906.69873,470
906.814758,469
906.930908,477
907.046936,453
907.163086,463
907.279175,469
907.395264,466
907.511353,480
907.62738,474
907.743408,468
907.859497,467
907.975525,469
908.091553,460
908.207703,480
908.32373,467
908.439758,446
908.555786,474
908.671814,456
908.787842,456
908.90387,489
909.019775,466
909.135864,488
909.251892,478
909.367859,457
909.483826,464
909.599854,450
909.715881,471
909.831848,467
909.947815,461
910.063782,471
910.179749,458
910.295776,461
910.411743,457
910.527649,471
910.643616,482
910.759583,478
910.875488,466
910.991455,466
911.107361,478
911.223267,468
911.339294,474
911.4552,456
911.571106,480
911.687073,464
911.802979,482
911.918823,485
912.034729,454
912.150635,476
912.266602,478
912.382446,459
912.498352,449
912.614197,451
912.730103,456
912.846008,467
792.44574,610
792.56488,652
792.68396,681
792.80304,668
792.92218,626
793.041199,597
793.160339,601
793.279419,618
793.398499,647
793.517578,599
793.636658,588
793.755737,636
793.874817,623
793.993896,622
794.112976,611
794.232056,606
794.351074,594
794.470215,600
794.589233,598
794.708313,579
794.827393,570
794.946411,607
795.065552,602
795.18457,599
795.303589,611
795.422668,574
795.541687,605
795.660767,587
795.779846,560
795.898865,574
796.017883,580
796.136963,591
796.255981,588
796.375061,597
796.49408,589
796.613037,601
796.732117,582
796.851135,575
796.970154,588
797.089233,582
797.208191,574
797.327271,600
797.446228,589
797.565186,561
797.684265,582
797.803223,568
797.922241,559
798.04126,571
798.160278,592
798.279297,570
798.398315,593
798.517273,559
798.636292,570
798.75531,576
798.874268,591
798.993286,574
799.112244,561
799.231323,569
799.350281,597
799.469238,563
799.588257,590
799.707153,587
799.826111,561
799.945129,599
800.064087,568
800.183044,589
800.302063,589
800.421021,586
800.539978,581
800.658936,584
800.777893,592
800.896912,556
801.015747,584
801.134705,577
801.253723,589
801.37262,573
801.491638,610
801.610535,579
801.729492,587
801.84845,584
801.967407,580
802.086243,591
802.205261,590
802.324158,586
802.443115,577
802.562073,588
802.680969,571
802.799927,590
802.918762,601
803.037659,578
803.156677,597
803.275574,594
803.39447,588
803.513428,563
803.632263,574
803.751221,596
803.870117,599
803.989014,594
804.107971,600
804.226746,597
804.345642,602
804.4646,626
804.583496,615
804.702393,595
804.821228,587
804.940125,594
805.059021,599
805.177917,619
805.296814,615
805.415649,603
805.534546,631
805.653442,604
805.772278,595
805.891113,623
806.01001,580
806.128906,633
806.247742,609
806.366577,609
806.485413,608
806.604309,600
806.723145,616
806.84198,629
806.960876,614
807.079712,592
807.198486,614
807.317383,618
807.436218,616
807.554993,611
807.673889,623
807.792725,616
807.91156,616
808.030396,604
808.14917,621
808.268005,622
808.386841,630
808.505676,632
808.624451,625
808.743286,598
808.862122,619
808.980896,605
809.099731,624
809.218506,617
809.337341,631
809.456116,626
809.57489,666
809.693726,616
809.8125,639
809.931274,634
810.050049,626
810.168884,615
810.287659,630
810.406372,625
810.525269,638
810.643982,614
810.762756,614
810.881531,646
811.000305,631
811.11908,628
811.237854,644
811.356567,641
811.475403,622
811.594116,621
811.71283,629
811.831604,611
811.950378,657
812.069153,650
812.187927,645
812.30658,611
812.425415,644
812.544128,628
812.662781,622
812.781616,643
812.900269,638
813.019043,625
813.137756,627
813.256531,609
813.375244,641
813.493896,605
813.612671,639
813.731384,628
813.850037,610
813.96875,630
814.087524,622
814.206238,616
814.324951,628
814.443604,654
814.562256,605
814.68103,625
814.799683,643
814.918335,614
815.037109,622
815.155762,624
815.274475,622
815.393188,613
815.511841,612
815.630554,607
815.749146,607
815.867859,630
815.986572,618
816.105164,602
816.223877,611
816.342529,619
816.461182,611
816.579895,606
816.698486,638
816.817139,626
816.935791,646
817.054504,635
817.173096,616
817.291748,621
817.4104,621
817.529053,606
817.647644,606
817.766235,581
817.884949,598
818.00354,594
818.122192,559
818.240845,548
818.359436,563
818.478088,544
818.59668,542
818.715271,544
818.833923,520
818.952515,540
819.071106,535
819.189758,521
819.30835,530
819.426941,487
819.545532,523
819.664124,493
819.782715,513
819.901306,509
820.019897,505
820.138489,492
820.25708,519
820.375671,521
820.494202,469
820.612732,485
820.731384,504
820.849915,488
820.968506,500
821.087097,500
821.205627,495
821.324158,467
821.442749,495
821.561279,490
821.679871,496
821.798401,493
821.916931,504
822.035461,473
822.154053,503
822.272583,489
822.391174,468
822.509583,466
822.628174,484
822.746704,475
822.865234,502
822.983765,504
823.102295,494
823.220825,492
823.339294,503
823.457825,485
823.576355,486
823.694824,470
823.813354,481
823.931885,472
824.050354,475
824.168884,485
824.287354,501
824.405823,488
824.524353,516
824.642822,473
824.761353,491
824.879822,487
824.998291,498
825.116699,486
825.235291,480
825.353699,485
825.472168,473
825.590637,486
825.709106,485
825.827576,459
825.946045,469
826.064453,492
826.182983,481
826.301392,452
826.4198,497
826.53833,484
826.656738,444
826.775208,479
826.893677,453
827.012024,461
827.130493,473
827.248962,459
827.36731,451
827.485779,478
827.604248,483
827.722595,485
827.841064,469
827.959412,459
828.077942,479
828.196289,447
828.314636,467
828.433105,468
828.551514,476
828.669861,452
828.78833,445
828.906677,475
829.025085,457
829.143433,454
829.261841,464
829.38031,464
829.498657,462
829.617004,462
829.735413,478
829.85376,475
829.972107,466
830.090515,459
830.208862,463
830.327209,447
830.445557,476
830.563904,449
830.682312,466
830.800659,452
830.919006,439
831.037354,451
831.155701,458
831.274048,453
831.392395,469
831.51062,448
831.629028,480
831.747314,481
831.865662,440
831.984009,449
832.102356,483
832.220642,440
832.338928,475
832.457275,459
832.575623,479
832.693909,450
832.812134,452
832.930481,463
833.048828,458
833.167114,461
833.2854,462
833.403687,468
833.521973,477
833.640259,441
833.758545,454
833.876831,440
833.995056,483
834.113281,470
834.231628,464
834.349915,454
834.468201,468
834.586426,449
834.704651,468
834.822998,441
834.941162,459
835.059448,442
835.177673,465
835.295959,457
835.414246,442
835.53241,468
835.650635,479
835.768921,456
835.887146,480
836.005371,457
836.123596,469
836.241821,463
836.360046,475
836.478271,464
836.596497,459
836.714722,456
836.832886,489
836.95105,487
837.069336,477
837.1875,479
837.305725,460
837.423889,483
837.542053,494
837.660339,485
837.778503,476
837.896667,471
838.014832,479
838.132996,464
838.25116,476
838.369385,474
838.487488,485
838.605713,473
838.723877,475
838.84198,475
838.960205,482
839.078308,467
839.196472,457
839.314636,477
839.4328,471
839.550964,490
839.669067,463
839.787231,479
839.905396,473
840.023499,468
840.141602,485
840.259766,485
840.377869,483
840.495972,458
840.614136,453
840.732239,451
840.850342,462
840.968445,477
841.086548,468
841.204651,470
841.322754,456
841.440918,452
841.55896,463
841.677002,440
841.795166,451
841.913208,462
842.031311,457
842.149353,468
842.267456,474
842.385498,455
842.503601,439
842.621643,457
842.739746,451
842.857788,451
842.97583,453
843.093933,442
843.211975,476
843.330017,457
843.44812,456
843.566101,455
843.684204,456
843.802246,459
843.920227,455
844.038269,454
844.156311,457
844.274292,445
844.392395,464
844.510376,457
844.628357,444
844.74646,441
844.864441,456
844.982422,431
845.100403,439
845.218384,452
845.336426,455
845.454468,448
845.572449,462
845.69043,451
845.808411,459
845.926453,440
846.044373,451
846.162354,438
846.280396,452
846.398315,436
846.516296,454
846.634216,439
846.752197,476
846.870178,445
846.988098,441
847.106079,437
847.22406,439
847.34198,460
847.4599,447
847.577881,448
847.695801,447
847.813782,422
847.931641,479
848.049561,440
848.167603,447
848.285461,455
848.403381,447
848.521362,443
848.639221,429
848.75708,438
848.875,472
848.99292,439
849.110901,469
849.22876,452
849.34668,454
849.464539,448
849.582458,452
849.700317,452
849.818176,454
849.936096,449
850.053955,456
850.171875,465
850.289673,467
850.407593,448
850.525452,459
850.643311,440
850.761169,460
850.878967,452
850.996887,459
851.114746,453
851.232544,455
851.350403,437
851.468262,459
851.58606,460
851.703979,461
851.821777,447
851.939636,432
852.057434,453
852.175232,448
852.293091,445
852.410889,468
852.528687,427
852.646545,460
852.764343,453
852.88208,466
852.999939,459
853.117676,448
853.235535,445
853.353271,459
853.471069,459
853.588928,449
853.706604,438
853.824402,467
853.9422,451
854.059998,441
854.177734,450
854.295532,442
854.413269,466
854.531006,466
854.648804,448
854.766541,435
854.884277,440
855.002014,451
855.119751,449
855.237549,473
855.355225,469
855.473022,462
855.590698,449
855.708435,466
855.826172,445
855.943848,443
856.061646,446
856.179321,435
856.296997,472
856.414795,450
856.53241,461
856.650085,458
856.767822,455
856.885559,454
857.003174,460
857.120911,462
857.238586,458
857.356201,468
857.473938,420
857.591614,440
857.709351,462
857.826965,461
857.944641,463
858.062317,449
858.179993,479
858.297668,474
858.415283,434
858.532959,454
858.650574,449
858.768188,470
858.885803,458
859.003479,467
859.121094,455
859.23877,444
859.356384,460
859.473999,462
859.591675,447
859.709229,469
859.826843,442
859.944458,459
860.062012,453
860.179626,442
860.297302,447
860.414856,461
860.532471,434
860.650024,465
860.767639,457
860.885193,446
861.002808,437
861.120361,455
861.237976,445
861.35553,433
861.473022,458
861.590698,450
861.708191,453
861.825745,431
861.943298,454
862.060852,468
862.178406,426
862.295959,454
862.413513,448
862.531006,436
862.64856,446
862.766113,447
862.883667,458
863.00116,446
863.118713,450
863.236206,464
863.353699,460
863.471252,471
863.588745,433
863.706177,455
863.82373,443
863.941162,440
864.058716,460
864.176208,448
864.29364,441
864.411194,465
864.528687,454
864.646118,449
864.763611,445
864.881042,453
864.998535,451
865.116028,446
865.233459,453
865.350891,463
865.468384,463
865.585754,463
865.703308,446
865.820679,447
865.938171,446
866.055542,461
866.173035,432
866.290466,457
866.407837,447
866.52533,438
866.6427,456
866.760071,448
866.877563,450
866.994934,460
867.112305,469
867.229736,449
867.347107,442
867.464539,454
867.58197,461
867.699341,446
867.81665,449
867.934082,442
868.051453,453
868.168823,449
868.286194,443
868.403564,467
868.520935,476
868.638306,454
868.755676,448
868.872986,471
868.990295,458
869.107727,469
869.225037,456
869.342346,460
869.459717,438
869.577026,445
869.694336,463
869.811707,448
869.929016,452
870.046326,446
870.163635,434
870.280945,442
870.398254,438
870.515564,475
870.632812,452
870.750183,468
870.867432,458
870.984741,458
871.102051,448
871.219299,446
871.336609,439
871.453918,464
871.571106,452
871.688416,449
871.805664,451
871.922852,438
872.040222,458
872.157471,454
872.274719,435
872.391968,474
872.509155,458
872.626465,453
872.743652,454
872.860962,468
872.978149,464
873.095337,444
873.212646,450
873.329834,451
873.44696,456
873.564209,455
873.681396,447
873.798645,467
873.915894,440
874.03302,450
874.150208,462
874.267456,454
874.384583,438
874.501831,455
874.618958,438
874.736145,451
874.853333,448
874.970459,459
875.087646,449
875.204834,472
875.32196,456
875.439148,451
875.556274,442
875.673401,447
875.790527,441
875.907715,438
876.024841,457
876.141968,459
876.259094,449
876.376282,448
876.493347,435
876.610474,450
876.7276,457
876.844727,444
876.961853,447
877.078918,457
877.195984,454
877.313171,471
877.430237,453
877.547302,460
877.664368,439
877.781433,452
877.898499,464
878.015625,462
878.13269,455
878.249695,461
878.366821,451
878.483887,450
878.600952,451
878.717957,467
878.834961,445
878.952087,451
879.069092,456
879.186157,475
879.303162,447
879.420227,465
879.537231,435
879.654236,477
879.77124,430
879.888306,454
880.005249,462
880.122314,446
880.239319,449
880.356323,454
880.473328,457
880.590271,441
880.707275,457
880.824341,444
880.941284,457
881.058228,465
881.175232,448
881.292236,447
881.40918,438
881.526123,455
881.643066,447
881.760071,473
881.877014,431
881.993958,467
882.11084,456
882.227783,442
882.344727,470
882.46167,456
882.578613,449
882.695618,461
882.812439,467
882.929382,453
883.046326,450
883.163208,440
883.280151,439
883.397034,439
883.513916,463
883.630798,455
883.747742,449
883.864563,456
883.981506,449
884.098389,473
884.21521,463
884.332153,470
884.448975,453
884.565796,468
884.682678,458
884.7995,456
884.916443,410
885.033264,473
885.150085,455
885.266968,440
885.383789,436
885.500671,467
885.617493,463
885.734314,461
885.851196,441
885.967896,459
886.084717,452
886.201599,468
886.318359,460
886.435181,475
886.552002,442
886.668762,462
886.785645,470
886.902344,476
887.019165,449
887.135925,462
887.252747,453
887.369446,477
887.486267,452
887.603027,461
887.719788,461
887.836548,451
887.953247,466
888.070068,476
888.186829,458
888.303528,449
888.420288,448
888.536987,452
888.653687,463
888.770447,457
888.887146,461
889.003967,488
889.120667,456
889.237305,450
889.354065,451
889.470703,472
889.587463,459
889.704163,462
889.820862,462
889.937561,459
890.054199,446
890.170837,450
890.287598,463
890.404236,475
890.520874,445
890.637634,469
890.754211,452
890.87085,454
890.987549,457
891.104187,470
891.220886,446
891.337463,483
891.454102,459
891.57074,465
891.687378,459
891.804077,478
891.920654,466
892.037231,467
892.15387,458
892.270447,439
892.387085,437
892.503723,455
892.6203,444
892.736877,476
892.853516,467
892.970032,490
893.08667,460
893.203186,451
893.319763,476
893.43634,463
893.552917,455
893.669556,459
893.786011,451
893.902588,454
894.019165,455
894.135681,473
894.252197,464
894.368835,451
894.485291,453
894.601868,462
894.718384,470
894.8349,453
894.951355,474
895.067932,472
895.184448,443
895.300964,453
895.417419,467
895.533936,458
895.650452,453
895.766907,497
895.883423,466
895.999878,455
896.116333,426
896.232849,459
896.349304,466
896.465759,472
896.582214,444
896.698669,457
896.815125,468
896.931641,477
897.048035,467
897.164551,487
897.280884,484
897.397339,456
897.513794,449
897.630249,468
897.746582,471
897.863098,452
897.979431,455
898.095886,472
898.212341,461
898.328674,455
898.445129,450
898.561462,457
898.677795,475
898.794312,456
898.910645,464
899.026978,473
899.143433,457
899.259766,461
899.37616,464
899.492493,470
899.608765,470
899.725159,472
899.841553,465
899.957947,468
900.07428,459
900.190552,456
900.306946,472
900.423157,462
900.53949,479
900.655884,473
900.772156,460
900.888489,488
901.004822,451
901.121033,457
901.237366,448
901.353699,455
901.46991,478
901.586304,464
901.702515,492
901.818787,475
901.93512,467
902.051331,470
902.167603,461
902.283875,468
902.400085,449
902.516418,483
902.632629,455
902.74884,468
902.865112,489
902.981384,464
903.097595,447
903.213867,469
903.330017,455
903.446289,474
903.5625,474
903.67865,495
903.794922,469
903.911072,473
904.027344,451
904.143494,466
904.259705,456
904.375916,481
904.492065,455
904.608215,468
904.724426,454
904.840576,457
904.956726,451
905.072876,469
905.189087,452
905.305176,480
905.421387,467
905.537537,478
905.653687,452
905.769775,491
905.885925,463
906.002014,465
906.118164,472
906.234314,467
906.350403,491
906.466492,472
906.582642,481
906.69873,462
906.814758,465
906.930908,476
907.046936,486
907.163086,492
907.279175,460
907.395264,472
907.511353,472
907.62738,448
907.743408,467
907.859497,464
907.975525,472
908.091553,473
908.207703,455
908.32373,459
908.439758,461
908.555786,463
908.671814,475
908.787842,462
908.90387,468
909.019775,482
909.135864,480
909.251892,480
909.367859,467
909.483826,454
909.599854,459
909.715881,488
909.831848,462
909.947815,476
910.063782,461
910.179749,468
910.295776,451
910.411743,459
910.527649,471
910.643616,457
910.759583,471
910.875488,509
910.991455,446
911.107361,478
911.223267,479
911.339294,477
911.4552,463
911.571106,469
911.687073,441
911.802979,472
911.918823,468
912.034729,453
912.150635,473
912.266602,474
912.382446,477
912.498352,492
912.614197,463
912.730103,480
912.846008,439
792.44574,627
792.56488,654
792.68396,686
792.80304,670
792.92218,629
793.041199,604
793.160339,589
793.279419,608
793.398499,619
793.517578,614
793.636658,594
793.755737,611
793.874817,618
793.993896,613
794.112976,610
794.232056,578
794.351074,626
794.470215,611
794.589233,621
794.708313,601
794.827393,616
794.946411,598
795.065552,592
795.18457,567
795.303589,616
795.422668,587
795.541687,597
795.660767,578
795.779846,595
795.898865,566
796.017883,571
796.136963,613
796.255981,590
796.375061,587
796.49408,583
796.613037,581
796.732117,591
796.851135,583
796.970154,585
797.089233,604
797.208191,575
797.327271,605
797.446228,580
797.565186,561
797.684265,576
797.803223,582
797.922241,597
798.04126,590
798.160278,605
798.279297,567
798.398315,566
798.517273,567
798.636292,587
798.75531,582
798.874268,572
798.993286,567
799.112244,588
799.231323,581
799.350281,592
799.469238,569
799.588257,622
799.707153,576
799.826111,574
799.945129,583
800.064087,573
800.183044,581
800.302063,584
800.421021,571
800.539978,590
800.658936,579
800.777893,566
800.896912,567
801.015747,595
801.134705,581
801.253723,571
801.37262,580
801.491638,579
801.610535,586
801.729492,597
801.84845,566
801.967407,570
802.086243,606
802.205261,592
802.324158,605
802.443115,569
802.562073,566
802.680969,593
802.799927,603
802.918762,595
803.037659,587
803.156677,576
803.275574,583
803.39447,575
803.513428,591
803.632263,576
803.751221,588
803.870117,597
803.989014,592
804.107971,612
804.226746,593
804.345642,575
804.4646,612
804.583496,595
804.702393,615
804.821228,600
804.940125,581
805.059021,622
805.177917,603
805.296814,599
805.415649,599
805.534546,596
805.653442,615
805.772278,633
805.891113,608
806.01001,613
806.128906,624
806.247742,627
806.366577,606
806.485413,624
806.604309,579
806.723145,625
806.84198,615
806.960876,609
807.079712,616
807.198486,639
807.317383,583
807.436218,619
807.554993,636
807.673889,623
807.792725,624
807.91156,615
808.030396,645
808.14917,615
808.268005,621
808.386841,623
808.505676,601
808.624451,624
808.743286,622
808.862122,588
808.980896,643
809.099731,644
809.218506,611
809.337341,625
809.456116,649
809.57489,622
809.693726,653
809.8125,616
809.931274,662
810.050049,667
810.168884,643
810.287659,604
810.406372,652
810.525269,617
810.643982,637
810.762756,632
810.881531,636
811.000305,635
811.11908,635
811.237854,627
811.356567,623
811.475403,607
811.594116,643
811.71283,629
811.831604,634
811.950378,648
812.069153,620
812.187927,643
812.30658,624
812.425415,642
812.544128,638
812.662781,636
812.781616,629
812.900269,639
813.019043,632
813.137756,635
813.256531,647
813.375244,626
813.493896,631
813.612671,616
813.731384,622
813.850037,606
813.96875,633
814.087524,639
814.206238,632
814.324951,646
814.443604,633
814.562256,646
814.68103,636
814.799683,618
814.918335,620
815.037109,622
815.155762,627
815.274475,622
815.393188,622
815.511841,620
815.630554,620
815.749146,598
815.867859,613
815.986572,632
816.105164,611
816.223877,605
816.342529,602
816.461182,620
816.579895,619
816.698486,632
816.817139,626
816.935791,616
817.054504,630
817.173096,624
817.291748,615
817.4104,614
817.529053,608
817.647644,590
817.766235,590
817.884949,571
818.00354,595
818.122192,566
818.240845,553
818.359436,543
818.478088,531
818.59668,552
818.715271,540
818.833923,521
818.952515,519
819.071106,516
819.189758,542
819.30835,515
819.426941,522
819.545532,523
819.664124,510
819.782715,522
819.901306,513
820.019897,499
820.138489,485
820.25708,508
820.375671,499
820.494202,503
820.612732,502
820.731384,501
820.849915,495
820.968506,491
821.087097,483
821.205627,486
821.324158,492
821.442749,504
821.561279,493
821.679871,480
821.798401,472
821.916931,487
822.035461,497
822.154053,463
822.272583,491
822.391174,486
822.509583,475
822.628174,498
822.746704,480
822.865234,471
822.983765,475
823.102295,484
823.220825,468
823.339294,494
823.457825,494
823.576355,493
823.694824,495
823.813354,491
823.931885,473
824.050354,497
824.168884,490
824.287354,499
824.405823,494
824.524353,498
824.642822,495
824.761353,485
824.879822,492
824.998291,490
825.116699,470
825.235291,492
825.353699,475
825.472168,482
825.590637,500
825.709106,485
825.827576,482
825.946045,467
826.064453,468
826.182983,463
826.301392,486
826.4198,488
826.53833,451
826.656738,465
826.775208,482
826.893677,472
827.012024,482
827.130493,477
827.248962,473
827.36731,450
827.485779,479
827.604248,468
827.722595,465
827.841064,442
827.959412,476
828.077942,450
828.196289,493
828.314636,455
828.433105,466
828.551514,449
828.669861,463
828.78833,462
828.906677,479
829.025085,466
829.143433,463
829.261841,456
829.38031,481
829.498657,458
829.617004,466
829.735413,466
829.85376,458
829.972107,463
830.090515,452
830.208862,462
830.327209,457
830.445557,440
830.563904,460
830.682312,452
830.800659,459
830.919006,462
831.037354,463
831.155701,453
831.274048,460
831.392395,466
831.51062,467
831.629028,456
831.747314,469
831.865662,456
831.984009,457
832.102356,448
832.220642,454
832.338928,450
832.457275,453
832.575623,457
832.693909,459
832.812134,465
832.930481,484
833.048828,458
833.167114,473
833.2854,452
833.403687,479
833.521973,459
833.640259,470
833.758545,469
833.876831,488
833.995056,451
834.113281,466
834.231628,486
834.349915,470
834.468201,471
834.586426,460
834.704651,478
834.822998,479
834.941162,465
835.059448,465
835.177673,446
835.295959,448
835.414246,451
835.53241,459
835.650635,457
835.768921,466
835.887146,455
836.005371,454
836.123596,474
836.241821,472
836.360046,457
836.478271,457
836.596497,448
836.714722,474
836.832886,458
836.95105,472
837.069336,488
837.1875,491
837.305725,497
837.423889,492
837.542053,461
837.660339,497
837.778503,479
837.896667,480
838.014832,487
838.132996,483
838.25116,477
838.369385,468
838.487488,474
838.605713,468
838.723877,506
838.84198,481
838.960205,470
839.078308,467
839.196472,475
839.314636,479
839.4328,467
839.550964,456
839.669067,478
839.787231,464
839.905396,457
840.023499,477
840.141602,479
840.259766,460
840.377869,472
840.495972,480
840.614136,471
840.732239,465
840.850342,447
840.968445,451
841.086548,476
841.204651,478
841.322754,472
841.440918,475
841.55896,459
841.677002,469
841.795166,469
841.913208,471
842.031311,458
842.149353,455
842.267456,444
842.385498,458
842.503601,452
842.621643,467
842.739746,443
842.857788,435
842.97583,451
843.093933,452
843.211975,441
843.330017,461
843.44812,473
843.566101,478
843.684204,456
843.802246,460
843.920227,455
844.038269,472
844.156311,454
844.274292,452
844.392395,452
844.510376,455
844.628357,457
844.74646,458
844.864441,458
844.982422,459
845.100403,450
845.218384,457
845.336426,438
845.454468,463
845.572449,461
845.69043,432
845.808411,456
845.926453,418
846.044373,458
846.162354,433
846.280396,447
846.398315,444
846.516296,466
846.634216,458
846.752197,443
846.870178,470
846.988098,442
847.106079,456
847.22406,439
847.34198,420
847.4599,452
847.577881,461
847.695801,455
847.813782,465
847.931641,453
848.049561,444
848.167603,446
848.285461,454
848.403381,468
848.521362,439
848.639221,447
848.75708,447
848.875,459
848.99292,446
849.110901,451
849.22876,450
849.34668,451
849.464539,468
849.582458,456
849.700317,460
849.818176,436
849.936096,453
850.053955,430
850.171875,450
850.289673,456
850.407593,448
850.525452,439
850.643311,445
850.761169,448
850.878967,440
850.996887,452
851.114746,433
851.232544,458
851.350403,433
851.468262,458
851.58606,446
851.703979,442
851.821777,445
851.939636,448
852.057434,461
852.175232,444
852.293091,448
852.410889,450
852.528687,464
852.646545,455
852.764343,466
852.88208,460
852.999939,462
853.117676,449
853.235535,458
853.353271,446
853.471069,462
853.588928,455
853.706604,451
853.824402,434
853.9422,447
854.059998,450
854.177734,437
854.295532,465
854.413269,452
854.531006,443
854.648804,443
854.766541,468
854.884277,477
855.002014,451
855.119751,454
855.237549,452
855.355225,462
855.473022,456
855.590698,463
855.708435,467
855.826172,443
855.943848,460
856.061646,461
856.179321,426
856.296997,462
856.414795,463
856.53241,467
856.650085,457
856.767822,458
856.885559,464
857.003174,464
857.120911,459
857.238586,473
857.356201,444
857.473938,448
857.591614,447
857.709351,455
857.826965,466
857.944641,459
858.062317,454
858.179993,442
858.297668,450
858.415283,460
858.532959,456
858.650574,453
858.768188,445
858.885803,452
859.003479,450
859.121094,443
859.23877,435
859.356384,437
859.473999,449
859.591675,446
859.709229,437
859.826843,449
859.944458,435
860.062012,446
860.179626,468
860.297302,448
860.414856,447
860.532471,469
860.650024,459
860.767639,457
860.885193,450
861.002808,452
861.120361,455
861.237976,472
861.35553,462
861.473022,437
861.590698,454
861.708191,454
861.825745,440
861.943298,449
862.060852,466
862.178406,428
862.295959,449
862.413513,478
862.531006,466
862.64856,445
862.766113,460
862.883667,449
863.00116,454
863.118713,443
863.236206,471
863.353699,448
863.471252,436
863.588745,455
863.706177,455
863.82373,453
863.941162,449
864.058716,451
864.176208,462
864.29364,444
864.411194,451
864.528687,443
864.646118,481
864.763611,472
864.881042,447
864.998535,436
865.116028,454
865.233459,453
865.350891,467
865.468384,438
865.585754,467
865.703308,462
865.820679,442
865.938171,463
866.055542,450
866.173035,437
866.290466,444
866.407837,458
866.52533,447
866.6427,437
866.760071,459
866.877563,454
866.994934,475
867.112305,447
867.229736,444
867.347107,444
867.464539,446
867.58197,456
867.699341,460
867.81665,428
867.934082,462
868.051453,465
868.168823,442
868.286194,454
868.403564,434
868.520935,463
868.638306,447
868.755676,441
868.872986,440
868.990295,452
869.107727,436
869.225037,452
869.342346,461
869.459717,452
869.577026,450
869.694336,451
869.811707,437
869.929016,449
870.046326,446
870.163635,466
870.280945,449
870.398254,467
870.515564,464
870.632812,455
870.750183,465
870.867432,454
870.984741,436
871.102051,459
871.219299,453
871.336609,431
871.453918,436
871.571106,449
871.688416,450
871.805664,449
871.922852,442
872.040222,462
872.157471,451
872.274719,445
872.391968,449
872.509155,469
872.626465,455
872.743652,439
872.860962,473
872.978149,460
873.095337,454
873.212646,451
873.329834,450
873.44696,456
873.564209,450
873.681396,439
873.798645,431
873.915894,443
874.03302,457
874.150208,454
874.267456,459
874.384583,480
874.501831,439
874.618958,454
874.736145,461
874.853333,444
874.970459,462
875.087646,448
875.204834,441
875.32196,461
875.439148,454
875.556274,447
875.673401,441
875.790527,464
875.907715,466
876.024841,459
876.141968,459
876.259094,468
876.376282,462
876.493347,467
876.610474,443
876.7276,445
876.844727,454
876.961853,446
877.078918,445
877.195984,457
877.313171,446
877.430237,467
877.547302,448
877.664368,458
877.781433,453
877.898499,464
878.015625,439
878.13269,457
878.249695,457
878.366821,439
878.483887,459
878.600952,437
878.717957,462
878.834961,461
878.952087,452
879.069092,472
879.186157,438
879.303162,449
879.420227,463
879.537231,465
879.654236,452
879.77124,464
879.888306,455
880.005249,461
880.122314,461
880.239319,461
880.356323,457
880.473328,446
880.590271,442
880.707275,435
880.824341,443
880.941284,442
881.058228,456
881.175232,470
881.292236,454
881.40918,464
881.526123,466
881.643066,460
881.760071,459
881.877014,459
881.993958,425
882.11084,460
882.227783,415
882.344727,462
882.46167,462
882.578613,448
882.695618,462
882.812439,457
882.929382,459
883.046326,453
883.163208,448
883.280151,464
883.397034,434
883.513916,464
883.630798,458
883.747742,449
883.864563,460
883.981506,452
884.098389,463
884.21521,453
884.332153,461
884.448975,434
884.565796,432
884.682678,472
884.7995,449
884.916443,446
885.033264,445
885.150085,458
885.266968,456
885.383789,469
885.500671,459
885.617493,448
885.734314,440
885.851196,461
885.967896,468
886.084717,445
886.201599,470
886.318359,460
886.435181,458
886.552002,461
886.668762,464
886.785645,452
886.902344,454
887.019165,467
887.135925,456
887.252747,470
887.369446,441
887.486267,469
887.603027,463
887.719788,457
887.836548,444
887.953247,467
888.070068,443
888.186829,468
888.303528,452
888.420288,468
888.536987,447
888.653687,474
888.770447,457
888.887146,436
889.003967,457
889.120667,436
889.237305,434
889.354065,470
889.470703,476
889.587463,460
889.704163,468
889.820862,463
889.937561,461
890.054199,471
890.170837,461
890.287598,467
890.404236,448
890.520874,473
890.637634,452
890.754211,466
890.87085,452
890.987549,449
891.104187,465
891.220886,456
891.337463,441
891.454102,450
891.57074,442
891.687378,462
891.804077,467
891.920654,477
892.037231,463
892.15387,455
892.270447,461
892.387085,461
892.503723,438
892.6203,466
892.736877,452
892.853516,476
892.970032,471
893.08667,456
893.203186,453
893.319763,471
893.43634,443
893.552917,482
893.669556,453
893.786011,483
893.902588,475
894.019165,449
894.135681,456
894.252197,470
894.368835,466
894.485291,498
894.601868,462
894.718384,467
894.8349,438
894.951355,465
895.067932,449
895.184448,473
895.300964,475
895.417419,451
895.533936,446
895.650452,459
895.766907,471
895.883423,469
895.999878,470
896.116333,471
896.232849,463
896.349304,452
896.465759,466
896.582214,458
896.698669,463
896.815125,469
896.931641,491
897.048035,462
897.164551,448
897.280884,453
897.397339,484
897.513794,464
897.630249,444
897.746582,480
897.863098,450
897.979431,465
898.095886,453
898.212341,450
898.328674,471
898.445129,446
898.561462,463
898.677795,467
898.794312,477
898.910645,451
899.026978,466
899.143433,452
899.259766,470
899.37616,476
899.492493,471
899.608765,486
899.725159,474
899.841553,481
899.957947,446
900.07428,471
900.190552,461
900.306946,455
900.423157,472
900.53949,485
900.655884,456
900.772156,479
900.888489,442
901.004822,470
901.121033,448
901.237366,469
901.353699,475
901.46991,459
901.586304,473
901.702515,462
901.818787,480
901.93512,462
902.051331,461
902.167603,452
902.283875,458
902.400085,475
902.516418,464
902.632629,441
902.74884,469
902.865112,468
902.981384,450
903.097595,467
903.213867,470
903.330017,477
903.446289,462
903.5625,471
903.67865,473
903.794922,462
903.911072,462
904.027344,479
904.143494,451
904.259705,471
904.375916,480
904.492065,490
904.608215,457
904.724426,460
904.840576,452
904.956726,456
905.072876,467
905.189087,466
905.305176,455
905.421387,469
905.537537,458
905.653687,470
905.769775,464
905.885925,470
906.002014,458
906.118164,481
906.234314,475
906.350403,481
906.466492,462
906.582642,470
906.69873,479
906.814758,475
906.930908,464
907.046936,454
907.163086,489
907.279175,459
907.395264,475
907.511353,450
907.62738,470
907.743408,465
907.859497,474
907.975525,469
908.091553,464
908.207703,453
908.32373,475
908.439758,485
908.555786,496
908.671814,467
908.787842,471
908.90387,464
909.019775,475
909.135864,467
909.251892,459
909.367859,463
909.483826,481
909.599854,475
909.715881,484
909.831848,448
909.947815,458
910.063782,475
910.179749,465
910.295776,467
910.411743,466
910.527649,475
910.643616,466
910.759583,485
910.875488,474
910.991455,457
911.107361,465
911.223267,478
911.339294,484
911.4552,463
911.571106,459
911.687073,468
911.802979,492
911.918823,466
912.034729,472
912.150635,462
912.266602,473
912.382446,459
912.498352,463
912.614197,462
912.730103,474
912.846008,500
