792.44574,625
792.56488,648
792.68396,688
792.80304,676
792.92218,597
793.041199,602
793.160339,612
793.279419,623
793.398499,602
793.517578,623
793.636658,603
793.755737,623
793.874817,629
793.993896,611
794.112976,610
794.232056,619
794.351074,586
794.470215,592
794.589233,611
794.708313,603
794.827393,575
794.946411,603
795.065552,620
795.18457,612
795.303589,577
795.422668,586
795.541687,578
795.660767,600
795.779846,575
795.898865,587
796.017883,599
796.136963,564
796.255981,603
796.375061,588
796.49408,596
796.613037,586
796.732117,605
796.851135,580
796.970154,577
797.089233,575
797.208191,601
797.327271,565
797.446228,586
797.565186,571
797.684265,572
797.803223,587
797.922241,591
798.04126,591
798.160278,603
798.279297,557
798.398315,577
798.517273,588
798.636292,594
798.75531,575
798.874268,596
798.993286,581
799.112244,596
799.231323,563
799.350281,577
799.469238,571
799.588257,577
799.707153,583
799.826111,567
799.945129,596
800.064087,581
800.183044,577
800.302063,599
800.421021,559
800.539978,575
800.658936,572
800.777893,584
800.896912,588
801.015747,576
801.134705,584
801.253723,576
801.37262,564
801.491638,597
801.610535,583
801.729492,572
801.84845,572
801.967407,581
802.086243,597
802.205261,582
802.324158,575
802.443115,579
802.562073,588
802.680969,590
802.799927,572
802.918762,605
803.037659,580
803.156677,581
803.275574,599
803.39447,598
803.513428,596
803.632263,601
803.751221,601
803.870117,607
803.989014,598
804.107971,605
804.226746,598
804.345642,603
804.4646,592
804.583496,612
804.702393,607
804.821228,623
804.940125,608
805.059021,600
805.177917,617
805.296814,610
805.415649,608
805.534546,626
805.653442,604
805.772278,597
805.891113,614
806.01001,602
806.128906,605
806.247742,621
806.366577,616
806.485413,617
806.604309,601
806.723145,617
806.84198,613
806.960876,629
807.079712,618
807.198486,596
807.317383,633
807.436218,624
807.554993,628
807.673889,614
807.792725,625
807.91156,620
808.030396,606
808.14917,605
808.268005,599
808.386841,635
808.505676,595
808.624451,640
808.743286,586
808.862122,616
808.980896,641
809.099731,619
809.218506,617
809.337341,629
809.456116,613
809.57489,645
809.693726,612
809.8125,621
809.931274,614
810.050049,657
810.168884,633
810.287659,619
810.406372,617
810.525269,619
810.643982,642
810.762756,636
810.881531,646
811.000305,642
811.11908,632
811.237854,638
811.356567,612
811.475403,636
811.594116,601
811.71283,634
811.831604,624
811.950378,660
812.069153,624
812.187927,613
812.30658,642
812.425415,609
812.544128,635
812.662781,628
812.781616,640
812.900269,624
813.019043,600
813.137756,630
813.256531,632
813.375244,625
813.493896,615
813.612671,630
813.731384,633
813.850037,640
813.96875,646
814.087524,638
814.206238,607
814.324951,635
814.443604,627
814.562256,628
814.68103,618
814.799683,615
814.918335,619
815.037109,630
815.155762,625
815.274475,610
815.393188,606
815.511841,615
815.630554,586
815.749146,589
815.867859,604
815.986572,606
816.105164,627
816.223877,608
816.342529,594
816.461182,613
816.579895,619
816.698486,625
816.817139,614
816.935791,606
817.054504,631
817.173096,623
817.291748,615
817.4104,617
817.529053,586
817.647644,589
817.766235,578
817.884949,573
818.00354,562
818.122192,582
818.240845,541
818.359436,550
818.478088,543
818.59668,547
818.715271,552
818.833923,522
818.952515,518
819.071106,519
819.189758,522
819.30835,511
819.426941,530
819.545532,514
819.664124,492
819.782715,507
819.901306,491
820.019897,504
820.138489,508
820.25708,524
820.375671,493
820.494202,486
820.612732,477
820.731384,489
820.849915,468
820.968506,504
821.087097,500
821.205627,502
821.324158,484
821.442749,511
821.561279,499
821.679871,491
821.798401,500
821.916931,488
822.035461,458
822.154053,485
822.272583,493
822.391174,493
822.509583,489
822.628174,496
822.746704,477
822.865234,487
822.983765,475
823.102295,473
823.220825,483
823.339294,476
823.457825,479
823.576355,495
823.694824,465
823.813354,486
823.931885,474
824.050354,497
824.168884,471
824.287354,487
824.405823,483
824.524353,489
824.642822,475
824.761353,503
824.879822,510
824.998291,487
825.116699,484
825.235291,498
825.353699,481
825.472168,480
825.590637,485
825.709106,500
825.827576,463
825.946045,452
826.064453,467
826.182983,491
826.301392,472
826.4198,466
826.53833,468
826.656738,486
826.775208,465
826.893677,445
827.012024,458
827.130493,466
827.248962,478
827.36731,461
827.485779,460
827.604248,475
827.722595,447
827.841064,464
827.959412,468
828.077942,459
828.196289,484
828.314636,453
828.433105,470
828.551514,445
828.669861,468
828.78833,438
828.906677,475
829.025085,462
829.143433,471
829.261841,462
829.38031,444
829.498657,473
829.617004,471
829.735413,462
829.85376,450
829.972107,463
830.090515,466
830.208862,457
830.327209,474
830.445557,461
830.563904,457
830.682312,449
830.800659,467
830.919006,454
831.037354,447
831.155701,461
831.274048,449
831.392395,456
831.51062,463
831.629028,460
831.747314,464
831.865662,461
831.984009,453
832.102356,464
832.220642,467
832.338928,481
832.457275,448
832.575623,459
832.693909,464
832.812134,460
832.930481,469
833.048828,453
833.167114,453
833.2854,458
833.403687,445
833.521973,458
833.640259,458
833.758545,479
833.876831,449
833.995056,456
834.113281,474
834.231628,456
834.349915,453
834.468201,450
834.586426,436
834.704651,454
834.822998,443
834.941162,462
835.059448,435
835.177673,458
835.295959,433
835.414246,461
835.53241,457
835.650635,454
835.768921,462
835.887146,453
836.005371,456
836.123596,460
836.241821,477
836.360046,486
836.478271,460
836.596497,478
836.714722,485
836.832886,468
836.95105,470
837.069336,487
837.1875,493
837.305725,462
837.423889,476
837.542053,483
837.660339,488
837.778503,475
837.896667,467
838.014832,481
838.132996,473
838.25116,477
838.369385,493
838.487488,488
838.605713,481
838.723877,468
838.84198,457
838.960205,471
839.078308,470
839.196472,445
839.314636,476
839.4328,478
839.550964,447
839.669067,477
839.787231,455
839.905396,465
840.023499,469
840.141602,469
840.259766,482
840.377869,477
840.495972,471
840.614136,462
840.732239,469
840.850342,475
840.968445,441
841.086548,490
841.204651,473
841.322754,442
841.440918,451
841.55896,479
841.677002,467
841.795166,455
841.913208,470
842.031311,452
842.149353,460
842.267456,459
842.385498,451
842.503601,454
842.621643,465
842.739746,453
842.857788,430
842.97583,453
843.093933,450
843.211975,450
843.330017,458
843.44812,471
843.566101,439
843.684204,455
843.802246,437
843.920227,443
844.038269,460
844.156311,469
844.274292,442
844.392395,465
844.510376,443
844.628357,449
844.74646,465
844.864441,449
844.982422,433
845.100403,458
845.218384,453
845.336426,447
845.454468,440
845.572449,442
845.69043,450
845.808411,468
845.926453,442
846.044373,446
846.162354,451
846.280396,454
846.398315,437
846.516296,455
846.634216,454
846.752197,439
846.870178,451
846.988098,459
847.106079,438
847.22406,443
847.34198,442
847.4599,447
847.577881,452
847.695801,451
847.813782,453
847.931641,446
848.049561,458
848.167603,440
848.285461,438
848.403381,434
848.521362,439
848.639221,449
848.75708,462
848.875,442
848.99292,450
849.110901,450
849.22876,459
849.34668,439
849.464539,433
849.582458,459
849.700317,442
849.818176,440
849.936096,468
850.053955,462
850.171875,455
850.289673,450
850.407593,448
850.525452,448
850.643311,452
850.761169,453
850.878967,450
850.996887,448
851.114746,458
851.232544,444
851.350403,444
851.468262,438
851.58606,436
851.703979,438
851.821777,458
851.939636,431
852.057434,435
852.175232,456
852.293091,441
852.410889,452
852.528687,437
852.646545,478
852.764343,446
852.88208,457
852.999939,452
853.117676,466
853.235535,436
853.353271,443
853.471069,460
853.588928,460
853.706604,442
853.824402,445
853.9422,461
854.059998,434
854.177734,451
854.295532,460
854.413269,444
854.531006,447
854.648804,458
854.766541,456
854.884277,446
855.002014,444
855.119751,432
855.237549,456
855.355225,449
855.473022,459
855.590698,469
855.708435,471
855.826172,460
855.943848,454
856.061646,460
856.179321,456
856.296997,468
856.414795,476
856.53241,473
856.650085,465
856.767822,432
856.885559,469
857.003174,443
857.120911,456
857.238586,462
857.356201,455
857.473938,449
857.591614,437
857.709351,468
857.826965,459
857.944641,464
858.062317,443
858.179993,446
858.297668,451
858.415283,459
858.532959,460
858.650574,451
858.768188,457
858.885803,452
859.003479,464
859.121094,433
859.23877,472
859.356384,449
859.473999,446
859.591675,465
859.709229,445
859.826843,455
859.944458,443
860.062012,454
860.179626,448
860.297302,429
860.414856,460
860.532471,442
860.650024,458
860.767639,438
860.885193,446
861.002808,461
861.120361,452
861.237976,452
861.35553,454
861.473022,434
861.590698,438
861.708191,460
861.825745,445
861.943298,457
862.060852,459
862.178406,468
862.295959,450
862.413513,443
862.531006,447
862.64856,454
862.766113,470
862.883667,451
863.00116,458
863.118713,457
863.236206,466
863.353699,452
863.471252,440
863.588745,449
863.706177,443
863.82373,451
863.941162,464
864.058716,458
864.176208,462
864.29364,444
864.411194,464
864.528687,457
864.646118,474
864.763611,443
864.881042,462
864.998535,451
865.116028,453
865.233459,435
865.350891,437
865.468384,471
865.585754,474
865.703308,448
865.820679,458
865.938171,466
866.055542,454
866.173035,463
866.290466,463
866.407837,450
866.52533,455
866.6427,457
866.760071,450
866.877563,457
866.994934,450
867.112305,447
867.229736,450
867.347107,433
867.464539,461
867.58197,439
867.699341,449
867.81665,449
867.934082,435
868.051453,469
868.168823,462
868.286194,463
868.403564,453
868.520935,456
868.638306,446
868.755676,441
868.872986,456
868.990295,453
869.107727,460
869.225037,455
869.342346,450
869.459717,441
869.577026,451
869.694336,463
869.811707,450
869.929016,437
870.046326,468
870.163635,467
870.280945,451
870.398254,457
870.515564,446
870.632812,449
870.750183,458
870.867432,448
870.984741,459
871.102051,459
871.219299,448
871.336609,448
871.453918,442
871.571106,454
871.688416,454
871.805664,469
871.922852,443
872.040222,451
872.157471,457
872.274719,450
872.391968,459
872.509155,456
872.626465,467
872.743652,447
872.860962,466
872.978149,467
873.095337,462
873.212646,435
873.329834,453
873.44696,458
873.564209,449
873.681396,433
873.798645,459
873.915894,449
874.03302,482
874.150208,454
874.267456,446
874.384583,447
874.501831,453
874.618958,434
874.736145,460
874.853333,441
874.970459,455
875.087646,435
875.204834,453
875.32196,431
875.439148,446
875.556274,442
875.673401,472
875.790527,430
875.907715,461
876.024841,446
876.141968,456
876.259094,456
876.376282,428
876.493347,455
876.610474,466
876.7276,443
876.844727,443
876.961853,437
877.078918,458
877.195984,452
877.313171,454
877.430237,437
877.547302,449
877.664368,437
877.781433,442
877.898499,440
878.015625,457
878.13269,432
878.249695,464
878.366821,457
878.483887,453
878.600952,448
878.717957,460
878.834961,447
878.952087,455
879.069092,457
879.186157,474
879.303162,438
879.420227,451
879.537231,441
879.654236,439
879.77124,446
879.888306,456
880.005249,446
880.122314,444
880.239319,462
880.356323,456
880.473328,462
880.590271,467
880.707275,471
880.824341,473
880.941284,462
881.058228,468
881.175232,441
881.292236,463
881.40918,445
881.526123,459
881.643066,459
881.760071,472
881.877014,455
881.993958,453
882.11084,465
882.227783,481
882.344727,452
882.46167,474
882.578613,438
882.695618,456
882.812439,460
882.929382,466
883.046326,446
883.163208,466
883.280151,466
883.397034,428
883.513916,447
883.630798,468
883.747742,435
883.864563,450
883.981506,449
884.098389,464
884.21521,453
884.332153,453
884.448975,458
884.565796,462
884.682678,462
884.7995,438
884.916443,445
885.033264,457
885.150085,447
885.266968,463
885.383789,450
885.500671,455
885.617493,464
885.734314,455
885.851196,479
885.967896,470
886.084717,444
886.201599,455
886.318359,468
886.435181,475
886.552002,457
886.668762,450
886.785645,453
886.902344,447
887.019165,474
887.135925,463
887.252747,446
887.369446,453
887.486267,439
887.603027,480
887.719788,462
887.836548,455
887.953247,457
888.070068,474
888.186829,459
888.303528,459
888.420288,453
888.536987,446
888.653687,443
888.770447,461
888.887146,463
889.003967,449
889.120667,457
889.237305,451
889.354065,448
889.470703,459
889.587463,456
889.704163,456
889.820862,448
889.937561,468
890.054199,449
890.170837,449
890.287598,448
890.404236,462
890.520874,466
890.637634,469
890.754211,464
890.87085,441
890.987549,441
891.104187,462
891.220886,458
891.337463,469
891.454102,478
891.57074,459
891.687378,466
891.804077,465
891.920654,460
892.037231,460
892.15387,445
892.270447,476
892.387085,481
892.503723,451
892.6203,451
892.736877,463
892.853516,468
892.970032,463
893.08667,474
893.203186,462
893.319763,454
893.43634,467
893.552917,437
893.669556,458
893.786011,440
893.902588,465
894.019165,456
894.135681,472
894.252197,459
894.368835,470
894.485291,475
894.601868,458
894.718384,474
894.8349,481
894.951355,478
895.067932,469
895.184448,465
895.300964,456
895.417419,446
895.533936,459
895.650452,455
895.766907,481
895.883423,464
895.999878,444
896.116333,475
896.232849,459
896.349304,453
896.465759,481
896.582214,456
896.698669,453
896.815125,466
896.931641,455
897.048035,453
897.164551,454
897.280884,466
897.397339,448
897.513794,463
897.630249,459
897.746582,455
897.863098,462
897.979431,473
898.095886,467
898.212341,455
898.328674,475
898.445129,468
898.561462,472
898.677795,466
898.794312,469
898.910645,448
899.026978,476
899.143433,453
899.259766,475
899.37616,466
899.492493,467
899.608765,468
899.725159,460
899.841553,465
899.957947,453
900.07428,461
900.190552,485
900.306946,469
900.423157,464
900.53949,479
900.655884,471
900.772156,476
900.888489,477
901.004822,447
901.121033,470
901.237366,457
901.353699,451
901.46991,449
901.586304,457
901.702515,463
901.818787,457
901.93512,457
902.051331,456
902.167603,472
902.283875,451
902.400085,471
902.516418,470
902.632629,466
902.74884,495
902.865112,468
902.981384,449
903.097595,476
903.213867,481
903.330017,455
903.446289,478
903.5625,457
903.67865,483
903.794922,478
903.911072,460
904.027344,456
904.143494,477
904.259705,469
904.375916,472
904.492065,494
904.608215,472
904.724426,473
904.840576,465
904.956726,464
905.072876,467
905.189087,476
905.305176,481
905.421387,467
905.537537,477
905.653687,482
905.769775,491
905.885925,463
906.002014,469
906.118164,448
906.234314,467
906.350403,478
906.466492,463
906.582642,472
906.69873,466
906.814758,455
906.930908,484
907.046936,459
907.163086,455
907.279175,477
907.395264,478
907.511353,475
907.62738,475
907.743408,461
907.859497,476
907.975525,467
908.091553,468
908.207703,461
908.32373,487
908.439758,455
908.555786,488
908.671814,454
908.787842,457
908.90387,482
909.019775,460
909.135864,461
909.251892,468
909.367859,477
909.483826,459
909.599854,445
909.715881,485
909.831848,459
909.947815,458
910.063782,471
910.179749,465
910.295776,479
910.411743,468
910.527649,453
910.643616,488
910.759583,467
910.875488,486
910.991455,483
911.107361,469
911.223267,457
911.339294,471
911.4552,461
911.571106,464
911.687073,450
911.802979,486
911.918823,478
912.034729,488
912.150635,482
912.266602,458
912.382446,470
912.498352,474
912.614197,461
912.730103,476
912.846008,473
792.44574,604
792.56488,646
792.68396,695
792.80304,654
792.92218,611
793.041199,597
793.160339,601
793.279419,628
793.398499,624
793.517578,590
793.636658,601
793.755737,613
793.874817,640
793.993896,617
794.112976,602
794.232056,606
794.351074,596
794.470215,584
794.589233,605
794.708313,599
794.827393,575
794.946411,590
795.065552,607
795.18457,590
795.303589,587
795.422668,576
795.541687,610
795.660767,588
795.779846,600
795.898865,590
796.017883,590
796.136963,580
796.255981,602
796.375061,601
796.49408,602
796.613037,589
796.732117,579
796.851135,566
796.970154,592
797.089233,553
797.208191,584
797.327271,583
797.446228,596
797.565186,581
797.684265,592
797.803223,585
797.922241,594
798.04126,588
798.160278,565
798.279297,586
798.398315,607
798.517273,555
798.636292,597
798.75531,582
798.874268,586
798.993286,597
799.112244,595
799.231323,603
799.350281,583
799.469238,574
799.588257,583
799.707153,575
799.826111,608
799.945129,582
800.064087,584
800.183044,569
800.302063,568
800.421021,585
800.539978,596
800.658936,568
800.777893,569
800.896912,587
801.015747,587
801.134705,583
801.253723,590
801.37262,573
801.491638,586
801.610535,582
801.729492,590
801.84845,600
801.967407,595
802.086243,581
802.205261,574
802.324158,610
802.443115,601
802.562073,579
802.680969,608
802.799927,588
802.918762,596
803.037659,597
803.156677,624
803.275574,604
803.39447,596
803.513428,588
803.632263,595
803.751221,587
803.870117,601
803.989014,589
804.107971,596
804.226746,607
804.345642,595
804.4646,584
804.583496,611
804.702393,609
804.821228,611
804.940125,638
805.059021,607
805.177917,601
805.296814,626
805.415649,622
805.534546,609
805.653442,598
805.772278,628
805.891113,615
806.01001,610
806.128906,615
806.247742,613
806.366577,602
806.485413,605
806.604309,597
806.723145,610
806.84198,616
806.960876,613
807.079712,618
807.198486,624
807.317383,628
807.436218,614
807.554993,605
807.673889,640
807.792725,623
807.91156,635
808.030396,622
808.14917,656
808.268005,608
808.386841,631
808.505676,625
808.624451,634
808.743286,647
808.862122,624
808.980896,612
809.099731,633
809.218506,614
809.337341,612
809.456116,639
809.57489,645
809.693726,633
809.8125,638
809.931274,639
810.050049,636
810.168884,634
810.287659,641
810.406372,621
810.525269,643
810.643982,630
810.762756,649
810.881531,626
811.000305,623
811.11908,629
811.237854,644
811.356567,630
811.475403,603
811.594116,659
811.71283,647
811.831604,614
811.950378,625
812.069153,610
812.187927,654
812.30658,633
812.425415,632
812.544128,630
812.662781,627
812.781616,645
812.900269,626
813.019043,612
813.137756,613
813.256531,623
813.375244,646
813.493896,637
813.612671,633
813.731384,625
813.850037,620
813.96875,645
814.087524,614
814.206238,632
814.324951,612
814.443604,613
814.562256,627
814.68103,611
814.799683,646
814.918335,631
815.037109,641
815.155762,628
815.274475,602
815.393188,634
815.511841,621
815.630554,614
815.749146,631
815.867859,609
815.986572,635
816.105164,585
816.223877,627
816.342529,605
816.461182,597
816.579895,626
816.698486,642
816.817139,622
816.935791,596
817.054504,620
817.173096,643
817.291748,584
817.4104,602
817.529053,605
817.647644,616
817.766235,595
817.884949,570
818.00354,565
818.122192,562
818.240845,570
818.359436,572
818.478088,533
818.59668,553
818.715271,521
818.833923,530
818.952515,551
819.071106,530
819.189758,514
819.30835,545
819.426941,523
819.545532,527
819.664124,498
819.782715,515
819.901306,490
820.019897,495
820.138489,479
820.25708,512
820.375671,487
820.494202,497
820.612732,496
820.731384,481
820.849915,491
820.968506,500
821.087097,482
821.205627,500
821.324158,478
821.442749,484
821.561279,489
821.679871,483
821.798401,482
821.916931,514
822.035461,468
822.154053,488
822.272583,471
822.391174,509
822.509583,480
822.628174,494
822.746704,479
822.865234,468
822.983765,484
823.102295,504
823.220825,494
823.339294,494
823.457825,483
823.576355,480
823.694824,491
823.813354,483
823.931885,486
824.050354,497
824.168884,502
824.287354,483
824.405823,470
824.524353,508
824.642822,498
824.761353,495
824.879822,479
824.998291,486
825.116699,476
825.235291,501
825.353699,478
825.472168,485
825.590637,484
825.709106,492
825.827576,493
825.946045,465
826.064453,480
826.182983,496
826.301392,489
826.4198,487
826.53833,480
826.656738,476
826.775208,463
826.893677,462
827.012024,473
827.130493,474
827.248962,437
827.36731,459
827.485779,492
827.604248,464
827.722595,481
827.841064,486
827.959412,451
828.077942,458
828.196289,462
828.314636,473
828.433105,456
828.551514,448
828.669861,463
828.78833,457
828.906677,467
829.025085,469
829.143433,465
829.261841,483
829.38031,452
829.498657,467
829.617004,457
829.735413,466
829.85376,452
829.972107,461
830.090515,470
830.208862,483
830.327209,445
830.445557,465
830.563904,479
830.682312,461
830.800659,477
830.919006,448
831.037354,447
831.155701,470
831.274048,462
831.392395,479
831.51062,442
831.629028,448
831.747314,464
831.865662,464
831.984009,455
832.102356,451
832.220642,454
832.338928,468
832.457275,444
832.575623,475
832.693909,482
832.812134,456
832.930481,463
833.048828,453
833.167114,459
833.2854,463
833.403687,444
833.521973,465
833.640259,439
833.758545,465
833.876831,451
833.995056,466
834.113281,448
834.231628,472
834.349915,464
834.468201,465
834.586426,455
834.704651,453
834.822998,461
834.941162,470
835.059448,458
835.177673,458
835.295959,452
835.414246,464
835.53241,452
835.650635,456
835.768921,454
835.887146,475
836.005371,462
836.123596,480
836.241821,452
836.360046,461
836.478271,490
836.596497,455
836.714722,465
836.832886,474
836.95105,478
837.069336,484
837.1875,465
837.305725,458
837.423889,490
837.542053,477
837.660339,469
837.778503,481
837.896667,472
838.014832,476
838.132996,465
838.25116,474
838.369385,463
838.487488,480
838.605713,469
838.723877,503
838.84198,465
838.960205,487
839.078308,481
839.196472,463
839.314636,483
839.4328,446
839.550964,468
839.669067,481
839.787231,466
839.905396,479
840.023499,445
840.141602,484
840.259766,476
840.377869,470
840.495972,431
840.614136,467
840.732239,460
840.850342,483
840.968445,456
841.086548,454
841.204651,465
841.322754,483
841.440918,448
841.55896,429
841.677002,446
841.795166,461
841.913208,441
842.031311,455
842.149353,456
842.267456,449
842.385498,439
842.503601,448
842.621643,447
842.739746,451
842.857788,459
842.97583,436
843.093933,437
843.211975,456
843.330017,443
843.44812,476
843.566101,446
843.684204,449
843.802246,449
843.920227,455
844.038269,450
844.156311,451
844.274292,457
844.392395,465
844.510376,428
844.628357,456
844.74646,476
844.864441,461
844.982422,438
845.100403,443
845.218384,454
845.336426,461
845.454468,462
845.572449,449
845.69043,445
845.808411,442
845.926453,458
846.044373,460
846.162354,464
846.280396,445
846.398315,443
846.516296,441
846.634216,443
846.752197,443
846.870178,445
846.988098,460
847.106079,443
847.22406,465
847.34198,456
847.4599,458
847.577881,442
847.695801,456
847.813782,438
847.931641,453
848.049561,451
848.167603,451
848.285461,438
848.403381,461
848.521362,431
848.639221,448
848.75708,450
848.875,434
848.99292,452
849.110901,451
849.22876,467
849.34668,454
849.464539,440
849.582458,449
849.700317,456
849.818176,448
849.936096,438
850.053955,470
850.171875,435
850.289673,474
850.407593,449
850.525452,437
850.643311,436
850.761169,460
850.878967,444
850.996887,455
851.114746,443
851.232544,459
851.350403,458
851.468262,463
851.58606,450
851.703979,442
851.821777,443
851.939636,446
852.057434,435
852.175232,444
852.293091,454
852.410889,469
852.528687,445
852.646545,477
852.764343,456
852.88208,472
852.999939,445
853.117676,439
853.235535,455
853.353271,451
853.471069,445
853.588928,454
853.706604,454
853.824402,458
853.9422,453
854.059998,453
854.177734,469
854.295532,454
854.413269,450
854.531006,459
854.648804,450
854.766541,451
854.884277,473
855.002014,469
855.119751,449
855.237549,460
855.355225,438
855.473022,462
855.590698,470
855.708435,452
855.826172,458
855.943848,449
856.061646,451
856.179321,462
856.296997,445
856.414795,450
856.53241,449
856.650085,443
856.767822,458
856.885559,449
857.003174,455
857.120911,461
857.238586,450
857.356201,445
857.473938,456
857.591614,460
857.709351,478
857.826965,460
857.944641,462
858.062317,469
858.179993,460
858.297668,477
858.415283,459
858.532959,461
858.650574,442
858.768188,460
858.885803,469
859.003479,470
859.121094,450
859.23877,451
859.356384,460
859.473999,454
859.591675,476
859.709229,467
859.826843,450
859.944458,455
860.062012,459
860.179626,465
860.297302,452
860.414856,459
860.532471,456
860.650024,467
860.767639,445
860.885193,430
861.002808,466
861.120361,459
861.237976,442
861.35553,473
861.473022,450
861.590698,452
861.708191,453
861.825745,461
861.943298,467
862.060852,457
862.178406,467
862.295959,439
862.413513,463
862.531006,457
862.64856,445
862.766113,450
862.883667,452
863.00116,446
863.118713,462
863.236206,465
863.353699,455
863.471252,449
863.588745,440
863.706177,465
863.82373,435
863.941162,451
864.058716,456
864.176208,452
864.29364,439
864.411194,447
864.528687,448
864.646118,458
864.763611,459
864.881042,462
864.998535,448
865.116028,475
865.233459,451
865.350891,444
865.468384,472
865.585754,470
865.703308,452
865.820679,461
865.938171,445
866.055542,453
866.173035,453
866.290466,444
866.407837,466
866.52533,454
866.6427,468
866.760071,455
866.877563,441
866.994934,455
867.112305,444
867.229736,445
867.347107,441
867.464539,455
867.58197,463
867.699341,438
867.81665,423
867.934082,467
868.051453,459
868.168823,466
868.286194,453
868.403564,465
868.520935,462
868.638306,440
868.755676,451
868.872986,444
868.990295,443
869.107727,472
869.225037,441
869.342346,454
869.459717,452
869.577026,463
869.694336,468
869.811707,435
869.929016,452
870.046326,448
870.163635,466
870.280945,457
870.398254,454
870.515564,467
870.632812,456
870.750183,457
870.867432,439
870.984741,445
871.102051,466
871.219299,469
871.336609,462
871.453918,460
871.571106,460
871.688416,445
871.805664,463
871.922852,461
872.040222,433
872.157471,468
872.274719,444
872.391968,458
872.509155,460
872.626465,451
872.743652,436
872.860962,456
872.978149,429
873.095337,453
873.212646,457
873.329834,458
873.44696,440
873.564209,460
873.681396,452
873.798645,462
873.915894,447
874.03302,451
874.150208,465
874.267456,456
874.384583,435
874.501831,454
874.618958,445
874.736145,456
874.853333,458
874.970459,444
875.087646,449
875.204834,448
875.32196,453
875.439148,466
875.556274,454
875.673401,449
875.790527,445
875.907715,461
876.024841,458
876.141968,456
876.259094,455
876.376282,444
876.493347,456
876.610474,456
876.7276,450
876.844727,436
876.961853,472
877.078918,459
877.195984,456
877.313171,479
877.430237,438
877.547302,443
877.664368,441
877.781433,458
877.898499,449
878.015625,462
878.13269,451
878.249695,463
878.366821,447
878.483887,449
878.600952,456
878.717957,451
878.834961,450
878.952087,465
879.069092,438
879.186157,465
879.303162,444
879.420227,460
879.537231,448
879.654236,452
879.77124,451
879.888306,460
880.005249,455
880.122314,473
880.239319,444
880.356323,435
880.473328,448
880.590271,462
880.707275,469
880.824341,453
880.941284,436
881.058228,468
881.175232,452
881.292236,464
881.40918,443
881.526123,433
881.643066,438
881.760071,457
881.877014,470
881.993958,446
882.11084,448
882.227783,464
882.344727,450
882.46167,452
882.578613,475
882.695618,462
882.812439,462
882.929382,449
883.046326,452
883.163208,453
883.280151,431
883.397034,451
883.513916,454
883.630798,463
883.747742,458
883.864563,454
883.981506,452
884.098389,444
884.21521,449
884.332153,448
884.448975,423
884.565796,452
884.682678,462
884.7995,464
884.916443,471
885.033264,455
885.150085,460
885.266968,466
885.383789,451
885.500671,455
885.617493,436
885.734314,462
885.851196,451
885.967896,455
886.084717,450
886.201599,464
886.318359,456
886.435181,475
886.552002,466
886.668762,468
886.785645,454
886.902344,461
887.019165,468
887.135925,464
887.252747,459
887.369446,455
887.486267,461
887.603027,463
887.719788,477
887.836548,476
887.953247,465
888.070068,461
888.186829,454
888.303528,470
888.420288,455
888.536987,465
888.653687,462
888.770447,456
888.887146,460
889.003967,455
889.120667,459
889.237305,454
889.354065,466
889.470703,453
889.587463,460
889.704163,460
889.820862,453
889.937561,461
890.054199,451
890.170837,479
890.287598,450
890.404236,456
890.520874,459
890.637634,454
890.754211,456
890.87085,445
890.987549,474
891.104187,460
891.220886,465
891.337463,474
891.454102,468
891.57074,443
891.687378,453
891.804077,455
891.920654,462
892.037231,451
892.15387,443
892.270447,454
892.387085,456
892.503723,481
892.6203,450
892.736877,474
892.853516,455
892.970032,466
893.08667,469
893.203186,469
893.319763,451
893.43634,446
893.552917,462
893.669556,457
893.786011,453
893.902588,463
894.019165,451
894.135681,469
894.252197,458
894.368835,474
894.485291,474
894.601868,468
894.718384,452
894.8349,471
894.951355,462
895.067932,448
895.184448,482
895.300964,484
895.417419,466
895.533936,467
895.650452,475
895.766907,465
895.883423,464
895.999878,476
896.116333,455
896.232849,470
896.349304,435
896.465759,457
896.582214,452
896.698669,462
896.815125,441
896.931641,445
897.048035,455
897.164551,454
897.280884,453
897.397339,468
897.513794,457
897.630249,464
897.746582,477
897.863098,472
897.979431,469
898.095886,470
898.212341,447
898.328674,458
898.445129,473
898.561462,465
898.677795,449
898.794312,456
898.910645,457
899.026978,470
899.143433,460
899.259766,472
899.37616,469
899.492493,484
899.608765,461
899.725159,454
899.841553,443
899.957947,471
900.07428,443
900.190552,449
900.306946,464
900.423157,480
900.53949,447
900.655884,484
900.772156,461
900.888489,481
901.004822,460
901.121033,465
901.237366,449
901.353699,481
901.46991,468
901.586304,464
901.702515,463
901.818787,476
901.93512,480
902.051331,473
902.167603,468
902.283875,475
902.400085,466
902.516418,462
902.632629,471
902.74884,469
902.865112,445
902.981384,460
903.097595,459
903.213867,464
903.330017,469
903.446289,467
903.5625,460
903.67865,475
903.794922,482
903.911072,466
904.027344,456
904.143494,470
904.259705,451
904.375916,480
904.492065,471
904.608215,477
904.724426,453
904.840576,471
904.956726,451
905.072876,472
905.189087,477
905.305176,475
905.421387,460
905.537537,473
905.653687,452
905.769775,480
905.885925,468
906.002014,479
906.118164,463
906.234314,471
906.350403,457
906.466492,468
906.582642,440
906.69873,488
906.814758,458
906.930908,455
907.046936,462
907.163086,476
907.279175,470
907.395264,462
907.511353,452
907.62738,479
907.743408,471
907.859497,464
907.975525,447
908.091553,472
908.207703,472
908.32373,472
908.439758,474
908.555786,466
908.671814,460
908.787842,467
908.90387,470
909.019775,469
909.135864,476
909.251892,478
909.367859,485
909.483826,463
909.599854,464
909.715881,461
909.831848,495
909.947815,470
910.063782,461
910.179749,464
910.295776,471
910.411743,442
910.527649,468
910.643616,479
910.759583,486
910.875488,485
910.991455,480
911.107361,463
911.223267,468
911.339294,479
911.4552,466
911.571106,474
911.687073,458
911.802979,473
911.918823,469
912.034729,490
912.150635,477
912.266602,465
912.382446,477
912.498352,485
912.614197,453
912.730103,494
912.846008,473
792.44574,615
792.56488,660
792.68396,708
792.80304,661
792.92218,608
793.041199,615
793.160339,606
793.279419,608
793.398499,611
793.517578,600
793.636658,584
793.755737,598
793.874817,617
793.993896,626
794.112976,613
794.232056,597
794.351074,594
794.470215,578
794.589233,589
794.708313,588
794.827393,597
794.946411,590
795.065552,589
795.18457,595
795.303589,609
795.422668,582
795.541687,614
795.660767,609
795.779846,600
795.898865,565
796.017883,580
796.136963,590
796.255981,602
796.375061,585
796.49408,574
796.613037,565
796.732117,579
796.851135,575
796.970154,581
797.089233,590
797.208191,569
797.327271,587
797.446228,624
797.565186,570
797.684265,589
797.803223,577
797.922241,591
798.04126,586
798.160278,580
798.279297,585
798.398315,577
798.517273,576
798.636292,582
798.75531,603
798.874268,593
798.993286,579
799.112244,569
799.231323,583
799.350281,557
799.469238,591
799.588257,585
799.707153,579
799.826111,572
799.945129,582
800.064087,610
800.183044,572
800.302063,612
800.421021,588
800.539978,583
800.658936,580
800.777893,593
800.896912,560
801.015747,582
801.134705,601
801.253723,590
801.37262,588
801.491638,601
801.610535,564
801.729492,585
801.84845,593
801.967407,614
802.086243,592
802.205261,596
802.324158,612
802.443115,588
802.562073,603
802.680969,594
802.799927,604
802.918762,596
803.037659,584
803.156677,594
803.275574,580
803.39447,631
803.513428,585
803.632263,605
803.751221,605
803.870117,598
803.989014,602
804.107971,573
804.226746,595
804.345642,598
804.4646,604
804.583496,591
804.702393,586
804.821228,618
804.940125,617
805.059021,599
805.177917,605
805.296814,603
805.415649,597
805.534546,621
805.653442,606
805.772278,631
805.891113,598
806.01001,607
806.128906,604
806.247742,620
806.366577,628
806.485413,608
806.604309,599
806.723145,624
806.84198,604
806.960876,630
807.079712,605
807.198486,606
807.317383,607
807.436218,612
807.554993,619
807.673889,620
807.792725,613
807.91156,627
808.030396,641
808.14917,623
808.268005,618
808.386841,629
808.505676,601
808.624451,633
808.743286,633
808.862122,620
808.980896,628
809.099731,635
809.218506,620
809.337341,630
809.456116,615
809.57489,609
809.693726,624
809.8125,618
809.931274,636
810.050049,630
810.168884,603
810.287659,618
810.406372,618
810.525269,641
810.643982,646
810.762756,623
810.881531,625
811.000305,639
811.11908,641
811.237854,645
811.356567,648
811.475403,622
811.594116,608
811.71283,644
811.831604,652
811.950378,645
812.069153,629
812.187927,654
812.30658,621
812.425415,617
812.544128,601
812.662781,641
812.781616,624
812.900269,645
813.019043,631
813.137756,657
813.256531,635
813.375244,634
813.493896,661
813.612671,627
813.731384,625
813.850037,643
813.96875,635
814.087524,652
814.206238,621
814.324951,637
814.443604,627
814.562256,632
814.68103,633
814.799683,613
814.918335,636
815.037109,656
815.155762,643
815.274475,629
815.393188,624
815.511841,628
815.630554,610
815.749146,605
815.867859,616
815.986572,640
816.105164,618
816.223877,605
816.342529,632
816.461182,624
816.579895,625
816.698486,601
816.817139,607
816.935791,637
817.054504,636
817.173096,625
817.291748,641
817.4104,615
817.529053,595
817.647644,625
817.766235,593
817.884949,577
818.00354,558
818.122192,576
818.240845,580
818.359436,535
818.478088,535
818.59668,560
818.715271,535
818.833923,525
818.952515,553
819.071106,526
819.189758,534
819.30835,523
819.426941,501
819.545532,527
819.664124,500
819.782715,503
819.901306,514
820.019897,502
820.138489,498
820.25708,496
820.375671,493
820.494202,498
820.612732,491
820.731384,504
820.849915,501
820.968506,494
821.087097,486
821.205627,485
821.324158,485
821.442749,480
821.561279,496
821.679871,500
821.798401,492
821.916931,492
822.035461,474
822.154053,490
822.272583,472
822.391174,498
822.509583,477
822.628174,497
822.746704,498
822.865234,479
822.983765,485
823.102295,479
823.220825,484
823.339294,494
823.457825,485
823.576355,499
823.694824,488
823.813354,476
823.931885,484
824.050354,493
824.168884,487
824.287354,486
824.405823,480
824.524353,501
824.642822,513
824.761353,479
824.879822,482
824.998291,486
825.116699,500
825.235291,483
825.353699,476
825.472168,462
825.590637,478
825.709106,474
825.827576,487
825.946045,483
826.064453,489
826.182983,489
826.301392,460
826.4198,458
826.53833,472
826.656738,480
826.775208,453
826.893677,478
827.012024,471
827.130493,469
827.248962,483
827.36731,465
827.485779,461
827.604248,461
827.722595,459
827.841064,464
827.959412,476
828.077942,457
828.196289,467
828.314636,458
828.433105,475
828.551514,456
828.669861,467
828.78833,468
828.906677,434
829.025085,464
829.143433,449
829.261841,461
829.38031,466
829.498657,452
829.617004,466
829.735413,462
829.85376,462
829.972107,442
830.090515,467
830.208862,454
830.327209,448
830.445557,474
830.563904,474
830.682312,470
830.800659,445
830.919006,467
831.037354,466
831.155701,455
831.274048,462
831.392395,474
831.51062,469
831.629028,468
831.747314,451
831.865662,438
831.984009,453
832.102356,465
832.220642,430
832.338928,476
832.457275,454
832.575623,464
832.693909,463
832.812134,474
832.930481,448
833.048828,455
833.167114,470
833.2854,472
833.403687,477
833.521973,462
833.640259,452
833.758545,449
833.876831,462
833.995056,448
834.113281,454
834.231628,471
834.349915,473
834.468201,472
834.586426,451
834.704651,459
834.822998,468
834.941162,462
835.059448,460
835.177673,458
835.295959,455
835.414246,467
835.53241,467
835.650635,482
835.768921,478
835.887146,466
836.005371,458
836.123596,477
836.241821,452
836.360046,489
836.478271,461
836.596497,463
836.714722,468
836.832886,464
836.95105,485
837.069336,474
837.1875,465
837.305725,475
837.423889,477
837.542053,466
837.660339,459
837.778503,471
837.896667,486
838.014832,500
838.132996,473
838.25116,487
838.369385,473
838.487488,479
838.605713,466
838.723877,469
838.84198,471
838.960205,481
839.078308,481
839.196472,480
839.314636,487
839.4328,474
839.550964,474
839.669067,474
839.787231,471
839.905396,457
840.023499,486
840.141602,471
840.259766,474
840.377869,473
840.495972,471
840.614136,473
840.732239,462
840.850342,488
840.968445,462
841.086548,471
841.204651,481
841.322754,471
841.440918,471
841.55896,466
841.677002,467
841.795166,473
841.913208,468
842.031311,478
842.149353,477
842.267456,474
842.385498,469
842.503601,454
842.621643,459
842.739746,453
842.857788,461
842.97583,456
843.093933,461
843.211975,458
843.330017,440
843.44812,450
843.566101,456
843.684204,470
843.802246,445
843.920227,461
844.038269,439
844.156311,446
844.274292,453
844.392395,442
844.510376,442
844.628357,462
844.74646,461
844.864441,469
844.982422,447
845.100403,466
845.218384,440
845.336426,453
845.454468,450
845.572449,466
845.69043,450
845.808411,455
845.926453,446
846.044373,456
846.162354,452
846.280396,452
846.398315,467
846.516296,454
846.634216,455
846.752197,446
846.870178,444
846.988098,463
847.106079,440
847.22406,466
847.34198,462
847.4599,441
847.577881,454
847.695801,453
847.813782,445
847.931641,467
848.049561,437
848.167603,442
848.285461,455
848.403381,461
848.521362,450
848.639221,462
848.75708,470
848.875,450
848.99292,459
849.110901,448
849.22876,434
849.34668,454
849.464539,457
849.582458,452
849.700317,439
849.818176,459
849.936096,444
850.053955,443
850.171875,452
850.289673,470
850.407593,458
850.525452,454
850.643311,440
850.761169,441
850.878967,446
850.996887,453
851.114746,445
851.232544,446
851.350403,452
851.468262,465
851.58606,455
851.703979,437
851.821777,448
851.939636,454
852.057434,464
852.175232,476
852.293091,428
852.410889,459
852.528687,448
852.646545,446
852.764343,449
852.88208,441
852.999939,459
853.117676,463
853.235535,445
853.353271,427
853.471069,457
853.588928,456
853.706604,460
853.824402,452
853.9422,446
854.059998,464
854.177734,439
854.295532,452
854.413269,467
854.531006,446
854.648804,466
854.766541,459
854.884277,462
855.002014,460
855.119751,440
855.237549,441
855.355225,451
855.473022,479
855.590698,447
855.708435,457
855.826172,455
855.943848,451
856.061646,453
856.179321,455
856.296997,449
856.414795,460
856.53241,448
856.650085,479
856.767822,447
856.885559,455
857.003174,475
857.120911,459
857.238586,456
857.356201,468
857.473938,456
857.591614,449
857.709351,459
857.826965,451
857.944641,467
858.062317,451
858.179993,464
858.297668,457
858.415283,451
858.532959,448
858.650574,470
858.768188,457
858.885803,454
859.003479,460
859.121094,446
859.23877,445
859.356384,432
859.473999,473
859.591675,437
859.709229,464
859.826843,447
859.944458,436
860.062012,450
860.179626,454
860.297302,448
860.414856,457
860.532471,455
860.650024,446
860.767639,447
860.885193,462
861.002808,440
861.120361,455
861.237976,440
861.35553,458
861.473022,448
861.590698,466
861.708191,462
861.825745,469
861.943298,429
862.060852,451
862.178406,439
862.295959,467
862.413513,463
862.531006,469
862.64856,446
862.766113,444
862.883667,433
863.00116,446
863.118713,446
863.236206,454
863.353699,446
863.471252,460
863.588745,445
863.706177,459
863.82373,447
863.941162,454
864.058716,462
864.176208,455
864.29364,453
864.411194,450
864.528687,455
864.646118,461
864.763611,442
864.881042,471
864.998535,458
865.116028,459
865.233459,459
865.350891,453
865.468384,454
865.585754,464
865.703308,456
865.820679,458
865.938171,441
866.055542,459
866.173035,433
866.290466,469
866.407837,431
866.52533,464
866.6427,463
866.760071,453
866.877563,459
866.994934,463
867.112305,468
867.229736,466
867.347107,449
867.464539,457
867.58197,461
867.699341,461
867.81665,438
867.934082,451
868.051453,453
868.168823,453
868.286194,460
868.403564,450
868.520935,466
868.638306,457
868.755676,449
868.872986,447
868.990295,444
869.107727,460
869.225037,447
869.342346,464
869.459717,438
869.577026,456
869.694336,462
869.811707,476
869.929016,450
870.046326,449
870.163635,458
870.280945,449
870.398254,441
870.515564,442
870.632812,449
870.750183,460
870.867432,462
870.984741,463
871.102051,445
871.219299,463
871.336609,443
871.453918,468
871.571106,446
871.688416,452
871.805664,453
871.922852,434
872.040222,460
872.157471,471
872.274719,461
872.391968,464
872.509155,478
872.626465,445
872.743652,431
872.860962,455
872.978149,434
873.095337,453
873.212646,436
873.329834,456
873.44696,448
873.564209,442
873.681396,449
873.798645,459
873.915894,464
874.03302,462
874.150208,443
874.267456,459
874.384583,452
874.501831,443
874.618958,461
874.736145,456
874.853333,445
874.970459,466
875.087646,446
875.204834,451
875.32196,444
875.439148,478
875.556274,451
875.673401,450
875.790527,471
875.907715,447
876.024841,475
876.141968,456
876.259094,427
876.376282,462
876.493347,471
876.610474,458
876.7276,460
876.844727,455
876.961853,456
877.078918,454
877.195984,433
877.313171,437
877.430237,455
877.547302,452
877.664368,436
877.781433,463
877.898499,426
878.015625,444
878.13269,480
878.249695,445
878.366821,440
878.483887,452
878.600952,452
878.717957,441
878.834961,441
878.952087,465
879.069092,463
879.186157,458
879.303162,451
879.420227,471
879.537231,443
879.654236,462
879.77124,459
879.888306,456
880.005249,444
880.122314,464
880.239319,454
880.356323,456
880.473328,427
880.590271,433
880.707275,455
880.824341,446
880.941284,460
881.058228,442
881.175232,443
881.292236,446
881.40918,448
881.526123,457
881.643066,441
881.760071,445
881.877014,459
881.993958,445
882.11084,453
882.227783,455
882.344727,459
882.46167,450
882.578613,467
882.695618,478
882.812439,457
882.929382,462
883.046326,455
883.163208,470
883.280151,442
883.397034,437
883.513916,461
883.630798,445
883.747742,464
883.864563,460
883.981506,462
884.098389,466
884.21521,449
884.332153,462
884.448975,458
884.565796,446
884.682678,468
884.7995,466
884.916443,463
885.033264,460
885.150085,447
885.266968,466
885.383789,452
885.500671,453
885.617493,445
885.734314,475
885.851196,465
885.967896,456
886.084717,455
886.201599,452
886.318359,470
886.435181,486
886.552002,439
886.668762,456
886.785645,461
886.902344,465
887.019165,444
887.135925,457
887.252747,457
887.369446,460
887.486267,452
887.603027,457
887.719788,472
887.836548,462
887.953247,465
888.070068,476
888.186829,470
888.303528,465
888.420288,465
888.536987,479
888.653687,450
888.770447,464
888.887146,480
889.003967,468
889.120667,431
889.237305,455
889.354065,474
889.470703,476
889.587463,458
889.704163,460
889.820862,458
889.937561,470
890.054199,455
890.170837,465
890.287598,472
890.404236,462
890.520874,436
890.637634,461
890.754211,455
890.87085,452
890.987549,477
891.104187,456
891.220886,441
891.337463,491
891.454102,473
891.57074,473
891.687378,469
891.804077,458
891.920654,446
892.037231,463
892.15387,454
892.270447,460
892.387085,443
892.503723,468
892.6203,456
892.736877,466
892.853516,451
892.970032,478
893.08667,455
893.203186,476
893.319763,463
893.43634,469
893.552917,453
893.669556,474
893.786011,467
893.902588,471
894.019165,463
894.135681,459
894.252197,460
894.368835,477
894.485291,452
894.601868,460
894.718384,466
894.8349,470
894.951355,456
895.067932,467
895.184448,447
895.300964,454
895.417419,457
895.533936,460
895.650452,473
895.766907,480
895.883423,464
895.999878,481
896.116333,463
896.232849,470
896.349304,476
896.465759,476
896.582214,452
896.698669,457
896.815125,448
896.931641,461
897.048035,464
897.164551,470
897.280884,453
897.397339,454
897.513794,488
897.630249,482
897.746582,460
897.863098,474
897.979431,459
898.095886,477
898.212341,459
898.328674,471
898.445129,457
898.561462,457
898.677795,462
898.794312,474
898.910645,456
899.026978,471
899.143433,464
899.259766,479
899.37616,450
899.492493,478
899.608765,467
899.725159,486
899.841553,453
899.957947,468
900.07428,480
900.190552,462
900.306946,472
900.423157,444
900.53949,462
900.655884,497
900.772156,476
900.888489,454
901.004822,454
901.121033,455
901.237366,451
901.353699,460
901.46991,470
901.586304,475
901.702515,465
901.818787,472
901.93512,461
902.051331,466
902.167603,448
902.283875,471
902.400085,482
902.516418,460
902.632629,451
902.74884,473
902.865112,472
902.981384,468
903.097595,460
903.213867,466
903.330017,466
903.446289,481
903.5625,470
903.67865,467
903.794922,456
903.911072,459
904.027344,491
904.143494,484
904.259705,461
904.375916,489
904.492065,480
904.608215,476
904.724426,482
904.840576,461
904.956726,458
905.072876,491
905.189087,473
905.305176,458
905.421387,440
905.537537,465
905.653687,471
905.769775,483
905.885925,476
906.002014,465
906.118164,475
906.234314,487
906.350403,450
906.466492,468
906.582642,476
906.69873,464
906.814758,461
906.930908,484
907.046936,449
907.163086,468
907.279175,472
907.395264,472
907.511353,473
907.62738,469
907.743408,474
907.859497,453
907.975525,466
908.091553,485
908.207703,469
908.32373,459
908.439758,472
908.555786,482
908.671814,475
908.787842,483
908.90387,477
909.019775,490
909.135864,464
909.251892,451
909.367859,461
909.483826,456
909.599854,464
909.715881,481
909.831848,484
909.947815,483
910.063782,485
910.179749,460
910.295776,461
910.411743,492
910.527649,485
910.643616,479
910.759583,467
910.875488,464
910.991455,488
911.107361,474
911.223267,455
911.339294,496
911.4552,468
911.571106,471
911.687073,462
911.802979,480
911.918823,463
912.034729,470
912.150635,445
912.266602,473
912.382446,461
912.498352,467
912.614197,471
912.730103,487
912.846008,469
