792.44574,621
792.56488,655
792.68396,696
792.80304,668
792.92218,631
793.041199,620
793.160339,607
793.279419,637
793.398499,606
793.517578,588
793.636658,638
793.755737,629
793.874817,602
793.993896,596
794.112976,587
794.232056,618
794.351074,602
794.470215,599
794.589233,586
794.708313,595
794.827393,582
794.946411,600
795.065552,612
795.18457,598
795.303589,580
795.422668,608
795.541687,576
795.660767,595
795.779846,600
795.898865,576
796.017883,589
796.136963,603
796.255981,601
796.375061,604
796.49408,583
796.613037,584
796.732117,573
796.851135,610
796.970154,593
797.089233,564
797.208191,569
797.327271,580
797.446228,565
797.565186,589
797.684265,583
797.803223,595
797.922241,581
798.04126,595
798.160278,588
798.279297,555
798.398315,552
798.517273,577
798.636292,571
798.75531,579
798.874268,555
798.993286,581
799.112244,576
799.231323,598
799.350281,571
799.469238,598
799.588257,567
799.707153,593
799.826111,564
799.945129,577
800.064087,585
800.183044,586
800.302063,579
800.421021,565
800.539978,568
800.658936,570
800.777893,547
800.896912,575
801.015747,583
801.134705,561
801.253723,565
801.37262,566
801.491638,582
801.610535,582
801.729492,563
801.84845,565
801.967407,577
802.086243,591
802.205261,580
802.324158,584
802.443115,604
802.562073,601
802.680969,582
802.799927,619
802.918762,602
803.037659,581
803.156677,598
803.275574,597
803.39447,600
803.513428,589
803.632263,601
803.751221,600
803.870117,596
803.989014,592
804.107971,607
804.226746,601
804.345642,603
804.4646,610
804.583496,602
804.702393,596
804.821228,593
804.940125,597
805.059021,602
805.177917,628
805.296814,633
805.415649,611
805.534546,613
805.653442,625
805.772278,592
805.891113,597
806.01001,616
806.128906,612
806.247742,605
806.366577,609
806.485413,588
806.604309,599
806.723145,613
806.84198,619
806.960876,600
807.079712,626
807.198486,599
807.317383,643
807.436218,607
807.554993,634
807.673889,603
807.792725,617
807.91156,616
808.030396,611
808.14917,611
808.268005,627
808.386841,598
808.505676,615
808.624451,608
808.743286,610
808.862122,636
808.980896,614
809.099731,601
809.218506,628
809.337341,614
809.456116,647
809.57489,617
809.693726,609
809.8125,641
809.931274,644
810.050049,606
810.168884,622
810.287659,636
810.406372,598
810.525269,628
810.643982,607
810.762756,622
810.881531,636
811.000305,641
811.11908,620
811.237854,633
811.356567,627
811.475403,627
811.594116,638
811.71283,628
811.831604,640
811.950378,609
812.069153,638
812.187927,628
812.30658,634
812.425415,648
812.544128,623
812.662781,644
812.781616,658
812.900269,635
813.019043,631
813.137756,634
813.256531,636
813.375244,612
813.493896,647
813.612671,614
813.731384,626
813.850037,632
813.96875,635
814.087524,630
814.206238,632
814.324951,624
814.443604,633
814.562256,610
814.68103,644
814.799683,616
814.918335,623
815.037109,642
815.155762,622
815.274475,629
815.393188,613
815.511841,611
815.630554,609
815.749146,620
815.867859,599
815.986572,607
816.105164,601
816.223877,609
816.342529,606
816.461182,629
816.579895,612
816.698486,605
816.817139,642
816.935791,631
817.054504,618
817.173096,607
817.291748,594
817.4104,620
817.529053,600
817.647644,605
817.766235,581
817.884949,589
818.00354,593
818.122192,572
818.240845,576
818.359436,549
818.478088,558
818.59668,517
818.715271,544
818.833923,527
818.952515,517
819.071106,521
819.189758,508
819.30835,510
819.426941,541
819.545532,510
819.664124,543
819.782715,483
819.901306,500
820.019897,483
820.138489,500
820.25708,482
820.375671,486
820.494202,520
820.612732,492
820.731384,487
820.849915,492
820.968506,495
821.087097,511
821.205627,497
821.324158,489
821.442749,500
821.561279,494
821.679871,488
821.798401,479
821.916931,494
822.035461,498
822.154053,491
822.272583,470
822.391174,474
822.509583,465
822.628174,460
822.746704,484
822.865234,488
822.983765,471
823.102295,492
823.220825,493
823.339294,510
823.457825,472
823.576355,476
823.694824,489
823.813354,505
823.931885,483
824.050354,479
824.168884,498
824.287354,494
824.405823,479
824.524353,479
824.642822,501
824.761353,500
824.879822,493
824.998291,486
825.116699,487
825.235291,502
825.353699,477
825.472168,476
825.590637,471
825.709106,490
825.827576,473
825.946045,458
826.064453,458
826.182983,468
826.301392,484
826.4198,466
826.53833,467
826.656738,481
826.775208,465
826.893677,480
827.012024,478
827.130493,472
827.248962,470
827.36731,477
827.485779,461
827.604248,458
827.722595,466
827.841064,459
827.959412,477
828.077942,448
828.196289,468
828.314636,474
828.433105,462
828.551514,443
828.669861,451
828.78833,457
828.906677,462
829.025085,460
829.143433,477
829.261841,444
829.38031,474
829.498657,457
829.617004,444
829.735413,462
829.85376,469
829.972107,457
830.090515,447
830.208862,464
830.327209,451
830.445557,445
830.563904,474
830.682312,453
830.800659,438
830.919006,432
831.037354,455
831.155701,473
831.274048,461
831.392395,465
831.51062,455
831.629028,460
831.747314,481
831.865662,468
831.984009,451
832.102356,442
832.220642,460
832.338928,439
832.457275,453
832.575623,459
832.693909,457
832.812134,444
832.930481,465
833.048828,472
833.167114,444
833.2854,447
833.403687,486
833.521973,433
833.640259,464
833.758545,456
833.876831,450
833.995056,467
834.113281,450
834.231628,463
834.349915,450
834.468201,465
834.586426,468
834.704651,450
834.822998,470
834.941162,442
835.059448,483
835.177673,462
835.295959,462
835.414246,450
835.53241,462
835.650635,474
835.768921,449
835.887146,477
836.005371,454
836.123596,471
836.241821,456
836.360046,441
836.478271,461
836.596497,466
836.714722,469
836.832886,470
836.95105,482
837.069336,468
837.1875,464
837.305725,477
837.423889,468
837.542053,462
837.660339,474
837.778503,480
837.896667,466
838.014832,477
838.132996,503
838.25116,458
838.369385,469
838.487488,483
838.605713,475
838.723877,484
838.84198,482
838.960205,474
839.078308,465
839.196472,486
839.314636,483
839.4328,469
839.550964,463
839.669067,462
839.787231,463
839.905396,461
840.023499,451
840.141602,482
840.259766,479
840.377869,471
840.495972,481
840.614136,452
840.732239,461
840.850342,467
840.968445,459
841.086548,439
841.204651,484
841.322754,472
841.440918,473
841.55896,452
841.677002,455
841.795166,461
841.913208,438
842.031311,469
842.149353,477
842.267456,445
842.385498,437
842.503601,465
842.621643,444
842.739746,455
842.857788,456
842.97583,447
843.093933,446
843.211975,453
843.330017,470
843.44812,457
843.566101,446
843.684204,455
843.802246,447
843.920227,448
844.038269,449
844.156311,437
844.274292,456
844.392395,462
844.510376,458
844.628357,434
844.74646,446
844.864441,453
844.982422,454
845.100403,443
845.218384,440
845.336426,457
845.454468,449
845.572449,451
845.69043,450
845.808411,448
845.926453,451
846.044373,427
846.162354,463
846.280396,452
846.398315,462
846.516296,464
846.634216,420
846.752197,440
846.870178,456
846.988098,436
847.106079,470
847.22406,452
847.34198,456
847.4599,448
847.577881,450
847.695801,437
847.813782,458
847.931641,436
848.049561,459
848.167603,453
848.285461,456
848.403381,429
848.521362,445
848.639221,437
848.75708,443
848.875,454
848.99292,452
849.110901,445
849.22876,450
849.34668,428
849.464539,450
849.582458,440
849.700317,443
849.818176,445
849.936096,439
850.053955,474
850.171875,446
850.289673,463
850.407593,448
850.525452,443
850.643311,433
850.761169,461
850.878967,446
850.996887,444
851.114746,440
851.232544,448
851.350403,440
851.468262,453
851.58606,463
851.703979,444
851.821777,462
851.939636,450
852.057434,463
852.175232,466
852.293091,461
852.410889,449
852.528687,453
852.646545,450
852.764343,448
852.88208,449
852.999939,447
853.117676,449
853.235535,436
853.353271,437
853.471069,434
853.588928,447
853.706604,443
853.824402,445
853.9422,460
854.059998,434
854.177734,454
854.295532,442
854.413269,467
854.531006,438
854.648804,456
854.766541,448
854.884277,458
855.002014,442
855.119751,462
855.237549,463
855.355225,463
855.473022,433
855.590698,466
855.708435,444
855.826172,466
855.943848,454
856.061646,457
856.179321,460
856.296997,448
856.414795,451
856.53241,469
856.650085,460
856.767822,469
856.885559,438
857.003174,457
857.120911,469
857.238586,449
857.356201,445
857.473938,466
857.591614,439
857.709351,440
857.826965,449
857.944641,455
858.062317,444
858.179993,444
858.297668,430
858.415283,454
858.532959,455
858.650574,459
858.768188,432
858.885803,457
859.003479,444
859.121094,476
859.23877,455
859.356384,438
859.473999,473
859.591675,476
859.709229,430
859.826843,447
859.944458,455
860.062012,452
860.179626,458
860.297302,449
860.414856,449
860.532471,465
860.650024,450
860.767639,454
860.885193,433
861.002808,461
861.120361,470
861.237976,442
861.35553,470
861.473022,439
861.590698,446
861.708191,450
861.825745,434
861.943298,457
862.060852,455
862.178406,459
862.295959,467
862.413513,453
862.531006,434
862.64856,455
862.766113,434
862.883667,435
863.00116,435
863.118713,455
863.236206,435
863.353699,461
863.471252,452
863.588745,461
863.706177,459
863.82373,442
863.941162,455
864.058716,480
864.176208,450
864.29364,457
864.411194,454
864.528687,460
864.646118,465
864.763611,445
864.881042,472
864.998535,458
865.116028,430
865.233459,437
865.350891,438
865.468384,455
865.585754,443
865.703308,451
865.820679,448
865.938171,453
866.055542,439
866.173035,453
866.290466,452
866.407837,449
866.52533,454
866.6427,457
866.760071,434
866.877563,452
866.994934,449
867.112305,472
867.229736,453
867.347107,442
867.464539,460
867.58197,436
867.699341,458
867.81665,455
867.934082,459
868.051453,448
868.168823,452
868.286194,460
868.403564,452
868.520935,445
868.638306,455
868.755676,436
868.872986,448
868.990295,463
869.107727,458
869.225037,466
869.342346,452
869.459717,445
869.577026,464
869.694336,444
869.811707,440
869.929016,432
870.046326,462
870.163635,463
870.280945,456
870.398254,425
870.515564,443
870.632812,451
870.750183,465
870.867432,461
870.984741,459
871.102051,449
871.219299,448
871.336609,456
871.453918,449
871.571106,455
871.688416,448
871.805664,458
871.922852,445
872.040222,439
872.157471,445
872.274719,449
872.391968,455
872.509155,443
872.626465,456
872.743652,455
872.860962,452
872.978149,457
873.095337,445
873.212646,450
873.329834,445
873.44696,450
873.564209,453
873.681396,455
873.798645,447
873.915894,444
874.03302,422
874.150208,466
874.267456,432
874.384583,447
874.501831,442
874.618958,454
874.736145,445
874.853333,449
874.970459,452
875.087646,454
875.204834,453
875.32196,458
875.439148,444
875.556274,458
875.673401,438
875.790527,456
875.907715,449
876.024841,450
876.141968,450
876.259094,450
876.376282,440
876.493347,465
876.610474,439
876.7276,450
876.844727,448
876.961853,456
877.078918,452
877.195984,461
877.313171,457
877.430237,453
877.547302,467
877.664368,463
877.781433,452
877.898499,443
878.015625,444
878.13269,458
878.249695,467
878.366821,440
878.483887,447
878.600952,454
878.717957,441
878.834961,449
878.952087,456
879.069092,462
879.186157,435
879.303162,454
879.420227,446
879.537231,445
879.654236,441
879.77124,460
879.888306,439
880.005249,449
880.122314,449
880.239319,439
880.356323,452
880.473328,463
880.590271,458
880.707275,458
880.824341,461
880.941284,455
881.058228,442
881.175232,447
881.292236,469
881.40918,470
881.526123,436
881.643066,445
881.760071,452
881.877014,455
881.993958,451
882.11084,438
882.227783,441
882.344727,457
882.46167,437
882.578613,451
882.695618,454
882.812439,463
882.929382,450
883.046326,446
883.163208,454
883.280151,458
883.397034,457
883.513916,465
883.630798,446
883.747742,451
883.864563,448
883.981506,439
884.098389,458
884.21521,455
884.332153,459
884.448975,475
884.565796,462
884.682678,461
884.7995,480
884.916443,449
885.033264,444
885.150085,451
885.266968,455
885.383789,444
885.500671,459
885.617493,443
885.734314,460
885.851196,469
885.967896,467
886.084717,458
886.201599,443
886.318359,472
886.435181,457
886.552002,474
886.668762,461
886.785645,446
886.902344,463
887.019165,459
887.135925,448
887.252747,433
887.369446,453
887.486267,454
887.603027,449
887.719788,464
887.836548,457
887.953247,461
888.070068,459
888.186829,446
888.303528,453
888.420288,435
888.536987,468
888.653687,453
888.770447,467
888.887146,459
889.003967,463
889.120667,475
889.237305,464
889.354065,449
889.470703,463
889.587463,470
889.704163,456
889.820862,452
889.937561,461
890.054199,453
890.170837,452
890.287598,462
890.404236,447
890.520874,460
890.637634,444
890.754211,457
890.87085,448
890.987549,449
891.104187,467
891.220886,457
891.337463,447
891.454102,451
891.57074,458
891.687378,458
891.804077,463
891.920654,451
892.037231,435
892.15387,454
892.270447,461
892.387085,454
892.503723,451
892.6203,460
892.736877,458
892.853516,447
892.970032,448
893.08667,458
893.203186,467
893.319763,450
893.43634,454
893.552917,453
893.669556,449
893.786011,450
893.902588,434
894.019165,471
894.135681,453
894.252197,460
894.368835,440
894.485291,469
894.601868,455
894.718384,460
894.8349,446
894.951355,463
895.067932,444
895.184448,478
895.300964,459
895.417419,466
895.533936,450
895.650452,453
895.766907,464
895.883423,452
895.999878,457
896.116333,483
896.232849,453
896.349304,463
896.465759,457
896.582214,449
896.698669,459
896.815125,458
896.931641,453
897.048035,449
897.164551,459
897.280884,441
897.397339,443
897.513794,463
897.630249,459
897.746582,471
897.863098,456
897.979431,470
898.095886,474
898.212341,461
898.328674,446
898.445129,447
898.561462,469
898.677795,470
898.794312,464
898.910645,465
899.026978,445
899.143433,453
899.259766,455
899.37616,461
899.492493,450
899.608765,473
899.725159,454
899.841553,455
899.957947,470
900.07428,455
900.190552,465
900.306946,456
900.423157,464
900.53949,474
900.655884,475
900.772156,460
900.888489,445
901.004822,475
901.121033,463
901.237366,473
901.353699,471
901.46991,470
901.586304,453
901.702515,455
901.818787,451
901.93512,463
902.051331,468
902.167603,461
902.283875,450
902.400085,466
902.516418,459
902.632629,461
902.74884,473
902.865112,483
902.981384,443
903.097595,480
903.213867,470
903.330017,477
903.446289,477
903.5625,471
903.67865,460
903.794922,453
903.911072,473
904.027344,454
904.143494,440
904.259705,489
904.375916,455
904.492065,464
904.608215,477
904.724426,459
904.840576,457
904.956726,465
905.072876,437
905.189087,459
905.305176,461
905.421387,452
905.537537,469
905.653687,453
905.769775,468
905.885925,469
906.002014,486
906.118164,464
906.234314,473
906.350403,468
906.466492,463
906.582642,452
906.69873,446
906.814758,460
906.930908,474
907.046936,463
907.163086,480
907.279175,470
907.395264,473
907.511353,467
907.62738,472
907.743408,475
907.859497,471
907.975525,477
908.091553,455
908.207703,450
908.32373,458
908.439758,483
908.555786,450
908.671814,451
908.787842,472
908.90387,470
909.019775,466
909.135864,457
909.251892,462
909.367859,463
909.483826,464
909.599854,464
909.715881,458
909.831848,468
909.947815,472
910.063782,462
910.179749,466
910.295776,475
910.411743,457
910.527649,454
910.643616,450
910.759583,452
910.875488,461
910.991455,477
911.107361,472
911.223267,454
911.339294,484
911.4552,465
911.571106,464
911.687073,484
911.802979,461
911.918823,461
912.034729,494
912.150635,472
912.266602,465
912.382446,483
912.498352,458
912.614197,471
912.730103,475
912.846008,455
792.44574,608
792.56488,663
792.68396,691
792.80304,671
792.92218,579
793.041199,608
793.160339,596
793.279419,622
793.398499,611
793.517578,593
793.636658,586
793.755737,581
793.874817,608
793.993896,620
794.112976,587
794.232056,615
794.351074,591
794.470215,573
794.589233,598
794.708313,594
794.827393,573
794.946411,575
795.065552,595
795.18457,592
795.303589,575
795.422668,572
795.541687,590
795.660767,600
795.779846,593
795.898865,595
796.017883,579
796.136963,573
796.255981,614
796.375061,576
796.49408,597
796.613037,575
796.732117,581
796.851135,560
796.970154,565
797.089233,567
797.208191,576
797.327271,593
797.446228,571
797.565186,603
797.684265,607
797.803223,582
797.922241,566
798.04126,585
798.160278,583
798.279297,586
798.398315,574
798.517273,574
798.636292,560
798.75531,592
798.874268,598
798.993286,570
799.112244,574
799.231323,589
799.350281,578
799.469238,584
799.588257,584
799.707153,572
799.826111,562
799.945129,572
800.064087,597
800.183044,571
800.302063,612
800.421021,595
800.539978,576
800.658936,589
800.777893,554
800.896912,586
801.015747,564
801.134705,560
801.253723,577
801.37262,571
801.491638,569
801.610535,578
801.729492,590
801.84845,594
801.967407,589
802.086243,593
802.205261,590
802.324158,592
802.443115,587
802.562073,590
802.680969,591
802.799927,600
802.918762,582
803.037659,597
803.156677,594
803.275574,593
803.39447,575
803.513428,596
803.632263,581
803.751221,603
803.870117,593
803.989014,603
804.107971,614
804.226746,609
804.345642,604
804.4646,591
804.583496,600
804.702393,617
804.821228,597
804.940125,615
805.059021,627
805.177917,608
805.296814,599
805.415649,597
805.534546,593
805.653442,620
805.772278,614
805.891113,624
806.01001,617
806.128906,608
806.247742,602
806.366577,628
806.485413,603
806.604309,618
806.723145,630
806.84198,640
806.960876,620
807.079712,602
807.198486,627
807.317383,632
807.436218,595
807.554993,620
807.673889,604
807.792725,633
807.91156,596
808.030396,624
808.14917,617
808.268005,617
808.386841,624
808.505676,624
808.624451,604
808.743286,622
808.862122,638
808.980896,622
809.099731,628
809.218506,615
809.337341,622
809.456116,624
809.57489,618
809.693726,619
809.8125,631
809.931274,625
810.050049,611
810.168884,637
810.287659,645
810.406372,601
810.525269,646
810.643982,613
810.762756,634
810.881531,644
811.000305,624
811.11908,614
811.237854,639
811.356567,623
811.475403,628
811.594116,634
811.71283,617
811.831604,627
811.950378,628
812.069153,644
812.187927,618
812.30658,618
812.425415,646
812.544128,612
812.662781,628
812.781616,640
812.900269,659
813.019043,635
813.137756,621
813.256531,629
813.375244,652
813.493896,621
813.612671,636
813.731384,656
813.850037,618
813.96875,644
814.087524,611
814.206238,631
814.324951,657
814.443604,619
814.562256,575
814.68103,621
814.799683,639
814.918335,636
815.037109,620
815.155762,634
815.274475,620
815.393188,606
815.511841,629
815.630554,596
815.749146,618
815.867859,619
815.986572,626
816.105164,620
816.223877,617
816.342529,620
816.461182,632
816.579895,617
816.698486,635
816.817139,599
816.935791,607
817.054504,652
817.173096,592
817.291748,627
817.4104,607
817.529053,587
817.647644,582
817.766235,596
817.884949,586
818.00354,574
818.122192,560
818.240845,540
818.359436,572
818.478088,555
818.59668,535
818.715271,526
818.833923,546
818.952515,526
819.071106,529
819.189758,540
819.30835,507
819.426941,515
819.545532,520
819.664124,505
819.782715,513
819.901306,524
820.019897,492
820.138489,487
820.25708,502
820.375671,500
820.494202,488
820.612732,483
820.731384,484
820.849915,497
820.968506,488
821.087097,498
821.205627,484
821.324158,516
821.442749,485
821.561279,479
821.679871,475
821.798401,493
821.916931,482
822.035461,474
822.154053,492
822.272583,484
822.391174,497
822.509583,499
822.628174,462
822.746704,495
822.865234,482
822.983765,469
823.102295,499
823.220825,484
823.339294,458
823.457825,463
823.576355,483
823.694824,490
823.813354,479
823.931885,479
824.050354,498
824.168884,496
824.287354,476
824.405823,497
824.524353,486
824.642822,510
824.761353,464
824.879822,479
824.998291,506
825.116699,486
825.235291,482
825.353699,509
825.472168,485
825.590637,501
825.709106,469
825.827576,479
825.946045,494
826.064453,497
826.182983,470
826.301392,480
826.4198,465
826.53833,466
826.656738,455
826.775208,467
826.893677,450
827.012024,464
827.130493,478
827.248962,464
827.36731,458
827.485779,463
827.604248,477
827.722595,468
827.841064,460
827.959412,452
828.077942,458
828.196289,455
828.314636,426
828.433105,479
828.551514,475
828.669861,472
828.78833,465
828.906677,457
829.025085,479
829.143433,469
829.261841,459
829.38031,454
829.498657,463
829.617004,465
829.735413,465
829.85376,456
829.972107,470
830.090515,460
830.208862,469
830.327209,449
830.445557,467
830.563904,461
830.682312,457
830.800659,468
830.919006,470
831.037354,453
831.155701,460
831.274048,451
831.392395,463
831.51062,455
831.629028,477
831.747314,459
831.865662,457
831.984009,473
832.102356,464
832.220642,461
832.338928,469
832.457275,459
832.575623,464
832.693909,461
832.812134,463
832.930481,453
833.048828,448
833.167114,439
833.2854,461
833.403687,445
833.521973,462
833.640259,455
833.758545,447
833.876831,462
833.995056,477
834.113281,459
834.231628,447
834.349915,473
834.468201,480
834.586426,445
834.704651,459
834.822998,464
834.941162,474
835.059448,472
835.177673,479
835.295959,456
835.414246,476
835.53241,467
835.650635,458
835.768921,453
835.887146,443
836.005371,472
836.123596,448
836.241821,461
836.360046,445
836.478271,490
836.596497,467
836.714722,498
836.832886,452
836.95105,484
837.069336,463
837.1875,479
837.305725,455
837.423889,487
837.542053,455
837.660339,491
837.778503,472
837.896667,470
838.014832,470
838.132996,475
838.25116,497
838.369385,496
838.487488,474
838.605713,473
838.723877,485
838.84198,479
838.960205,483
839.078308,485
839.196472,468
839.314636,475
839.4328,480
839.550964,486
839.669067,487
839.787231,475
839.905396,474
840.023499,477
840.141602,465
840.259766,489
840.377869,474
840.495972,465
840.614136,455
840.732239,468
840.850342,477
840.968445,452
841.086548,454
841.204651,473
841.322754,465
841.440918,451
841.55896,444
841.677002,452
841.795166,443
841.913208,459
842.031311,462
842.149353,460
842.267456,464
842.385498,439
842.503601,474
842.621643,453
842.739746,446
842.857788,458
842.97583,465
843.093933,456
843.211975,476
843.330017,434
843.44812,462
843.566101,439
843.684204,448
843.802246,452
843.920227,452
844.038269,450
844.156311,440
844.274292,440
844.392395,451
844.510376,446
844.628357,456
844.74646,454
844.864441,459
844.982422,442
845.100403,461
845.218384,448
845.336426,447
845.454468,447
845.572449,444
845.69043,447
845.808411,442
845.926453,472
846.044373,444
846.162354,472
846.280396,439
846.398315,443
846.516296,461
846.634216,441
846.752197,433
846.870178,452
846.988098,465
847.106079,444
847.22406,442
847.34198,447
847.4599,462
847.577881,450
847.695801,456
847.813782,462
847.931641,445
848.049561,436
848.167603,449
848.285461,460
848.403381,451
848.521362,478
848.639221,454
848.75708,447
848.875,447
848.99292,460
849.110901,450
849.22876,438
849.34668,457
849.464539,445
849.582458,439
849.700317,442
849.818176,443
849.936096,433
850.053955,456
850.171875,453
850.289673,457
850.407593,461
850.525452,442
850.643311,438
850.761169,450
850.878967,461
850.996887,454
851.114746,449
851.232544,432
851.350403,448
851.468262,456
851.58606,446
851.703979,439
851.821777,439
851.939636,446
852.057434,456
852.175232,438
852.293091,462
852.410889,450
852.528687,466
852.646545,456
852.764343,455
852.88208,456
852.999939,446
853.117676,442
853.235535,467
853.353271,457
853.471069,436
853.588928,439
853.706604,466
853.824402,460
853.9422,443
854.059998,447
854.177734,470
854.295532,451
854.413269,457
854.531006,458
854.648804,457
854.766541,460
854.884277,444
855.002014,437
855.119751,455
855.237549,476
855.355225,455
855.473022,449
855.590698,454
855.708435,454
855.826172,442
855.943848,455
856.061646,455
856.179321,460
856.296997,459
856.414795,461
856.53241,489
856.650085,466
856.767822,459
856.885559,447
857.003174,442
857.120911,458
857.238586,456
857.356201,454
857.473938,452
857.591614,452
857.709351,456
857.826965,465
857.944641,436
858.062317,455
858.179993,447
858.297668,454
858.415283,444
858.532959,469
858.650574,473
858.768188,445
858.885803,466
859.003479,450
859.121094,448
859.23877,446
859.356384,438
859.473999,446
859.591675,460
859.709229,438
859.826843,472
859.944458,441
860.062012,458
860.179626,437
860.297302,440
860.414856,465
860.532471,462
860.650024,448
860.767639,463
860.885193,442
861.002808,451
861.120361,456
861.237976,445
861.35553,448
861.473022,436
861.590698,432
861.708191,448
861.825745,437
861.943298,462
862.060852,448
862.178406,447
862.295959,450
862.413513,449
862.531006,442
862.64856,453
862.766113,458
862.883667,424
863.00116,436
863.118713,460
863.236206,450
863.353699,441
863.471252,448
863.588745,450
863.706177,457
863.82373,446
863.941162,450
864.058716,444
864.176208,457
864.29364,453
864.411194,439
864.528687,445
864.646118,455
864.763611,455
864.881042,427
864.998535,476
865.116028,442
865.233459,452
865.350891,439
865.468384,447
865.585754,465
865.703308,453
865.820679,439
865.938171,460
866.055542,450
866.173035,450
866.290466,450
866.407837,452
866.52533,458
866.6427,443
866.760071,473
866.877563,463
866.994934,458
867.112305,466
867.229736,470
867.347107,446
867.464539,460
867.58197,453
867.699341,453
867.81665,452
867.934082,463
868.051453,470
868.168823,447
868.286194,431
868.403564,462
868.520935,462
868.638306,448
868.755676,455
868.872986,464
868.990295,446
869.107727,449
869.225037,467
869.342346,455
869.459717,448
869.577026,450
869.694336,450
869.811707,450
869.929016,471
870.046326,453
870.163635,446
870.280945,451
870.398254,448
870.515564,428
870.632812,467
870.750183,451
870.867432,472
870.984741,445
871.102051,441
871.219299,476
871.336609,460
871.453918,447
871.571106,445
871.688416,459
871.805664,450
871.922852,455
872.040222,471
872.157471,469
872.274719,460
872.391968,455
872.509155,457
872.626465,461
872.743652,445
872.860962,446
872.978149,456
873.095337,440
873.212646,470
873.329834,462
873.44696,460
873.564209,446
873.681396,436
873.798645,456
873.915894,444
874.03302,459
874.150208,452
874.267456,466
874.384583,462
874.501831,446
874.618958,450
874.736145,436
874.853333,436
874.970459,439
875.087646,470
875.204834,437
875.32196,456
875.439148,451
875.556274,450
875.673401,446
875.790527,451
875.907715,468
876.024841,459
876.141968,458
876.259094,459
876.376282,458
876.493347,451
876.610474,456
876.7276,474
876.844727,463
876.961853,447
877.078918,442
877.195984,462
877.313171,443
877.430237,436
877.547302,445
877.664368,469
877.781433,469
877.898499,461
878.015625,447
878.13269,459
878.249695,464
878.366821,478
878.483887,456
878.600952,446
878.717957,449
878.834961,445
878.952087,452
879.069092,456
879.186157,450
879.303162,449
879.420227,445
879.537231,440
879.654236,459
879.77124,452
879.888306,438
880.005249,464
880.122314,439
880.239319,461
880.356323,467
880.473328,458
880.590271,455
880.707275,467
880.824341,453
880.941284,450
881.058228,443
881.175232,460
881.292236,455
881.40918,452
881.526123,458
881.643066,460
881.760071,452
881.877014,460
881.993958,450
882.11084,454
882.227783,462
882.344727,443
882.46167,445
882.578613,448
882.695618,455
882.812439,436
882.929382,458
883.046326,461
883.163208,452
883.280151,448
883.397034,454
883.513916,463
883.630798,458
883.747742,462
883.864563,444
883.981506,440
884.098389,455
884.21521,439
884.332153,455
884.448975,452
884.565796,458
884.682678,481
884.7995,457
884.916443,474
885.033264,453
885.150085,463
885.266968,441
885.383789,473
885.500671,447
885.617493,454
885.734314,458
885.851196,461
885.967896,454
886.084717,446
886.201599,457
886.318359,476
886.435181,462
886.552002,465
886.668762,462
886.785645,459
886.902344,467
887.019165,469
887.135925,446
887.252747,447
887.369446,444
887.486267,473
887.603027,476
887.719788,445
887.836548,475
887.953247,470
888.070068,477
888.186829,458
888.303528,451
888.420288,459
888.536987,453
888.653687,476
888.770447,458
888.887146,452
889.003967,465
889.120667,466
889.237305,449
889.354065,462
889.470703,449
889.587463,456
889.704163,447
889.820862,475
889.937561,444
890.054199,452
890.170837,474
890.287598,453
890.404236,479
890.520874,457
890.637634,444
890.754211,486
890.87085,464
890.987549,456
891.104187,460
891.220886,463
891.337463,475
891.454102,448
891.57074,456
891.687378,466
891.804077,478
891.920654,469
892.037231,465
892.15387,466
892.270447,448
892.387085,457
892.503723,463
892.6203,450
892.736877,462
892.853516,466
892.970032,454
893.08667,479
893.203186,442
893.319763,450
893.43634,467
893.552917,454
893.669556,438
893.786011,462
893.902588,461
894.019165,463
894.135681,453
894.252197,453
894.368835,462
894.485291,468
894.601868,452
894.718384,472
894.8349,480
894.951355,454
895.067932,449
895.184448,467
895.300964,463
895.417419,452
895.533936,458
895.650452,466
895.766907,464
895.883423,467
895.999878,451
896.116333,460
896.232849,461
896.349304,463
896.465759,430
896.582214,474
896.698669,469
896.815125,457
896.931641,474
897.048035,454
897.164551,459
897.280884,452
897.397339,456
897.513794,464
897.630249,451
897.746582,480
897.863098,459
897.979431,468
898.095886,458
898.212341,462
898.328674,482
898.445129,466
898.561462,466
898.677795,465
898.794312,455
898.910645,467
899.026978,460
899.143433,466
899.259766,472
899.37616,471
899.492493,450
899.608765,466
899.725159,443
899.841553,459
899.957947,456
900.07428,471
900.190552,449
900.306946,475
900.423157,467
900.53949,475
900.655884,477
900.772156,458
900.888489,456
901.004822,456
901.121033,465
901.237366,462
901.353699,468
901.46991,480
901.586304,447
901.702515,472
901.818787,450
901.93512,484
902.051331,450
902.167603,470
902.283875,487
902.400085,460
902.516418,449
902.632629,480
902.74884,445
902.865112,450
902.981384,468
903.097595,471
903.213867,461
903.330017,475
903.446289,480
903.5625,469
903.67865,466
903.794922,453
903.911072,449
904.027344,473
904.143494,477
904.259705,466
904.375916,464
904.492065,462
904.608215,479
904.724426,481
904.840576,470
904.956726,456
905.072876,461
905.189087,457
905.305176,461
905.421387,468
905.537537,462
905.653687,475
905.769775,454
905.885925,475
906.002014,463
906.118164,456
906.234314,470
906.350403,483
906.466492,465
906.582642,459
906.69873,462
906.814758,474
906.930908,479
907.046936,469
907.163086,472
907.279175,485
907.395264,467
907.511353,453
907.62738,483
907.743408,478
907.859497,460
907.975525,479
908.091553,459
908.207703,477
908.32373,464
908.439758,458
908.555786,468
908.671814,482
908.787842,483
908.90387,491
909.019775,460
909.135864,465
909.251892,445
909.367859,479
909.483826,458
909.599854,465
909.715881,461
909.831848,471
909.947815,466
910.063782,467
910.179749,475
910.295776,467
910.411743,476
910.527649,469
910.643616,458
910.759583,465
910.875488,482
910.991455,485
911.107361,480
911.223267,474
911.339294,467
911.4552,439
911.571106,471
911.687073,490
911.802979,455
911.918823,473
912.034729,478
912.150635,481
912.266602,491
912.382446,473
912.498352,484
912.614197,446
912.730103,454
912.846008,467
792.44574,615
792.56488,655
792.68396,702
792.80304,663
792.92218,638
793.041199,580
793.160339,622
793.279419,608
793.398499,622
793.517578,617
793.636658,630
793.755737,604
793.874817,618
793.993896,630
794.112976,585
794.232056,592
794.351074,588
794.470215,611
794.589233,612
794.708313,602
794.827393,597
794.946411,584
795.065552,602
795.18457,598
795.303589,608
795.422668,576
795.541687,589
795.660767,604
795.779846,584
795.898865,602
796.017883,587
796.136963,610
796.255981,574
796.375061,595
796.49408,596
796.613037,577
796.732117,572
796.851135,590
796.970154,582
797.089233,607
797.208191,596
797.327271,600
797.446228,592
797.565186,581
797.684265,564
797.803223,611
797.922241,587
798.04126,575
798.160278,584
798.279297,589
798.398315,575
798.517273,580
798.636292,575
798.75531,609
798.874268,566
798.993286,579
799.112244,574
799.231323,602
799.350281,595
799.469238,568
799.588257,570
799.707153,597
799.826111,599
799.945129,578
800.064087,596
800.183044,590
800.302063,588
800.421021,581
800.539978,580
800.658936,597
800.777893,591
800.896912,596
801.015747,584
801.134705,592
801.253723,592
801.37262,587
801.491638,586
801.610535,597
801.729492,597
801.84845,590
801.967407,572
802.086243,608
802.205261,578
802.324158,593
802.443115,577
802.562073,604
802.680969,596
802.799927,593
802.918762,582
803.037659,593
803.156677,598
803.275574,600
803.39447,603
803.513428,619
803.632263,607
803.751221,595
803.870117,601
803.989014,600
804.107971,593
804.226746,625
804.345642,608
804.4646,604
804.583496,596
804.702393,612
804.821228,596
804.940125,605
805.059021,600
805.177917,593
805.296814,633
805.415649,623
805.534546,602
805.653442,598
805.772278,597
805.891113,627
806.01001,602
806.128906,609
806.247742,623
806.366577,624
806.485413,639
806.604309,625
806.723145,615
806.84198,624
806.960876,609
807.079712,635
807.198486,615
807.317383,615
807.436218,631
807.554993,627
807.673889,617
807.792725,631
807.91156,629
808.030396,640
808.14917,610
808.268005,614
808.386841,617
808.505676,624
808.624451,636
808.743286,619
808.862122,636
808.980896,635
809.099731,643
809.218506,607
809.337341,622
809.456116,630
809.57489,642
809.693726,644
809.8125,620
809.931274,609
810.050049,620
810.168884,636
810.287659,600
810.406372,595
810.525269,646
810.643982,630
810.762756,651
810.881531,641
811.000305,632
811.11908,623
811.237854,620
811.356567,618
811.475403,625
811.594116,636
811.71283,633
811.831604,644
811.950378,650
812.069153,628
812.187927,626
812.30658,620
812.425415,645
812.544128,622
812.662781,633
812.781616,645
812.900269,631
813.019043,632
813.137756,616
813.256531,659
813.375244,629
813.493896,614
813.612671,662
813.731384,633
813.850037,638
813.96875,623
814.087524,617
814.206238,633
814.324951,628
814.443604,622
814.562256,625
814.68103,633
814.799683,647
814.918335,626
815.037109,611
815.155762,658
815.274475,593
815.393188,630
815.511841,645
815.630554,608
815.749146,578
815.867859,595
815.986572,627
816.105164,628
816.223877,586
816.342529,592
816.461182,636
816.579895,623
816.698486,597
816.817139,637
816.935791,619
817.054504,627
817.173096,615
817.291748,618
817.4104,605
817.529053,608
817.647644,608
817.766235,588
817.884949,591
818.00354,575
818.122192,590
818.240845,579
818.359436,561
818.478088,547
818.59668,533
818.715271,568
818.833923,522
818.952515,533
819.071106,526
819.189758,506
819.30835,536
819.426941,508
819.545532,506
819.664124,489
819.782715,497
819.901306,490
820.019897,502
820.138489,506
820.25708,521
820.375671,503
820.494202,490
820.612732,504
820.731384,492
820.849915,515
820.968506,496
821.087097,509
821.205627,485
821.324158,500
821.442749,505
821.561279,486
821.679871,490
821.798401,492
821.916931,489
822.035461,478
822.154053,489
822.272583,489
822.391174,480
822.509583,481
822.628174,490
822.746704,480
822.865234,467
822.983765,464
823.102295,477
823.220825,488
823.339294,483
823.457825,481
823.576355,502
823.694824,494
823.813354,487
823.931885,480
824.050354,487
824.168884,486
824.287354,486
824.405823,483
824.524353,486
824.642822,512
824.761353,483
824.879822,496
824.998291,496
825.116699,490
825.235291,473
825.353699,495
825.472168,482
825.590637,470
825.709106,498
825.827576,481
825.946045,455
826.064453,481
826.182983,459
826.301392,465
826.4198,463
826.53833,487
826.656738,469
826.775208,466
826.893677,464
827.012024,466
827.130493,470
827.248962,479
827.36731,460
827.485779,454
827.604248,455
827.722595,470
827.841064,465
827.959412,465
828.077942,460
828.196289,446
828.314636,464
828.433105,471
828.551514,472
828.669861,488
828.78833,468
828.906677,426
829.025085,459
829.143433,455
829.261841,465
829.38031,447
829.498657,462
829.617004,463
829.735413,480
829.85376,472
829.972107,443
830.090515,463
830.208862,467
830.327209,476
830.445557,449
830.563904,467
830.682312,469
830.800659,451
830.919006,461
831.037354,464
831.155701,456
831.274048,443
831.392395,469
831.51062,487
831.629028,459
831.747314,447
831.865662,473
831.984009,452
832.102356,462
832.220642,478
832.338928,450
832.457275,481
832.575623,468
832.693909,447
832.812134,460
832.930481,461
833.048828,471
833.167114,452
833.2854,464
833.403687,467
833.521973,444
833.640259,460
833.758545,463
833.876831,464
833.995056,470
834.113281,462
834.231628,472
834.349915,457
834.468201,461
834.586426,465
834.704651,465
834.822998,453
834.941162,469
835.059448,464
835.177673,469
835.295959,455
835.414246,466
835.53241,463
835.650635,457
835.768921,454
835.887146,461
836.005371,460
836.123596,475
836.241821,501
836.360046,465
836.478271,463
836.596497,475
836.714722,472
836.832886,483
836.95105,502
837.069336,482
837.1875,465
837.305725,489
837.423889,487
837.542053,472
837.660339,488
837.778503,501
837.896667,490
838.014832,487
838.132996,473
838.25116,466
838.369385,469
838.487488,462
838.605713,481
838.723877,478
838.84198,475
838.960205,475
839.078308,486
839.196472,458
839.314636,480
839.4328,478
839.550964,475
839.669067,460
839.787231,471
839.905396,464
840.023499,464
840.141602,483
840.259766,456
840.377869,478
840.495972,454
840.614136,469
840.732239,469
840.850342,461
840.968445,456
841.086548,451
841.204651,470
841.322754,455
841.440918,466
841.55896,466
841.677002,468
841.795166,463
841.913208,457
842.031311,462
842.149353,458
842.267456,457
842.385498,473
842.503601,457
842.621643,456
842.739746,443
842.857788,458
842.97583,475
843.093933,452
843.211975,461
843.330017,461
843.44812,451
843.566101,455
843.684204,454
843.802246,453
843.920227,442
844.038269,445
844.156311,451
844.274292,455
844.392395,451
844.510376,465
844.628357,447
844.74646,467
844.864441,438
844.982422,473
845.100403,472
845.218384,445
845.336426,448
845.454468,453
845.572449,450
845.69043,455
845.808411,451
845.926453,444
846.044373,455
846.162354,433
846.280396,448
846.398315,459
846.516296,472
846.634216,452
846.752197,436
846.870178,446
846.988098,453
847.106079,442
847.22406,455
847.34198,462
847.4599,441
847.577881,445
847.695801,459
847.813782,446
847.931641,449
848.049561,472
848.167603,453
848.285461,450
848.403381,457
848.521362,469
848.639221,452
848.75708,448
848.875,469
848.99292,449
849.110901,456
849.22876,467
849.34668,445
849.464539,451
849.582458,453
849.700317,454
849.818176,463
849.936096,451
850.053955,449
850.171875,430
850.289673,463
850.407593,459
850.525452,448
850.643311,458
850.761169,459
850.878967,453
850.996887,440
851.114746,456
851.232544,434
851.350403,448
851.468262,452
851.58606,450
851.703979,442
851.821777,440
851.939636,461
852.057434,455
852.175232,442
852.293091,471
852.410889,456
852.528687,450
852.646545,447
852.764343,475
852.88208,450
852.999939,448
853.117676,466
853.235535,448
853.353271,441
853.471069,464
853.588928,440
853.706604,438
853.824402,461
853.9422,474
854.059998,439
854.177734,477
854.295532,450
854.413269,447
854.531006,453
854.648804,474
854.766541,453
854.884277,470
855.002014,451
855.119751,477
855.237549,452
855.355225,461
855.473022,462
855.590698,473
855.708435,446
855.826172,448
855.943848,473
856.061646,455
856.179321,454
856.296997,464
856.414795,474
856.53241,461
856.650085,441
856.767822,472
856.885559,462
857.003174,451
857.120911,459
857.238586,470
857.356201,455
857.473938,452
857.591614,453
857.709351,463
857.826965,479
857.944641,449
858.062317,463
858.179993,442
858.297668,478
858.415283,444
858.532959,457
858.650574,460
858.768188,428
858.885803,454
859.003479,440
859.121094,451
859.23877,455
859.356384,451
859.473999,447
859.591675,447
859.709229,449
859.826843,440
859.944458,454
860.062012,424
860.179626,450
860.297302,467
860.414856,444
860.532471,450
860.650024,444
860.767639,459
860.885193,462
861.002808,452
861.120361,455
861.237976,431
861.35553,461
861.473022,456
861.590698,446
861.708191,447
861.825745,454
861.943298,458
862.060852,449
862.178406,456
862.295959,459
862.413513,459
862.531006,431
862.64856,462
862.766113,448
862.883667,451
863.00116,435
863.118713,452
863.236206,471
863.353699,468
863.471252,451
863.588745,424
863.706177,461
863.82373,469
863.941162,442
864.058716,461
864.176208,466
864.29364,440
864.411194,458
864.528687,442
864.646118,467
864.763611,467
864.881042,458
864.998535,453
865.116028,447
865.233459,445
865.350891,464
865.468384,445
865.585754,441
865.703308,464
865.820679,454
865.938171,449
866.055542,445
866.173035,455
866.290466,475
866.407837,450
866.52533,471
866.6427,461
866.760071,472
866.877563,452
866.994934,451
867.112305,466
867.229736,463
867.347107,449
867.464539,451
867.58197,446
867.699341,460
867.81665,465
867.934082,449
868.051453,453
868.168823,447
868.286194,443
868.403564,432
868.520935,458
868.638306,455
868.755676,459
868.872986,432
868.990295,463
869.107727,475
869.225037,459
869.342346,454
869.459717,459
869.577026,456
869.694336,457
869.811707,457
869.929016,447
870.046326,472
870.163635,460
870.280945,461
870.398254,456
870.515564,450
870.632812,465
870.750183,450
870.867432,462
870.984741,445
871.102051,445
871.219299,465
871.336609,451
871.453918,460
871.571106,460
871.688416,446
871.805664,459
871.922852,458
872.040222,448
872.157471,459
872.274719,457
872.391968,470
872.509155,468
872.626465,431
872.743652,455
872.860962,434
872.978149,442
873.095337,447
873.212646,468
873.329834,438
873.44696,459
873.564209,455
873.681396,469
873.798645,445
873.915894,464
874.03302,465
874.150208,458
874.267456,468
874.384583,456
874.501831,460
874.618958,452
874.736145,435
874.853333,460
874.970459,451
875.087646,451
875.204834,471
875.32196,469
875.439148,467
875.556274,444
875.673401,457
875.790527,424
875.907715,447
876.024841,453
876.141968,436
876.259094,446
876.376282,433
876.493347,468
876.610474,463
876.7276,455
876.844727,438
876.961853,469
877.078918,448
877.195984,436
877.313171,465
877.430237,464
877.547302,454
877.664368,446
877.781433,465
877.898499,460
878.015625,466
878.13269,455
878.249695,463
878.366821,454
878.483887,453
878.600952,460
878.717957,437
878.834961,452
878.952087,456
879.069092,437
879.186157,448
879.303162,449
879.420227,447
879.537231,454
879.654236,428
879.77124,445
879.888306,448
880.005249,451
880.122314,462
880.239319,463
880.356323,434
880.473328,455
880.590271,462
880.707275,458
880.824341,455
880.941284,462
881.058228,436
881.175232,461
881.292236,456
881.40918,459
881.526123,449
881.643066,446
881.760071,461
881.877014,446
881.993958,446
882.11084,442
882.227783,430
882.344727,459
882.46167,434
882.578613,442
882.695618,444
882.812439,454
882.929382,455
883.046326,469
883.163208,445
883.280151,451
883.397034,443
883.513916,450
883.630798,444
883.747742,466
883.864563,453
883.981506,461
884.098389,468
884.21521,440
884.332153,461
884.448975,472
884.565796,439
884.682678,458
884.7995,455
884.916443,452
885.033264,454
885.150085,452
885.266968,445
885.383789,459
885.500671,459
885.617493,450
885.734314,448
885.851196,442
885.967896,461
886.084717,473
886.201599,453
886.318359,463
886.435181,463
886.552002,467
886.668762,461
886.785645,476
886.902344,446
887.019165,466
887.135925,452
887.252747,473
887.369446,445
887.486267,463
887.603027,465
887.719788,461
887.836548,448
887.953247,477
888.070068,447
888.186829,478
888.303528,470
888.420288,458
888.536987,450
888.653687,431
888.770447,454
888.887146,454
889.003967,473
889.120667,471
889.237305,445
889.354065,461
889.470703,457
889.587463,462
889.704163,447
889.820862,439
889.937561,462
890.054199,470
890.170837,454
890.287598,474
890.404236,457
890.520874,441
890.637634,463
890.754211,460
890.87085,458
890.987549,479
891.104187,478
891.220886,459
891.337463,473
891.454102,469
891.57074,461
891.687378,476
891.804077,459
891.920654,475
892.037231,463
892.15387,454
892.270447,460
892.387085,465
892.503723,454
892.6203,461
892.736877,468
892.853516,449
892.970032,460
893.08667,453
893.203186,444
893.319763,466
893.43634,455
893.552917,458
893.669556,460
893.786011,478
893.902588,438
894.019165,470
894.135681,452
894.252197,455
894.368835,460
894.485291,467
894.601868,460
894.718384,471
894.8349,456
894.951355,466
895.067932,466
895.184448,474
895.300964,475
895.417419,481
895.533936,468
895.650452,472
895.766907,464
895.883423,464
895.999878,477
896.116333,479
896.232849,447
896.349304,452
896.465759,455
896.582214,462
896.698669,459
896.815125,464
896.931641,455
897.048035,500
897.164551,451
897.280884,482
897.397339,459
897.513794,493
897.630249,470
897.746582,467
897.863098,454
897.979431,454
898.095886,465
898.212341,461
898.328674,485
898.445129,465
898.561462,460
898.677795,482
898.794312,465
898.910645,470
899.026978,464
899.143433,460
899.259766,456
899.37616,447
899.492493,493
899.608765,469
899.725159,469
899.841553,476
899.957947,450
900.07428,473
900.190552,469
900.306946,467
900.423157,465
900.53949,451
900.655884,463
900.772156,479
900.888489,452
901.004822,462
901.121033,460
901.237366,443
901.353699,462
901.46991,441
901.586304,462
901.702515,484
901.818787,474
901.93512,472
902.051331,457
902.167603,459
902.283875,464
902.400085,474
902.516418,453
902.632629,444
902.74884,480
902.865112,477
902.981384,461
903.097595,456
903.213867,465
903.330017,468
903.446289,475
903.5625,480
903.67865,479
903.794922,461
903.911072,452
904.027344,460
904.143494,470
904.259705,455
904.375916,471
904.492065,469
904.608215,471
904.724426,487
904.840576,472
904.956726,476
905.072876,471
905.189087,455
905.305176,483
905.421387,460
905.537537,480
905.653687,481
905.769775,463
905.885925,470
906.002014,447
906.118164,476
906.234314,450
906.350403,475
906.466492,471
906.582642,474
906.69873,471
906.814758,476
906.930908,472
907.046936,454
907.163086,470
907.279175,465
907.395264,461
907.511353,475
907.62738,461
907.743408,482
907.859497,466
907.975525,469
908.091553,464
908.207703,483
908.32373,464
908.439758,470
908.555786,456
908.671814,465
908.787842,488
908.90387,459
909.019775,465
909.135864,478
909.251892,470
909.367859,481
909.483826,484
909.599854,466
909.715881,468
909.831848,489
909.947815,469
910.063782,486
910.179749,457
910.295776,477
910.411743,464
910.527649,493
910.643616,471
910.759583,460
910.875488,474
910.991455,466
911.107361,462
911.223267,462
911.339294,481
911.4552,486
911.571106,462
911.687073,457
911.802979,477
911.918823,458
912.034729,448
912.150635,458
912.266602,465
912.382446,471
912.498352,464
912.614197,455
912.730103,468
912.846008,485
