792.44574,1206
792.56488,1146
792.68396,1208
792.80304,1195
792.92218,1088
793.041199,1029
793.160339,1018
793.279419,998
793.398499,986
793.517578,960
793.636658,948
793.755737,960
793.874817,965
793.993896,930
794.112976,901
794.232056,829
794.351074,866
794.470215,873
794.589233,868
794.708313,822
794.827393,854
794.946411,844
795.065552,814
795.18457,810
795.303589,812
795.422668,789
795.541687,788
795.660767,765
795.779846,767
795.898865,746
796.017883,747
796.136963,736
796.255981,752
796.375061,735
796.49408,726
796.613037,741
796.732117,725
796.851135,701
796.970154,712
797.089233,718
797.208191,709
797.327271,691
797.446228,684
797.565186,707
797.684265,693
797.803223,667
797.922241,655
798.04126,682
798.160278,687
798.279297,675
798.398315,677
798.517273,672
798.636292,652
798.75531,652
798.874268,658
798.993286,628
799.112244,657
799.231323,652
799.350281,660
799.469238,654
799.588257,663
799.707153,651
799.826111,645
799.945129,657
800.064087,649
800.183044,651
800.302063,647
800.421021,662
800.539978,648
800.658936,652
800.777893,616
800.896912,618
801.015747,626
801.134705,622
801.253723,623
801.37262,634
801.491638,633
801.610535,633
801.729492,632
801.84845,613
801.967407,626
802.086243,601
802.205261,620
802.324158,606
802.443115,595
802.562073,600
802.680969,614
802.799927,603
802.918762,606
803.037659,602
803.156677,614
803.275574,618
803.39447,613
803.513428,592
803.632263,609
803.751221,614
803.870117,627
803.989014,579
804.107971,575
804.226746,581
804.345642,569
804.4646,583
804.583496,605
804.702393,586
804.821228,597
804.940125,620
805.059021,579
805.177917,572
805.296814,596
805.415649,580
805.534546,589
805.653442,584
805.772278,600
805.891113,597
806.01001,608
806.128906,581
806.247742,614
806.366577,593
806.485413,565
806.604309,591
806.723145,595
806.84198,588
806.960876,565
807.079712,577
807.198486,606
807.317383,587
807.436218,569
807.554993,590
807.673889,572
807.792725,577
807.91156,572
808.030396,586
808.14917,566
808.268005,562
808.386841,596
808.505676,560
808.624451,557
808.743286,579
808.862122,569
808.980896,561
809.099731,546
809.218506,589
809.337341,568
809.456116,567
809.57489,559
809.693726,577
809.8125,574
809.931274,550
810.050049,572
810.168884,585
810.287659,572
810.406372,603
810.525269,579
810.643982,593
810.762756,566
810.881531,584
811.000305,578
811.11908,585
811.237854,575
811.356567,575
811.475403,600
811.594116,563
811.71283,580
811.831604,586
811.950378,594
812.069153,575
812.187927,594
812.30658,573
812.425415,593
812.544128,590
812.662781,600
812.781616,598
812.900269,572
813.019043,586
813.137756,587
813.256531,555
813.375244,583
813.493896,570
813.612671,572
813.731384,580
813.850037,566
813.96875,570
814.087524,563
814.206238,543
814.324951,598
814.443604,543
814.562256,561
814.68103,556
814.799683,582
814.918335,575
815.037109,566
815.155762,563
815.274475,587
815.393188,575
815.511841,570
815.630554,571
815.749146,553
815.867859,561
815.986572,563
816.105164,576
816.223877,575
816.342529,542
816.461182,582
816.579895,572
816.698486,555
816.817139,556
816.935791,568
817.054504,580
817.173096,588
817.291748,601
817.4104,561
817.529053,585
817.647644,572
817.766235,539
817.884949,568
818.00354,549
818.122192,519
818.240845,542
818.359436,554
818.478088,559
818.59668,529
818.715271,543
818.833923,551
818.952515,533
819.071106,550
819.189758,512
819.30835,540
819.426941,517
819.545532,522
819.664124,524
819.782715,517
819.901306,528
820.019897,538
820.138489,520
820.25708,536
820.375671,535
820.494202,533
820.612732,537
820.731384,536
820.849915,525
820.968506,548
821.087097,530
821.205627,532
821.324158,520
821.442749,521
821.561279,512
821.679871,512
821.798401,506
821.916931,509
822.035461,521
822.154053,504
822.272583,525
822.391174,511
822.509583,522
822.628174,536
822.746704,498
822.865234,510
822.983765,492
823.102295,517
823.220825,512
823.339294,514
823.457825,520
823.576355,513
823.694824,507
823.813354,501
823.931885,503
824.050354,514
824.168884,504
824.287354,543
824.405823,505
824.524353,518
824.642822,507
824.761353,501
824.879822,501
824.998291,514
825.116699,513
825.235291,510
825.353699,504
825.472168,517
825.590637,494
825.709106,516
825.827576,509
825.946045,517
826.064453,511
826.182983,497
826.301392,500
826.4198,512
826.53833,509
826.656738,494
826.775208,500
826.893677,515
827.012024,508
827.130493,493
827.248962,505
827.36731,518
827.485779,495
827.604248,509
827.722595,509
827.841064,507
827.959412,475
828.077942,479
828.196289,492
828.314636,505
828.433105,494
828.551514,494
828.669861,496
828.78833,500
828.906677,477
829.025085,524
829.143433,498
829.261841,511
829.38031,504
829.498657,486
829.617004,501
829.735413,497
829.85376,489
829.972107,502
830.090515,497
830.208862,511
830.327209,493
830.445557,500
830.563904,477
830.682312,495
830.800659,488
830.919006,497
831.037354,505
831.155701,541
831.274048,494
831.392395,512
831.51062,503
831.629028,493
831.747314,506
831.865662,480
831.984009,511
832.102356,522
832.220642,520
832.338928,511
832.457275,521
832.575623,508
832.693909,525
832.812134,511
832.930481,500
833.048828,491
833.167114,496
833.2854,512
833.403687,495
833.521973,518
833.640259,499
833.758545,502
833.876831,497
833.995056,515
834.113281,506
834.231628,519
834.349915,477
834.468201,512
834.586426,491
834.704651,510
834.822998,502
834.941162,504
835.059448,521
835.177673,520
835.295959,504
835.414246,511
835.53241,487
835.650635,486
835.768921,506
835.887146,500
836.005371,497
836.123596,500
836.241821,502
836.360046,497
836.478271,495
836.596497,492
836.714722,475
836.832886,492
836.95105,483
837.069336,501
837.1875,499
837.305725,486
837.423889,482
837.542053,502
837.660339,512
837.778503,503
837.896667,507
838.014832,507
838.132996,489
838.25116,500
838.369385,508
838.487488,500
838.605713,499
838.723877,509
838.84198,506
838.960205,528
839.078308,497
839.196472,522
839.314636,503
839.4328,523
839.550964,519
839.669067,505
839.787231,519
839.905396,528
840.023499,545
840.141602,539
840.259766,509
840.377869,526
840.495972,534
840.614136,532
840.732239,539
840.850342,525
840.968445,526
841.086548,530
841.204651,537
841.322754,555
841.440918,541
841.55896,525
841.677002,555
841.795166,548
841.913208,533
842.031311,559
842.149353,571
842.267456,542
842.385498,563
842.503601,555
842.621643,565
842.739746,534
842.857788,545
842.97583,547
843.093933,515
843.211975,546
843.330017,556
843.44812,539
843.566101,546
843.684204,522
843.802246,543
843.920227,519
844.038269,532
844.156311,546
844.274292,541
844.392395,515
844.510376,538
844.628357,534
844.74646,528
844.864441,542
844.982422,519
845.100403,536
845.218384,525
845.336426,525
845.454468,526
845.572449,529
845.69043,503
845.808411,527
845.926453,516
846.044373,526
846.162354,523
846.280396,526
846.398315,532
846.516296,539
846.634216,516
846.752197,536
846.870178,539
846.988098,532
847.106079,532
847.22406,536
847.34198,524
847.4599,541
847.577881,518
847.695801,538
847.813782,536
847.931641,522
848.049561,523
848.167603,540
848.285461,545
848.403381,519
848.521362,501
848.639221,534
848.75708,535
848.875,543
848.99292,543
849.110901,533
849.22876,534
849.34668,532
849.464539,536
849.582458,558
849.700317,533
849.818176,563
849.936096,536
850.053955,539
850.171875,527
850.289673,543
850.407593,531
850.525452,546
850.643311,526
850.761169,551
850.878967,517
850.996887,526
851.114746,533
851.232544,528
851.350403,530
851.468262,530
851.58606,521
851.703979,505
851.821777,523
851.939636,544
852.057434,536
852.175232,551
852.293091,528
852.410889,563
852.528687,549
852.646545,565
852.764343,555
852.88208,551
852.999939,523
853.117676,532
853.235535,532
853.353271,544
853.471069,529
853.588928,518
853.706604,514
853.824402,522
853.9422,537
854.059998,533
854.177734,514
854.295532,528
854.413269,531
854.531006,514
854.648804,539
854.766541,536
854.884277,554
855.002014,545
855.119751,546
855.237549,527
855.355225,535
855.473022,547
855.590698,521
855.708435,540
855.826172,538
855.943848,543
856.061646,558
856.179321,550
856.296997,544
856.414795,539
856.53241,548
856.650085,549
856.767822,553
856.885559,560
857.003174,560
857.120911,549
857.238586,553
857.356201,552
857.473938,540
857.591614,559
857.709351,545
857.826965,545
857.944641,550
858.062317,532
858.179993,540
858.297668,556
858.415283,532
858.532959,538
858.650574,555
858.768188,559
858.885803,524
859.003479,539
859.121094,549
859.23877,538
859.356384,523
859.473999,530
859.591675,530
859.709229,539
859.826843,541
859.944458,538
860.062012,523
860.179626,544
860.297302,556
860.414856,527
860.532471,528
860.650024,514
860.767639,517
860.885193,530
861.002808,525
861.120361,520
861.237976,548
861.35553,518
861.473022,514
861.590698,527
861.708191,529
861.825745,529
861.943298,513
862.060852,523
862.178406,510
862.295959,505
862.413513,515
862.531006,497
862.64856,496
862.766113,515
862.883667,489
863.00116,509
863.118713,509
863.236206,515
863.353699,498
863.471252,510
863.588745,509
863.706177,509
863.82373,518
863.941162,514
864.058716,517
864.176208,510
864.29364,504
864.411194,528
864.528687,491
864.646118,510
864.763611,491
864.881042,503
864.998535,526
865.116028,518
865.233459,512
865.350891,536
865.468384,487
865.585754,508
865.703308,495
865.820679,530
865.938171,522
866.055542,486
866.173035,511
866.290466,513
866.407837,517
866.52533,514
866.6427,496
866.760071,522
866.877563,507
866.994934,511
867.112305,505
867.229736,512
867.347107,500
867.464539,502
867.58197,493
867.699341,526
867.81665,499
867.934082,499
868.051453,524
868.168823,517
868.286194,499
868.403564,514
868.520935,514
868.638306,506
868.755676,510
868.872986,513
868.990295,526
869.107727,548
869.225037,511
869.342346,511
869.459717,536
869.577026,529
869.694336,543
869.811707,540
869.929016,537
870.046326,528
870.163635,543
870.280945,535
870.398254,528
870.515564,538
870.632812,544
870.750183,559
870.867432,555
870.984741,546
871.102051,546
871.219299,563
871.336609,571
871.453918,565
871.571106,536
871.688416,550
871.805664,577
871.922852,555
872.040222,577
872.157471,551
872.274719,553
872.391968,535
872.509155,549
872.626465,543
872.743652,556
872.860962,528
872.978149,548
873.095337,541
873.212646,539
873.329834,539
873.44696,558
873.564209,541
873.681396,545
873.798645,544
873.915894,533
874.03302,541
874.150208,530
874.267456,550
874.384583,566
874.501831,555
874.618958,555
874.736145,538
874.853333,568
874.970459,555
875.087646,557
875.204834,571
875.32196,543
875.439148,533
875.556274,539
875.673401,556
875.790527,542
875.907715,553
876.024841,545
876.141968,539
876.259094,527
876.376282,516
876.493347,541
876.610474,532
876.7276,513
876.844727,551
876.961853,535
877.078918,546
877.195984,539
877.313171,518
877.430237,531
877.547302,514
877.664368,503
877.781433,547
877.898499,524
878.015625,535
878.13269,515
878.249695,537
878.366821,525
878.483887,506
878.600952,512
878.717957,528
878.834961,516
878.952087,523
879.069092,505
879.186157,496
879.303162,511
879.420227,504
879.537231,494
879.654236,508
879.77124,522
879.888306,515
880.005249,509
880.122314,511
880.239319,485
880.356323,511
880.473328,515
880.590271,497
880.707275,500
880.824341,487
880.941284,491
881.058228,490
881.175232,513
881.292236,497
881.40918,487
881.526123,511
881.643066,479
881.760071,500
881.877014,496
881.993958,516
882.11084,504
882.227783,500
882.344727,489
882.46167,514
882.578613,494
882.695618,501
882.812439,496
882.929382,503
883.046326,497
883.163208,513
883.280151,491
883.397034,483
883.513916,494
883.630798,518
883.747742,513
883.864563,523
883.981506,508
884.098389,527
884.21521,514
884.332153,517
884.448975,500
884.565796,532
884.682678,533
884.7995,545
884.916443,553
885.033264,588
885.150085,582
885.266968,609
885.383789,596
885.500671,616
885.617493,605
885.734314,616
885.851196,594
885.967896,602
886.084717,608
886.201599,590
886.318359,582
886.435181,604
886.552002,572
886.668762,588
886.785645,565
886.902344,574
887.019165,565
887.135925,578
887.252747,576
887.369446,560
887.486267,581
887.603027,562
887.719788,516
887.836548,548
887.953247,526
888.070068,520
888.186829,501
888.303528,529
888.420288,512
888.536987,500
888.653687,497
888.770447,500
888.887146,478
889.003967,521
889.120667,493
889.237305,496
889.354065,470
889.470703,470
889.587463,485
889.704163,507
889.820862,486
889.937561,487
890.054199,488
890.170837,471
890.287598,492
890.404236,458
890.520874,482
890.637634,471
890.754211,478
890.87085,485
890.987549,474
891.104187,493
891.220886,471
891.337463,494
891.454102,475
891.57074,492
891.687378,487
891.804077,477
891.920654,471
892.037231,496
892.15387,503
892.270447,482
892.387085,493
892.503723,484
892.6203,480
892.736877,494
892.853516,495
892.970032,485
893.08667,477
893.203186,479
893.319763,482
893.43634,487
893.552917,484
893.669556,474
893.786011,482
893.902588,477
894.019165,493
894.135681,493
894.252197,476
894.368835,501
894.485291,463
894.601868,492
894.718384,465
894.8349,476
894.951355,485
895.067932,482
895.184448,468
895.300964,497
895.417419,463
895.533936,460
895.650452,466
895.766907,472
895.883423,456
895.999878,480
896.116333,490
896.232849,469
896.349304,480
896.465759,492
896.582214,473
896.698669,473
896.815125,455
896.931641,475
897.048035,500
897.164551,491
897.280884,478
897.397339,475
897.513794,466
897.630249,491
897.746582,488
897.863098,484
897.979431,464
898.095886,490
898.212341,471
898.328674,512
898.445129,487
898.561462,488
898.677795,468
898.794312,500
898.910645,477
899.026978,506
899.143433,475
899.259766,468
899.37616,502
899.492493,488
899.608765,479
899.725159,487
899.841553,480
899.957947,493
900.07428,498
900.190552,497
900.306946,471
900.423157,483
900.53949,474
900.655884,496
900.772156,478
900.888489,498
901.004822,493
901.121033,481
901.237366,479
901.353699,483
901.46991,499
901.586304,503
901.702515,499
901.818787,510
901.93512,497
902.051331,501
902.167603,512
902.283875,539
902.400085,539
902.516418,532
902.632629,529
902.74884,551
902.865112,543
902.981384,549
903.097595,532
903.213867,573
903.330017,544
903.446289,530
903.5625,527
903.67865,540
903.794922,512
903.911072,554
904.027344,519
904.143494,504
904.259705,500
904.375916,525
904.492065,500
904.608215,523
904.724426,489
904.840576,494
904.956726,495
905.072876,502
905.189087,490
905.305176,498
905.421387,489
905.537537,494
905.653687,492
905.769775,498
905.885925,475
906.002014,481
906.118164,465
906.234314,472
906.350403,474
906.466492,481
906.582642,466
906.69873,482
906.814758,463
906.930908,483
907.046936,472
907.163086,497
907.279175,464
907.395264,488
907.511353,473
907.62738,482
907.743408,475
907.859497,501
907.975525,484
908.091553,485
908.207703,473
908.32373,470
908.439758,474
908.555786,472
908.671814,487
908.787842,475
908.90387,470
909.019775,476
909.135864,478
909.251892,489
909.367859,494
909.483826,488
909.599854,482
909.715881,476
909.831848,477
909.947815,466
910.063782,484
910.179749,488
910.295776,481
910.411743,466
910.527649,480
910.643616,501
910.759583,460
910.875488,489
910.991455,474
911.107361,471
911.223267,479
911.339294,475
911.4552,471
911.571106,482
911.687073,454
911.802979,466
911.918823,460
912.034729,469
912.150635,472
912.266602,495
912.382446,467
912.498352,452
912.614197,477
912.730103,465
912.846008,472
792.44574,1171
792.56488,1196
792.68396,1217
792.80304,1166
792.92218,1065
793.041199,1056
793.160339,1048
793.279419,1007
793.398499,989
793.517578,998
793.636658,976
793.755737,935
793.874817,927
793.993896,914
794.112976,901
794.232056,878
794.351074,888
794.470215,865
794.589233,857
794.708313,842
794.827393,835
794.946411,833
795.065552,846
795.18457,830
795.303589,832
795.422668,791
795.541687,788
795.660767,771
795.779846,766
795.898865,750
796.017883,741
796.136963,771
796.255981,733
796.375061,760
796.49408,744
796.613037,747
796.732117,726
796.851135,713
796.970154,717
797.089233,723
797.208191,714
797.327271,685
797.446228,674
797.565186,715
797.684265,688
797.803223,700
797.922241,709
798.04126,699
798.160278,652
798.279297,670
798.398315,669
798.517273,651
798.636292,698
798.75531,669
798.874268,679
798.993286,661
799.112244,648
799.231323,642
799.350281,650
799.469238,683
799.588257,660
799.707153,667
799.826111,659
799.945129,651
800.064087,647
800.183044,652
800.302063,629
800.421021,641
800.539978,614
800.658936,647
800.777893,641
800.896912,631
801.015747,642
801.134705,636
801.253723,604
801.37262,619
801.491638,623
801.610535,615
801.729492,613
801.84845,608
801.967407,610
802.086243,607
802.205261,639
802.324158,603
802.443115,621
802.562073,596
802.680969,620
802.799927,629
802.918762,599
803.037659,572
803.156677,602
803.275574,638
803.39447,603
803.513428,607
803.632263,609
803.751221,615
803.870117,593
803.989014,587
804.107971,591
804.226746,591
804.345642,599
804.4646,615
804.583496,600
804.702393,597
804.821228,576
804.940125,569
805.059021,586
805.177917,597
805.296814,583
805.415649,589
805.534546,580
805.653442,560
805.772278,568
805.891113,604
806.01001,586
806.128906,578
806.247742,605
806.366577,594
806.485413,575
806.604309,589
806.723145,598
806.84198,573
806.960876,555
807.079712,585
807.198486,604
807.317383,584
807.436218,598
807.554993,582
807.673889,579
807.792725,603
807.91156,582
808.030396,572
808.14917,577
808.268005,581
808.386841,553
808.505676,574
808.624451,594
808.743286,579
808.862122,575
808.980896,575
809.099731,584
809.218506,576
809.337341,590
809.456116,575
809.57489,570
809.693726,595
809.8125,583
809.931274,564
810.050049,570
810.168884,592
810.287659,561
810.406372,583
810.525269,574
810.643982,582
810.762756,584
810.881531,599
811.000305,573
811.11908,582
811.237854,574
811.356567,576
811.475403,587
811.594116,577
811.71283,575
811.831604,591
811.950378,587
812.069153,596
812.187927,570
812.30658,581
812.425415,581
812.544128,608
812.662781,576
812.781616,584
812.900269,574
813.019043,579
813.137756,595
813.256531,586
813.375244,573
813.493896,595
813.612671,569
813.731384,565
813.850037,540
813.96875,561
814.087524,579
814.206238,545
814.324951,543
814.443604,568
814.562256,573
814.68103,575
814.799683,584
814.918335,542
815.037109,559
815.155762,573
815.274475,579
815.393188,563
815.511841,555
815.630554,568
815.749146,552
815.867859,570
815.986572,571
816.105164,551
816.223877,586
816.342529,583
816.461182,575
816.579895,579
816.698486,560
816.817139,573
816.935791,589
817.054504,566
817.173096,571
817.291748,569
817.4104,560
817.529053,571
817.647644,545
817.766235,539
817.884949,574
818.00354,571
818.122192,546
818.240845,549
818.359436,547
818.478088,535
818.59668,549
818.715271,560
818.833923,561
818.952515,518
819.071106,518
819.189758,540
819.30835,526
819.426941,542
819.545532,525
819.664124,520
819.782715,537
819.901306,512
820.019897,529
820.138489,529
820.25708,527
820.375671,531
820.494202,518
820.612732,549
820.731384,530
820.849915,523
820.968506,508
821.087097,527
821.205627,510
821.324158,556
821.442749,512
821.561279,532
821.679871,514
821.798401,513
821.916931,508
822.035461,509
822.154053,516
822.272583,500
822.391174,505
822.509583,522
822.628174,515
822.746704,526
822.865234,497
822.983765,515
823.102295,504
823.220825,509
823.339294,503
823.457825,512
823.576355,522
823.694824,498
823.813354,514
823.931885,520
824.050354,482
824.168884,503
824.287354,513
824.405823,527
824.524353,508
824.642822,514
824.761353,514
824.879822,498
824.998291,501
825.116699,516
825.235291,513
825.353699,520
825.472168,498
825.590637,520
825.709106,504
825.827576,497
825.946045,521
826.064453,504
826.182983,503
826.301392,498
826.4198,495
826.53833,507
826.656738,512
826.775208,484
826.893677,500
827.012024,517
827.130493,478
827.248962,512
827.36731,520
827.485779,505
827.604248,480
827.722595,525
827.841064,528
827.959412,484
828.077942,489
828.196289,494
828.314636,486
828.433105,512
828.551514,491
828.669861,510
828.78833,491
828.906677,494
829.025085,491
829.143433,495
829.261841,509
829.38031,511
829.498657,481
829.617004,497
829.735413,517
829.85376,498
829.972107,493
830.090515,483
830.208862,491
830.327209,478
830.445557,496
830.563904,499
830.682312,485
830.800659,487
830.919006,485
831.037354,501
831.155701,493
831.274048,496
831.392395,499
831.51062,499
831.629028,507
831.747314,506
831.865662,501
831.984009,500
832.102356,501
832.220642,495
832.338928,490
832.457275,519
832.575623,494
832.693909,515
832.812134,511
832.930481,511
833.048828,499
833.167114,505
833.2854,501
833.403687,499
833.521973,520
833.640259,498
833.758545,498
833.876831,492
833.995056,490
834.113281,525
834.231628,490
834.349915,487
834.468201,516
834.586426,511
834.704651,491
834.822998,482
834.941162,490
835.059448,494
835.177673,516
835.295959,527
835.414246,516
835.53241,503
835.650635,482
835.768921,475
835.887146,491
836.005371,491
836.123596,501
836.241821,501
836.360046,496
836.478271,477
836.596497,493
836.714722,494
836.832886,509
836.95105,515
837.069336,503
837.1875,519
837.305725,481
837.423889,532
837.542053,506
837.660339,491
837.778503,488
837.896667,492
838.014832,492
838.132996,480
838.25116,499
838.369385,505
838.487488,495
838.605713,511
838.723877,526
838.84198,500
838.960205,503
839.078308,524
839.196472,497
839.314636,506
839.4328,512
839.550964,528
839.669067,518
839.787231,505
839.905396,525
840.023499,521
840.141602,520
840.259766,543
840.377869,541
840.495972,534
840.614136,527
840.732239,527
840.850342,524
840.968445,546
841.086548,549
841.204651,554
841.322754,555
841.440918,522
841.55896,539
841.677002,544
841.795166,535
841.913208,549
842.031311,544
842.149353,540
842.267456,541
842.385498,538
842.503601,541
842.621643,535
842.739746,532
842.857788,527
842.97583,556
843.093933,535
843.211975,535
843.330017,563
843.44812,525
843.566101,552
843.684204,534
843.802246,524
843.920227,543
844.038269,529
844.156311,535
844.274292,535
844.392395,518
844.510376,552
844.628357,516
844.74646,520
844.864441,526
844.982422,514
845.100403,520
845.218384,525
845.336426,518
845.454468,529
845.572449,500
845.69043,526
845.808411,531
845.926453,526
846.044373,530
846.162354,524
846.280396,518
846.398315,523
846.516296,525
846.634216,523
846.752197,526
846.870178,540
846.988098,519
847.106079,551
847.22406,518
847.34198,541
847.4599,534
847.577881,531
847.695801,532
847.813782,514
847.931641,527
848.049561,501
848.167603,509
848.285461,539
848.403381,539
848.521362,541
848.639221,532
848.75708,512
848.875,527
848.99292,536
849.110901,522
849.22876,539
849.34668,525
849.464539,530
849.582458,511
849.700317,529
849.818176,511
849.936096,529
850.053955,513
850.171875,509
850.289673,530
850.407593,561
850.525452,533
850.643311,552
850.761169,513
850.878967,530
850.996887,523
851.114746,508
851.232544,509
851.350403,511
851.468262,530
851.58606,526
851.703979,502
851.821777,503
851.939636,511
852.057434,526
852.175232,515
852.293091,537
852.410889,522
852.528687,537
852.646545,567
852.764343,560
852.88208,548
852.999939,562
853.117676,536
853.235535,525
853.353271,554
853.471069,517
853.588928,518
853.706604,518
853.824402,516
853.9422,532
854.059998,543
854.177734,530
854.295532,526
854.413269,521
854.531006,542
854.648804,517
854.766541,534
854.884277,528
855.002014,535
855.119751,526
855.237549,541
855.355225,539
855.473022,549
855.590698,554
855.708435,518
855.826172,550
855.943848,525
856.061646,528
856.179321,533
856.296997,556
856.414795,554
856.53241,526
856.650085,549
856.767822,553
856.885559,558
857.003174,531
857.120911,551
857.238586,575
857.356201,544
857.473938,561
857.591614,537
857.709351,553
857.826965,536
857.944641,530
858.062317,538
858.179993,552
858.297668,548
858.415283,553
858.532959,525
858.650574,524
858.768188,536
858.885803,542
859.003479,547
859.121094,539
859.23877,558
859.356384,567
859.473999,529
859.591675,538
859.709229,530
859.826843,556
859.944458,537
860.062012,517
860.179626,518
860.297302,537
860.414856,533
860.532471,540
860.650024,542
860.767639,519
860.885193,522
861.002808,516
861.120361,528
861.237976,531
861.35553,526
861.473022,507
861.590698,531
861.708191,516
861.825745,525
861.943298,524
862.060852,515
862.178406,513
862.295959,488
862.413513,497
862.531006,498
862.64856,510
862.766113,513
862.883667,497
863.00116,484
863.118713,497
863.236206,509
863.353699,499
863.471252,517
863.588745,515
863.706177,514
863.82373,512
863.941162,510
864.058716,528
864.176208,500
864.29364,504
864.411194,483
864.528687,530
864.646118,505
864.763611,489
864.881042,518
864.998535,483
865.116028,511
865.233459,522
865.350891,484
865.468384,501
865.585754,516
865.703308,496
865.820679,494
865.938171,502
866.055542,500
866.173035,495
866.290466,517
866.407837,482
866.52533,500
866.6427,496
866.760071,515
866.877563,505
866.994934,510
867.112305,488
867.229736,507
867.347107,498
867.464539,506
867.58197,519
867.699341,527
867.81665,516
867.934082,493
868.051453,520
868.168823,501
868.286194,519
868.403564,513
868.520935,525
868.638306,521
868.755676,526
868.872986,505
868.990295,503
869.107727,530
869.225037,527
869.342346,523
869.459717,516
869.577026,505
869.694336,559
869.811707,505
869.929016,525
870.046326,536
870.163635,531
870.280945,539
870.398254,527
870.515564,533
870.632812,552
870.750183,537
870.867432,541
870.984741,528
871.102051,552
871.219299,554
871.336609,543
871.453918,543
871.571106,557
871.688416,517
871.805664,545
871.922852,538
872.040222,542
872.157471,543
872.274719,564
872.391968,574
872.509155,556
872.626465,558
872.743652,559
872.860962,569
872.978149,550
873.095337,542
873.212646,523
873.329834,537
873.44696,569
873.564209,540
873.681396,557
873.798645,528
873.915894,535
874.03302,532
874.150208,535
874.267456,520
874.384583,542
874.501831,555
874.618958,554
874.736145,555
874.853333,565
874.970459,562
875.087646,540
875.204834,546
875.32196,546
875.439148,555
875.556274,552
875.673401,548
875.790527,543
875.907715,541
876.024841,548
876.141968,542
876.259094,557
876.376282,531
876.493347,525
876.610474,517
876.7276,553
876.844727,519
876.961853,518
877.078918,528
877.195984,518
877.313171,513
877.430237,513
877.547302,529
877.664368,536
877.781433,509
877.898499,519
878.015625,496
878.13269,527
878.249695,511
878.366821,518
878.483887,510
878.600952,518
878.717957,524
878.834961,516
878.952087,500
879.069092,521
879.186157,515
879.303162,501
879.420227,495
879.537231,517
879.654236,509
879.77124,503
879.888306,505
880.005249,505
880.122314,511
880.239319,506
880.356323,508
880.473328,500
880.590271,489
880.707275,525
880.824341,490
880.941284,516
881.058228,509
881.175232,508
881.292236,481
881.40918,472
881.526123,499
881.643066,507
881.760071,483
881.877014,504
881.993958,503
882.11084,501
882.227783,485
882.344727,505
882.46167,498
882.578613,499
882.695618,499
882.812439,497
882.929382,481
883.046326,509
883.163208,508
883.280151,500
883.397034,483
883.513916,518
883.630798,481
883.747742,509
883.864563,490
883.981506,505
884.098389,521
884.21521,522
884.332153,508
884.448975,511
884.565796,526
884.682678,520
884.7995,539
884.916443,545
885.033264,587
885.150085,580
885.266968,597
885.383789,585
885.500671,605
885.617493,601
885.734314,609
885.851196,615
885.967896,604
886.084717,613
886.201599,596
886.318359,619
886.435181,599
886.552002,585
886.668762,574
886.785645,587
886.902344,585
887.019165,568
887.135925,555
887.252747,613
887.369446,554
887.486267,553
887.603027,568
887.719788,543
887.836548,559
887.953247,534
888.070068,513
888.186829,526
888.303528,518
888.420288,517
888.536987,489
888.653687,481
888.770447,490
888.887146,495
889.003967,495
889.120667,495
889.237305,490
889.354065,468
889.470703,479
889.587463,474
889.704163,484
889.820862,496
889.937561,472
890.054199,472
890.170837,468
890.287598,470
890.404236,496
890.520874,493
890.637634,488
890.754211,494
890.87085,497
890.987549,493
891.104187,491
891.220886,493
891.337463,483
891.454102,484
891.57074,496
891.687378,479
891.804077,475
891.920654,483
892.037231,472
892.15387,473
892.270447,472
892.387085,506
892.503723,492
892.6203,489
892.736877,500
892.853516,490
892.970032,473
893.08667,491
893.203186,470
893.319763,503
893.43634,495
893.552917,490
893.669556,464
893.786011,479
893.902588,483
894.019165,489
894.135681,471
894.252197,471
894.368835,452
894.485291,505
894.601868,472
894.718384,486
894.8349,471
894.951355,484
895.067932,468
895.184448,472
895.300964,483
895.417419,478
895.533936,475
895.650452,475
895.766907,482
895.883423,487
895.999878,455
896.116333,490
896.232849,460
896.349304,472
896.465759,463
896.582214,465
896.698669,474
896.815125,468
896.931641,466
897.048035,491
897.164551,463
897.280884,459
897.397339,488
897.513794,475
897.630249,482
897.746582,475
897.863098,498
897.979431,497
898.095886,469
898.212341,493
898.328674,476
898.445129,487
898.561462,478
898.677795,497
898.794312,488
898.910645,468
899.026978,487
899.143433,480
899.259766,482
899.37616,479
899.492493,477
899.608765,497
899.725159,495
899.841553,483
899.957947,478
900.07428,486
900.190552,483
900.306946,471
900.423157,502
900.53949,476
900.655884,496
900.772156,504
900.888489,472
901.004822,464
901.121033,492
901.237366,498
901.353699,483
901.46991,507
901.586304,487
901.702515,505
901.818787,517
901.93512,510
902.051331,515
902.167603,503
902.283875,525
902.400085,531
902.516418,539
902.632629,552
902.74884,548
902.865112,547
902.981384,568
903.097595,559
903.213867,523
903.330017,527
903.446289,518
903.5625,522
903.67865,524
903.794922,522
903.911072,528
904.027344,521
904.143494,526
904.259705,505
904.375916,513
904.492065,495
904.608215,488
904.724426,497
904.840576,502
904.956726,484
905.072876,514
905.189087,503
905.305176,487
905.421387,498
905.537537,466
905.653687,479
905.769775,496
905.885925,477
906.002014,482
906.118164,484
906.234314,472
906.350403,476
906.466492,462
906.582642,500
906.69873,483
906.814758,495
906.930908,482
907.046936,471
907.163086,484
907.279175,479
907.395264,479
907.511353,474
907.62738,477
907.743408,466
907.859497,468
907.975525,474
908.091553,464
908.207703,485
908.32373,474
908.439758,473
908.555786,487
908.671814,457
908.787842,480
908.90387,474
909.019775,486
909.135864,473
909.251892,487
909.367859,455
909.483826,495
909.599854,478
909.715881,468
909.831848,474
909.947815,464
910.063782,470
910.179749,460
910.295776,488
910.411743,464
910.527649,493
910.643616,465
910.759583,487
910.875488,468
910.991455,475
911.107361,487
911.223267,479
911.339294,497
911.4552,474
911.571106,471
911.687073,467
911.802979,483
911.918823,464
912.034729,471
912.150635,475
912.266602,483
912.382446,460
912.498352,467
912.614197,491
912.730103,460
912.846008,445
792.44574,1205
792.56488,1174
792.68396,1198
792.80304,1166
792.92218,1106
793.041199,1018
793.160339,1024
793.279419,1043
793.398499,1006
793.517578,961
793.636658,980
793.755737,965
793.874817,946
793.993896,943
794.112976,907
794.232056,864
794.351074,889
794.470215,887
794.589233,844
794.708313,830
794.827393,816
794.946411,798
795.065552,806
795.18457,794
795.303589,814
795.422668,806
795.541687,768
795.660767,783
795.779846,783
795.898865,761
796.017883,778
796.136963,738
796.255981,746
796.375061,738
796.49408,741
796.613037,745
796.732117,720
796.851135,749
796.970154,704
797.089233,736
797.208191,703
797.327271,719
797.446228,684
797.565186,701
797.684265,690
797.803223,709
797.922241,692
798.04126,651
798.160278,684
798.279297,683
798.398315,703
798.517273,678
798.636292,658
798.75531,671
798.874268,670
798.993286,659
799.112244,662
799.231323,664
799.350281,650
799.469238,646
799.588257,655
799.707153,644
799.826111,673
799.945129,669
800.064087,668
800.183044,648
800.302063,650
800.421021,624
800.539978,643
800.658936,621
800.777893,631
800.896912,629
801.015747,617
801.134705,632
801.253723,635
801.37262,630
801.491638,654
801.610535,625
801.729492,613
801.84845,625
801.967407,620
802.086243,599
802.205261,602
802.324158,605
802.443115,610
802.562073,604
802.680969,618
802.799927,639
802.918762,604
803.037659,606
803.156677,610
803.275574,611
803.39447,605
803.513428,601
803.632263,619
803.751221,588
803.870117,585
803.989014,592
804.107971,614
804.226746,585
804.345642,616
804.4646,598
804.583496,605
804.702393,581
804.821228,608
804.940125,603
805.059021,611
805.177917,589
805.296814,588
805.415649,583
805.534546,605
805.653442,574
805.772278,593
805.891113,580
806.01001,613
806.128906,571
806.247742,598
806.366577,576
806.485413,587
806.604309,590
806.723145,598
806.84198,591
806.960876,583
807.079712,603
807.198486,604
807.317383,613
807.436218,589
807.554993,563
807.673889,593
807.792725,581
807.91156,574
808.030396,581
808.14917,599
808.268005,581
808.386841,574
808.505676,577
808.624451,576
808.743286,575
808.862122,577
808.980896,558
809.099731,568
809.218506,580
809.337341,594
809.456116,586
809.57489,595
809.693726,572
809.8125,559
809.931274,561
810.050049,575
810.168884,575
810.287659,568
810.406372,577
810.525269,586
810.643982,564
810.762756,581
810.881531,567
811.000305,572
811.11908,581
811.237854,588
811.356567,564
811.475403,581
811.594116,567
811.71283,584
811.831604,581
811.950378,574
812.069153,599
812.187927,602
812.30658,605
812.425415,593
812.544128,591
812.662781,600
812.781616,606
812.900269,585
813.019043,565
813.137756,579
813.256531,571
813.375244,578
813.493896,583
813.612671,574
813.731384,584
813.850037,561
813.96875,574
814.087524,582
814.206238,557
814.324951,576
814.443604,562
814.562256,595
814.68103,555
814.799683,588
814.918335,563
815.037109,565
815.155762,585
815.274475,553
815.393188,560
815.511841,554
815.630554,555
815.749146,552
815.867859,550
815.986572,558
816.105164,566
816.223877,584
816.342529,554
816.461182,588
816.579895,566
816.698486,580
816.817139,562
816.935791,567
817.054504,586
817.173096,575
817.291748,579
817.4104,589
817.529053,558
817.647644,544
817.766235,541
817.884949,564
818.00354,552
818.122192,552
818.240845,538
818.359436,550
818.478088,531
818.59668,563
818.715271,533
818.833923,541
818.952515,538
819.071106,525
819.189758,528
819.30835,520
819.426941,540
819.545532,524
819.664124,507
819.782715,526
819.901306,532
820.019897,552
820.138489,512
820.25708,516
820.375671,542
820.494202,541
820.612732,540
820.731384,519
820.849915,522
820.968506,520
821.087097,518
821.205627,535
821.324158,511
821.442749,521
821.561279,513
821.679871,554
821.798401,504
821.916931,512
822.035461,489
822.154053,519
822.272583,509
822.391174,514
822.509583,514
822.628174,510
822.746704,487
822.865234,510
822.983765,509
823.102295,518
823.220825,505
823.339294,496
823.457825,513
823.576355,505
823.694824,517
823.813354,520
823.931885,506
824.050354,529
824.168884,481
824.287354,506
824.405823,533
824.524353,523
824.642822,517
824.761353,529
824.879822,526
824.998291,529
825.116699,520
825.235291,507
825.353699,489
825.472168,516
825.590637,495
825.709106,522
825.827576,498
825.946045,505
826.064453,511
826.182983,521
826.301392,491
826.4198,500
826.53833,491
826.656738,523
826.775208,481
826.893677,484
827.012024,505
827.130493,505
827.248962,490
827.36731,507
827.485779,503
827.604248,496
827.722595,499
827.841064,514
827.959412,498
828.077942,499
828.196289,503
828.314636,482
828.433105,488
828.551514,508
828.669861,488
828.78833,474
828.906677,506
829.025085,497
829.143433,495
829.261841,507
829.38031,489
829.498657,480
829.617004,495
829.735413,511
829.85376,492
829.972107,517
830.090515,501
830.208862,490
830.327209,497
830.445557,487
830.563904,495
830.682312,505
830.800659,492
830.919006,491
831.037354,496
831.155701,506
831.274048,526
831.392395,509
831.51062,489
831.629028,509
831.747314,532
831.865662,517
831.984009,491
832.102356,514
832.220642,495
832.338928,504
832.457275,507
832.575623,515
832.693909,498
832.812134,532
832.930481,512
833.048828,495
833.167114,499
833.2854,497
833.403687,505
833.521973,511
833.640259,499
833.758545,518
833.876831,493
833.995056,527
834.113281,505
834.231628,515
834.349915,508
834.468201,502
834.586426,509
834.704651,507
834.822998,481
834.941162,504
835.059448,500
835.177673,503
835.295959,486
835.414246,521
835.53241,496
835.650635,521
835.768921,491
835.887146,514
836.005371,486
836.123596,498
836.241821,482
836.360046,512
836.478271,517
836.596497,481
836.714722,536
836.832886,488
836.95105,499
837.069336,489
837.1875,477
837.305725,509
837.423889,483
837.542053,491
837.660339,494
837.778503,510
837.896667,502
838.014832,497
838.132996,503
838.25116,505
838.369385,503
838.487488,523
838.605713,517
838.723877,505
838.84198,517
838.960205,503
839.078308,487
839.196472,533
839.314636,538
839.4328,533
839.550964,497
839.669067,519
839.787231,542
839.905396,530
840.023499,536
840.141602,538
840.259766,526
840.377869,535
840.495972,528
840.614136,556
840.732239,528
840.850342,527
840.968445,539
841.086548,553
841.204651,520
841.322754,535
841.440918,548
841.55896,543
841.677002,540
841.795166,557
841.913208,542
842.031311,574
842.149353,554
842.267456,556
842.385498,541
842.503601,549
842.621643,531
842.739746,523
842.857788,557
842.97583,536
843.093933,530
843.211975,548
843.330017,556
843.44812,548
843.566101,553
843.684204,552
843.802246,542
843.920227,527
844.038269,544
844.156311,558
844.274292,530
844.392395,545
844.510376,529
844.628357,529
844.74646,545
844.864441,546
844.982422,527
845.100403,525
845.218384,538
845.336426,527
845.454468,518
845.572449,541
845.69043,523
845.808411,549
845.926453,516
846.044373,528
846.162354,534
846.280396,538
846.398315,526
846.516296,530
846.634216,542
846.752197,546
846.870178,547
846.988098,517
847.106079,512
847.22406,547
847.34198,542
847.4599,541
847.577881,527
847.695801,539
847.813782,541
847.931641,519
848.049561,545
848.167603,533
848.285461,535
848.403381,517
848.521362,527
848.639221,531
848.75708,527
848.875,531
848.99292,528
849.110901,536
849.22876,528
849.34668,528
849.464539,545
849.582458,521
849.700317,541
849.818176,536
849.936096,540
850.053955,526
850.171875,525
850.289673,533
850.407593,534
850.525452,531
850.643311,541
850.761169,527
850.878967,535
850.996887,534
851.114746,524
851.232544,525
851.350403,538
851.468262,515
851.58606,541
851.703979,549
851.821777,540
851.939636,517
852.057434,511
852.175232,538
852.293091,530
852.410889,549
852.528687,559
852.646545,570
852.764343,558
852.88208,579
852.999939,542
853.117676,566
853.235535,527
853.353271,560
853.471069,519
853.588928,523
853.706604,513
853.824402,521
853.9422,536
854.059998,534
854.177734,531
854.295532,536
854.413269,522
854.531006,550
854.648804,524
854.766541,534
854.884277,540
855.002014,562
855.119751,531
855.237549,554
855.355225,546
855.473022,507
855.590698,549
855.708435,521
855.826172,524
855.943848,538
856.061646,527
856.179321,536
856.296997,520
856.414795,545
856.53241,568
856.650085,544
856.767822,559
856.885559,557
857.003174,550
857.120911,547
857.238586,558
857.356201,537
857.473938,551
857.591614,532
857.709351,556
857.826965,544
857.944641,563
858.062317,556
858.179993,557
858.297668,557
858.415283,526
858.532959,576
858.650574,544
858.768188,549
858.885803,532
859.003479,559
859.121094,547
859.23877,528
859.356384,540
859.473999,532
859.591675,544
859.709229,537
859.826843,535
859.944458,525
860.062012,527
860.179626,531
860.297302,547
860.414856,521
860.532471,527
860.650024,542
860.767639,534
860.885193,526
861.002808,523
861.120361,538
861.237976,521
861.35553,524
861.473022,528
861.590698,548
861.708191,521
861.825745,550
861.943298,531
862.060852,519
862.178406,505
862.295959,522
862.413513,503
862.531006,513
862.64856,513
862.766113,499
862.883667,502
863.00116,495
863.118713,506
863.236206,517
863.353699,506
863.471252,507
863.588745,518
863.706177,533
863.82373,498
863.941162,520
864.058716,492
864.176208,514
864.29364,528
864.411194,511
864.528687,474
864.646118,505
864.763611,502
864.881042,500
864.998535,509
865.116028,509
865.233459,506
865.350891,513
865.468384,521
865.585754,517
865.703308,503
865.820679,509
865.938171,513
866.055542,513
866.173035,491
866.290466,504
866.407837,495
866.52533,496
866.6427,513
866.760071,502
866.877563,505
866.994934,499
867.112305,511
867.229736,512
867.347107,509
867.464539,529
867.58197,522
867.699341,516
867.81665,518
867.934082,528
868.051453,535
868.168823,518
868.286194,510
868.403564,528
868.520935,501
868.638306,502
868.755676,513
868.872986,530
868.990295,522
869.107727,528
869.225037,517
869.342346,531
869.459717,521
869.577026,543
869.694336,521
869.811707,538
869.929016,530
870.046326,543
870.163635,530
870.280945,541
870.398254,536
870.515564,545
870.632812,531
870.750183,532
870.867432,534
870.984741,558
871.102051,567
871.219299,565
871.336609,560
871.453918,565
871.571106,569
871.688416,561
871.805664,571
871.922852,551
872.040222,556
872.157471,566
872.274719,559
872.391968,547
872.509155,561
872.626465,566
872.743652,561
872.860962,569
872.978149,531
873.095337,539
873.212646,564
873.329834,530
873.44696,543
873.564209,539
873.681396,536
873.798645,542
873.915894,554
874.03302,545
874.150208,554
874.267456,564
874.384583,550
874.501831,542
874.618958,550
874.736145,576
874.853333,546
874.970459,560
875.087646,551
875.204834,546
875.32196,583
875.439148,540
875.556274,550
875.673401,542
875.790527,553
875.907715,535
876.024841,519
876.141968,519
876.259094,541
876.376282,523
876.493347,529
876.610474,527
876.7276,544
876.844727,550
876.961853,543
877.078918,527
877.195984,537
877.313171,538
877.430237,539
877.547302,525
877.664368,534
877.781433,535
877.898499,553
878.015625,505
878.13269,519
878.249695,533
878.366821,518
878.483887,529
878.600952,499
878.717957,526
878.834961,521
878.952087,515
879.069092,495
879.186157,510
879.303162,516
879.420227,493
879.537231,505
879.654236,519
879.77124,504
879.888306,491
880.005249,505
880.122314,494
880.239319,492
880.356323,505
880.473328,507
880.590271,527
880.707275,509
880.824341,507
880.941284,509
881.058228,511
881.175232,493
881.292236,503
881.40918,495
881.526123,515
881.643066,512
881.760071,518
881.877014,507
881.993958,505
882.11084,485
882.227783,505
882.344727,498
882.46167,494
882.578613,475
882.695618,503
882.812439,524
882.929382,507
883.046326,512
883.163208,483
883.280151,461
883.397034,517
883.513916,503
883.630798,494
883.747742,512
883.864563,517
883.981506,516
884.098389,510
884.21521,534
884.332153,520
884.448975,533
884.565796,530
884.682678,548
884.7995,534
884.916443,549
885.033264,551
885.150085,574
885.266968,628
885.383789,592
885.500671,612
885.617493,629
885.734314,600
885.851196,606
885.967896,595
886.084717,608
886.201599,585
886.318359,587
886.435181,579
886.552002,599
886.668762,599
886.785645,580
886.902344,606
887.019165,584
887.135925,544
887.252747,591
887.369446,555
887.486267,557
887.603027,536
887.719788,557
887.836548,529
887.953247,509
888.070068,534
888.186829,528
888.303528,516
888.420288,497
888.536987,496
888.653687,511
888.770447,495
888.887146,482
889.003967,497
889.120667,483
889.237305,482
889.354065,495
889.470703,498
889.587463,478
889.704163,473
889.820862,489
889.937561,469
890.054199,492
890.170837,486
890.287598,465
890.404236,466
890.520874,460
890.637634,486
890.754211,500
890.87085,470
890.987549,482
891.104187,478
891.220886,465
891.337463,495
891.454102,505
891.57074,489
891.687378,484
891.804077,507
891.920654,485
892.037231,490
892.15387,490
892.270447,485
892.387085,495
892.503723,498
892.6203,479
892.736877,495
892.853516,481
892.970032,477
893.08667,501
893.203186,478
893.319763,482
893.43634,488
893.552917,459
893.669556,493
893.786011,497
893.902588,477
894.019165,489
894.135681,483
894.252197,478
894.368835,494
894.485291,487
894.601868,483
894.718384,470
894.8349,490
894.951355,474
895.067932,500
895.184448,472
895.300964,468
895.417419,469
895.533936,477
895.650452,474
895.766907,464
895.883423,475
895.999878,492
896.116333,480
896.232849,476
896.349304,491
896.465759,467
896.582214,462
896.698669,490
896.815125,485
896.931641,464
897.048035,463
897.164551,473
897.280884,462
897.397339,496
897.513794,480
897.630249,467
897.746582,466
897.863098,481
897.979431,462
898.095886,484
898.212341,508
898.328674,503
898.445129,480
898.561462,486
898.677795,489
898.794312,491
898.910645,487
899.026978,498
899.143433,498
899.259766,514
899.37616,490
899.492493,491
899.608765,488
899.725159,510
899.841553,457
899.957947,474
900.07428,488
900.190552,500
900.306946,484
900.423157,487
900.53949,485
900.655884,473
900.772156,488
900.888489,505
901.004822,478
901.121033,497
901.237366,480
901.353699,490
901.46991,493
901.586304,490
901.702515,484
901.818787,497
901.93512,502
902.051331,526
902.167603,525
902.283875,539
902.400085,546
902.516418,529
902.632629,537
902.74884,550
902.865112,539
902.981384,563
903.097595,548
903.213867,539
903.330017,549
903.446289,521
903.5625,538
903.67865,510
903.794922,544
903.911072,524
904.027344,528
904.143494,508
904.259705,532
904.375916,530
904.492065,503
904.608215,497
904.724426,498
904.840576,508
904.956726,486
905.072876,500
905.189087,493
905.305176,488
905.421387,471
905.537537,492
905.653687,481
905.769775,485
905.885925,497
906.002014,480
906.118164,487
906.234314,480
906.350403,472
906.466492,482
906.582642,474
906.69873,480
906.814758,460
906.930908,472
907.046936,452
907.163086,483
907.279175,486
907.395264,502
907.511353,486
907.62738,500
907.743408,477
907.859497,482
907.975525,463
908.091553,462
908.207703,478
908.32373,486
908.439758,474
908.555786,486
908.671814,464
908.787842,483
908.90387,480
909.019775,490
909.135864,455
909.251892,477
909.367859,455
909.483826,485
909.599854,472
909.715881,477
909.831848,492
909.947815,476
910.063782,466
910.179749,493
910.295776,501
910.411743,487
910.527649,493
910.643616,482
910.759583,487
910.875488,477
910.991455,480
911.107361,497
911.223267,479
911.339294,482
911.4552,469
911.571106,488
911.687073,500
911.802979,477
911.918823,463
912.034729,465
912.150635,470
912.266602,467
912.382446,470
912.498352,486
912.614197,490
912.730103,479
912.846008,462
