792.44574,594
792.56488,624
792.68396,668
792.80304,658
792.92218,598
793.041199,578
793.160339,597
793.279419,590
793.398499,581
793.517578,576
793.636658,602
793.755737,605
793.874817,621
793.993896,615
794.112976,606
794.232056,580
794.351074,600
794.470215,584
794.589233,588
794.708313,593
794.827393,591
794.946411,581
795.065552,609
795.18457,590
795.303589,604
795.422668,579
795.541687,575
795.660767,588
795.779846,580
795.898865,586
796.017883,564
796.136963,587
796.255981,582
796.375061,565
796.49408,574
796.613037,578
796.732117,577
796.851135,570
796.970154,578
797.089233,573
797.208191,581
797.327271,557
797.446228,576
797.565186,579
797.684265,560
797.803223,534
797.922241,552
798.04126,576
798.160278,563
798.279297,557
798.398315,580
798.517273,554
798.636292,581
798.75531,587
798.874268,570
798.993286,576
799.112244,584
799.231323,573
799.350281,574
799.469238,560
799.588257,575
799.707153,579
799.826111,566
799.945129,556
800.064087,584
800.183044,563
800.302063,572
800.421021,575
800.539978,560
800.658936,577
800.777893,571
800.896912,574
801.015747,573
801.134705,558
801.253723,599
801.37262,595
801.491638,573
801.610535,556
801.729492,566
801.84845,577
801.967407,567
802.086243,592
802.205261,578
802.324158,578
802.443115,597
802.562073,575
802.680969,577
802.799927,583
802.918762,606
803.037659,559
803.156677,577
803.275574,584
803.39447,599
803.513428,564
803.632263,592
803.751221,585
803.870117,618
803.989014,582
804.107971,595
804.226746,624
804.345642,589
804.4646,597
804.583496,618
804.702393,577
804.821228,590
804.940125,608
805.059021,620
805.177917,615
805.296814,600
805.415649,587
805.534546,621
805.653442,590
805.772278,596
805.891113,603
806.01001,612
806.128906,596
806.247742,619
806.366577,617
806.485413,613
806.604309,608
806.723145,632
806.84198,593
806.960876,598
807.079712,614
807.198486,607
807.317383,639
807.436218,616
807.554993,606
807.673889,617
807.792725,621
807.91156,607
808.030396,607
808.14917,625
808.268005,606
808.386841,598
808.505676,632
808.624451,618
808.743286,608
808.862122,605
808.980896,608
809.099731,605
809.218506,612
809.337341,611
809.456116,591
809.57489,623
809.693726,665
809.8125,634
809.931274,642
810.050049,653
810.168884,623
810.287659,647
810.406372,607
810.525269,616
810.643982,626
810.762756,618
810.881531,648
811.000305,655
811.11908,609
811.237854,632
811.356567,631
811.475403,611
811.594116,607
811.71283,661
811.831604,602
811.950378,624
812.069153,615
812.187927,626
812.30658,622
812.425415,635
812.544128,643
812.662781,613
812.781616,661
812.900269,621
813.019043,623
813.137756,647
813.256531,629
813.375244,615
813.493896,645
813.612671,633
813.731384,621
813.850037,617
813.96875,629
814.087524,593
814.206238,647
814.324951,633
814.443604,618
814.562256,616
814.68103,627
814.799683,610
814.918335,613
815.037109,638
815.155762,610
815.274475,629
815.393188,607
815.511841,620
815.630554,601
815.749146,622
815.867859,588
815.986572,597
816.105164,605
816.223877,603
816.342529,614
816.461182,624
816.579895,615
816.698486,633
816.817139,615
816.935791,602
817.054504,598
817.173096,610
817.291748,614
817.4104,606
817.529053,601
817.647644,585
817.766235,579
817.884949,576
818.00354,558
818.122192,563
818.240845,553
818.359436,544
818.478088,540
818.59668,541
818.715271,522
818.833923,536
818.952515,492
819.071106,500
819.189758,511
819.30835,517
819.426941,506
819.545532,507
819.664124,475
819.782715,500
819.901306,502
820.019897,501
820.138489,500
820.25708,475
820.375671,489
820.494202,494
820.612732,473
820.731384,501
820.849915,474
820.968506,497
821.087097,482
821.205627,487
821.324158,470
821.442749,499
821.561279,497
821.679871,487
821.798401,471
821.916931,499
822.035461,464
822.154053,480
822.272583,492
822.391174,492
822.509583,477
822.628174,479
822.746704,470
822.865234,482
822.983765,460
823.102295,502
823.220825,461
823.339294,484
823.457825,467
823.576355,486
823.694824,475
823.813354,462
823.931885,474
824.050354,472
824.168884,480
824.287354,487
824.405823,473
824.524353,501
824.642822,488
824.761353,504
824.879822,488
824.998291,481
825.116699,480
825.235291,473
825.353699,494
825.472168,504
825.590637,455
825.709106,492
825.827576,439
825.946045,464
826.064453,455
826.182983,474
826.301392,456
826.4198,463
826.53833,468
826.656738,472
826.775208,463
826.893677,456
827.012024,455
827.130493,475
827.248962,455
827.36731,459
827.485779,448
827.604248,480
827.722595,468
827.841064,467
827.959412,445
828.077942,458
828.196289,463
828.314636,455
828.433105,446
828.551514,463
828.669861,458
828.78833,460
828.906677,463
829.025085,460
829.143433,448
829.261841,476
829.38031,476
829.498657,462
829.617004,457
829.735413,444
829.85376,455
829.972107,464
830.090515,448
830.208862,462
830.327209,470
830.445557,450
830.563904,461
830.682312,469
830.800659,451
830.919006,459
831.037354,453
831.155701,447
831.274048,457
831.392395,451
831.51062,462
831.629028,455
831.747314,448
831.865662,451
831.984009,454
832.102356,446
832.220642,465
832.338928,449
832.457275,441
832.575623,451
832.693909,467
832.812134,451
832.930481,465
833.048828,475
833.167114,456
833.2854,448
833.403687,448
833.521973,455
833.640259,455
833.758545,454
833.876831,451
833.995056,456
834.113281,440
834.231628,436
834.349915,448
834.468201,461
834.586426,478
834.704651,454
834.822998,461
834.941162,464
835.059448,433
835.177673,472
835.295959,441
835.414246,460
835.53241,452
835.650635,466
835.768921,471
835.887146,464
836.005371,450
836.123596,460
836.241821,464
836.360046,462
836.478271,446
836.596497,448
836.714722,460
836.832886,469
836.95105,459
837.069336,459
837.1875,479
837.305725,475
837.423889,483
837.542053,477
837.660339,485
837.778503,482
837.896667,463
838.014832,489
838.132996,448
838.25116,488
838.369385,477
838.487488,461
838.605713,453
838.723877,467
838.84198,472
838.960205,497
839.078308,474
839.196472,476
839.314636,432
839.4328,477
839.550964,468
839.669067,460
839.787231,479
839.905396,486
840.023499,470
840.141602,463
840.259766,460
840.377869,467
840.495972,457
840.614136,459
840.732239,469
840.850342,449
840.968445,461
841.086548,462
841.204651,454
841.322754,441
841.440918,468
841.55896,461
841.677002,444
841.795166,453
841.913208,458
842.031311,470
842.149353,458
842.267456,451
842.385498,425
842.503601,455
842.621643,466
842.739746,464
842.857788,450
842.97583,450
843.093933,439
843.211975,455
843.330017,441
843.44812,454
843.566101,456
843.684204,460
843.802246,436
843.920227,451
844.038269,451
844.156311,442
844.274292,457
844.392395,439
844.510376,457
844.628357,451
844.74646,446
844.864441,443
844.982422,456
845.100403,445
845.218384,448
845.336426,448
845.454468,480
845.572449,452
845.69043,448
845.808411,433
845.926453,468
846.044373,447
846.162354,436
846.280396,442
846.398315,426
846.516296,425
846.634216,434
846.752197,446
846.870178,456
846.988098,458
847.106079,434
847.22406,460
847.34198,442
847.4599,449
847.577881,459
847.695801,452
847.813782,434
847.931641,444
848.049561,439
848.167603,447
848.285461,456
848.403381,454
848.521362,422
848.639221,451
848.75708,450
848.875,465
848.99292,441
849.110901,445
849.22876,448
849.34668,430
849.464539,447
849.582458,452
849.700317,447
849.818176,461
849.936096,437
850.053955,452
850.171875,432
850.289673,449
850.407593,442
850.525452,447
850.643311,448
850.761169,433
850.878967,436
850.996887,441
851.114746,443
851.232544,435
851.350403,438
851.468262,448
851.58606,438
851.703979,476
851.821777,436
851.939636,450
852.057434,425
852.175232,451
852.293091,434
852.410889,447
852.528687,441
852.646545,431
852.764343,447
852.88208,457
852.999939,446
853.117676,452
853.235535,453
853.353271,434
853.471069,439
853.588928,423
853.706604,461
853.824402,446
853.9422,454
854.059998,445
854.177734,435
854.295532,450
854.413269,432
854.531006,456
854.648804,436
854.766541,446
854.884277,435
855.002014,461
855.119751,428
855.237549,460
855.355225,459
855.473022,462
855.590698,483
855.708435,445
855.826172,447
855.943848,443
856.061646,453
856.179321,463
856.296997,439
856.414795,456
856.53241,447
856.650085,458
856.767822,430
856.885559,459
857.003174,475
857.120911,457
857.238586,429
857.356201,447
857.473938,446
857.591614,459
857.709351,456
857.826965,460
857.944641,446
858.062317,453
858.179993,454
858.297668,459
858.415283,465
858.532959,452
858.650574,451
858.768188,466
858.885803,454
859.003479,446
859.121094,439
859.23877,453
859.356384,436
859.473999,457
859.591675,458
859.709229,442
859.826843,447
859.944458,451
860.062012,442
860.179626,449
860.297302,448
860.414856,452
860.532471,444
860.650024,445
860.767639,440
860.885193,458
861.002808,445
861.120361,445
861.237976,417
861.35553,455
861.473022,452
861.590698,436
861.708191,433
861.825745,443
861.943298,432
862.060852,436
862.178406,442
862.295959,448
862.413513,454
862.531006,444
862.64856,427
862.766113,464
862.883667,446
863.00116,456
863.118713,446
863.236206,454
863.353699,450
863.471252,436
863.588745,445
863.706177,458
863.82373,457
863.941162,450
864.058716,462
864.176208,447
864.29364,447
864.411194,438
864.528687,446
864.646118,445
864.763611,426
864.881042,448
864.998535,438
865.116028,453
865.233459,449
865.350891,454
865.468384,458
865.585754,441
865.703308,443
865.820679,448
865.938171,450
866.055542,458
866.173035,450
866.290466,463
866.407837,454
866.52533,437
866.6427,448
866.760071,435
866.877563,438
866.994934,450
867.112305,439
867.229736,433
867.347107,471
867.464539,447
867.58197,447
867.699341,446
867.81665,449
867.934082,458
868.051453,435
868.168823,451
868.286194,421
868.403564,463
868.520935,459
868.638306,449
868.755676,458
868.872986,441
868.990295,445
869.107727,445
869.225037,444
869.342346,447
869.459717,445
869.577026,444
869.694336,436
869.811707,469
869.929016,454
870.046326,457
870.163635,459
870.280945,446
870.398254,438
870.515564,452
870.632812,453
870.750183,448
870.867432,439
870.984741,455
871.102051,441
871.219299,455
871.336609,452
871.453918,446
871.571106,436
871.688416,470
871.805664,446
871.922852,443
872.040222,449
872.157471,451
872.274719,439
872.391968,432
872.509155,441
872.626465,446
872.743652,431
872.860962,451
872.978149,433
873.095337,462
873.212646,436
873.329834,458
873.44696,438
873.564209,471
873.681396,447
873.798645,440
873.915894,439
874.03302,428
874.150208,448
874.267456,446
874.384583,458
874.501831,458
874.618958,444
874.736145,450
874.853333,444
874.970459,458
875.087646,455
875.204834,461
875.32196,452
875.439148,457
875.556274,435
875.673401,451
875.790527,456
875.907715,469
876.024841,420
876.141968,458
876.259094,448
876.376282,442
876.493347,438
876.610474,454
876.7276,438
876.844727,438
876.961853,451
877.078918,457
877.195984,451
877.313171,447
877.430237,444
877.547302,461
877.664368,455
877.781433,446
877.898499,440
878.015625,460
878.13269,450
878.249695,456
878.366821,446
878.483887,457
878.600952,440
878.717957,449
878.834961,431
878.952087,459
879.069092,446
879.186157,424
879.303162,454
879.420227,437
879.537231,465
879.654236,449
879.77124,453
879.888306,454
880.005249,453
880.122314,470
880.239319,452
880.356323,450
880.473328,438
880.590271,452
880.707275,456
880.824341,450
880.941284,454
881.058228,469
881.175232,446
881.292236,458
881.40918,444
881.526123,449
881.643066,431
881.760071,447
881.877014,448
881.993958,461
882.11084,465
882.227783,464
882.344727,439
882.46167,455
882.578613,451
882.695618,447
882.812439,432
882.929382,448
883.046326,452
883.163208,447
883.280151,437
883.397034,449
883.513916,441
883.630798,468
883.747742,458
883.864563,447
883.981506,444
884.098389,451
884.21521,445
884.332153,459
884.448975,450
884.565796,455
884.682678,459
884.7995,470
884.916443,434
885.033264,464
885.150085,457
885.266968,459
885.383789,473
885.500671,470
885.617493,448
885.734314,460
885.851196,446
885.967896,460
886.084717,479
886.201599,443
886.318359,445
886.435181,439
886.552002,441
886.668762,472
886.785645,441
886.902344,475
887.019165,447
887.135925,466
887.252747,446
887.369446,439
887.486267,458
887.603027,476
887.719788,465
887.836548,466
887.953247,448
888.070068,447
888.186829,435
888.303528,460
888.420288,445
888.536987,466
888.653687,460
888.770447,462
888.887146,459
889.003967,449
889.120667,433
889.237305,463
889.354065,455
889.470703,458
889.587463,468
889.704163,480
889.820862,446
889.937561,453
890.054199,446
890.170837,452
890.287598,445
890.404236,451
890.520874,439
890.637634,457
890.754211,467
890.87085,450
890.987549,460
891.104187,447
891.220886,423
891.337463,483
891.454102,457
891.57074,466
891.687378,432
891.804077,459
891.920654,453
892.037231,456
892.15387,473
892.270447,451
892.387085,429
892.503723,449
892.6203,447
892.736877,465
892.853516,458
892.970032,465
893.08667,461
893.203186,455
893.319763,458
893.43634,455
893.552917,447
893.669556,452
893.786011,452
893.902588,450
894.019165,467
894.135681,457
894.252197,464
894.368835,461
894.485291,466
894.601868,459
894.718384,473
894.8349,460
894.951355,460
895.067932,466
895.184448,435
895.300964,476
895.417419,447
895.533936,459
895.650452,458
895.766907,457
895.883423,454
895.999878,469
896.116333,458
896.232849,453
896.349304,449
896.465759,468
896.582214,451
896.698669,471
896.815125,461
896.931641,455
897.048035,442
897.164551,456
897.280884,445
897.397339,460
897.513794,455
897.630249,478
897.746582,456
897.863098,471
897.979431,443
898.095886,470
898.212341,478
898.328674,473
898.445129,459
898.561462,458
898.677795,454
898.794312,485
898.910645,463
899.026978,472
899.143433,457
899.259766,473
899.37616,456
899.492493,438
899.608765,453
899.725159,468
899.841553,451
899.957947,474
900.07428,451
900.190552,451
900.306946,460
900.423157,455
900.53949,465
900.655884,464
900.772156,464
900.888489,469
901.004822,467
901.121033,467
901.237366,463
901.353699,452
901.46991,459
901.586304,465
901.702515,458
901.818787,462
901.93512,476
902.051331,469
902.167603,474
902.283875,476
902.400085,465
902.516418,470
902.632629,467
902.74884,483
902.865112,468
902.981384,455
903.097595,450
903.213867,453
903.330017,472
903.446289,477
903.5625,469
903.67865,467
903.794922,472
903.911072,470
904.027344,480
904.143494,457
904.259705,477
904.375916,462
904.492065,443
904.608215,472
904.724426,445
904.840576,476
904.956726,460
905.072876,474
905.189087,469
905.305176,473
905.421387,454
905.537537,460
905.653687,464
905.769775,474
905.885925,487
906.002014,486
906.118164,452
906.234314,466
906.350403,473
906.466492,461
906.582642,451
906.69873,467
906.814758,484
906.930908,472
907.046936,484
907.163086,473
907.279175,476
907.395264,455
907.511353,451
907.62738,468
907.743408,464
907.859497,483
907.975525,472
908.091553,451
908.207703,465
908.32373,463
908.439758,466
908.555786,473
908.671814,470
908.787842,483
908.90387,459
909.019775,472
909.135864,448
909.251892,486
909.367859,477
909.483826,456
909.599854,448
909.715881,463
909.831848,474
909.947815,474
910.063782,454
910.179749,465
910.295776,463
910.411743,471
910.527649,480
910.643616,466
910.759583,465
910.875488,480
910.991455,470
911.107361,475
911.223267,441
911.339294,490
911.4552,452
911.571106,479
911.687073,465
911.802979,458
911.918823,460
912.034729,478
912.150635,461
912.266602,474
912.382446,462
912.498352,459
912.614197,447
912.730103,460
912.846008,471
792.44574,605
792.56488,634
792.68396,663
792.80304,661
792.92218,623
793.041199,601
793.160339,579
793.279419,603
793.398499,620
793.517578,577
793.636658,575
793.755737,609
793.874817,609
793.993896,615
794.112976,589
794.232056,593
794.351074,564
794.470215,594
794.589233,588
794.708313,579
794.827393,570
794.946411,592
795.065552,584
795.18457,597
795.303589,591
795.422668,598
795.541687,583
795.660767,589
795.779846,570
795.898865,566
796.017883,565
796.136963,566
796.255981,587
796.375061,578
796.49408,583
796.613037,563
796.732117,570
796.851135,571
796.970154,602
797.089233,571
797.208191,586
797.327271,588
797.446228,563
797.565186,592
797.684265,581
797.803223,585
797.922241,579
798.04126,586
798.160278,590
798.279297,577
798.398315,573
798.517273,577
798.636292,561
798.75531,542
798.874268,581
798.993286,564
799.112244,577
799.231323,566
799.350281,560
799.469238,586
799.588257,558
799.707153,589
799.826111,614
799.945129,575
800.064087,565
800.183044,577
800.302063,563
800.421021,571
800.539978,572
800.658936,573
800.777893,583
800.896912,563
801.015747,568
801.134705,595
801.253723,563
801.37262,583
801.491638,580
801.610535,590
801.729492,576
801.84845,587
801.967407,558
802.086243,572
802.205261,595
802.324158,592
802.443115,581
802.562073,587
802.680969,582
802.799927,568
802.918762,593
803.037659,583
803.156677,571
803.275574,601
803.39447,585
803.513428,600
803.632263,570
803.751221,585
803.870117,626
803.989014,587
804.107971,574
804.226746,581
804.345642,597
804.4646,607
804.583496,618
804.702393,589
804.821228,619
804.940125,616
805.059021,586
805.177917,648
805.296814,581
805.415649,598
805.534546,606
805.653442,605
805.772278,628
805.891113,596
806.01001,592
806.128906,620
806.247742,617
806.366577,604
806.485413,638
806.604309,613
806.723145,597
806.84198,598
806.960876,595
807.079712,601
807.198486,618
807.317383,615
807.436218,594
807.554993,606
807.673889,627
807.792725,618
807.91156,638
808.030396,610
808.14917,596
808.268005,625
808.386841,623
808.505676,626
808.624451,619
808.743286,620
808.862122,606
808.980896,612
809.099731,631
809.218506,612
809.337341,649
809.456116,635
809.57489,619
809.693726,610
809.8125,636
809.931274,667
810.050049,622
810.168884,641
810.287659,629
810.406372,632
810.525269,658
810.643982,613
810.762756,632
810.881531,632
811.000305,637
811.11908,628
811.237854,639
811.356567,636
811.475403,626
811.594116,630
811.71283,616
811.831604,622
811.950378,615
812.069153,655
812.187927,630
812.30658,659
812.425415,610
812.544128,633
812.662781,627
812.781616,631
812.900269,635
813.019043,637
813.137756,602
813.256531,632
813.375244,634
813.493896,634
813.612671,626
813.731384,634
813.850037,618
813.96875,641
814.087524,637
814.206238,635
814.324951,604
814.443604,611
814.562256,658
814.68103,605
814.799683,637
814.918335,633
815.037109,606
815.155762,638
815.274475,629
815.393188,613
815.511841,618
815.630554,624
815.749146,597
815.867859,604
815.986572,606
816.105164,624
816.223877,589
816.342529,619
816.461182,617
816.579895,635
816.698486,631
816.817139,618
816.935791,618
817.054504,626
817.173096,622
817.291748,610
817.4104,600
817.529053,597
817.647644,616
817.766235,572
817.884949,566
818.00354,575
818.122192,562
818.240845,553
818.359436,540
818.478088,572
818.59668,525
818.715271,534
818.833923,524
818.952515,528
819.071106,498
819.189758,523
819.30835,508
819.426941,519
819.545532,502
819.664124,513
819.782715,488
819.901306,514
820.019897,500
820.138489,494
820.25708,502
820.375671,494
820.494202,495
820.612732,493
820.731384,507
820.849915,469
820.968506,485
821.087097,497
821.205627,503
821.324158,483
821.442749,468
821.561279,480
821.679871,475
821.798401,491
821.916931,479
822.035461,486
822.154053,488
822.272583,488
822.391174,486
822.509583,480
822.628174,466
822.746704,466
822.865234,481
822.983765,489
823.102295,470
823.220825,468
823.339294,468
823.457825,483
823.576355,479
823.694824,469
823.813354,480
823.931885,490
824.050354,468
824.168884,479
824.287354,468
824.405823,489
824.524353,509
824.642822,488
824.761353,502
824.879822,466
824.998291,482
825.116699,493
825.235291,484
825.353699,481
825.472168,493
825.590637,497
825.709106,462
825.827576,495
825.946045,463
826.064453,481
826.182983,438
826.301392,473
826.4198,467
826.53833,461
826.656738,463
826.775208,478
826.893677,441
827.012024,467
827.130493,475
827.248962,477
827.36731,471
827.485779,465
827.604248,457
827.722595,465
827.841064,459
827.959412,453
828.077942,460
828.196289,468
828.314636,451
828.433105,464
828.551514,462
828.669861,447
828.78833,482
828.906677,452
829.025085,453
829.143433,466
829.261841,474
829.38031,447
829.498657,474
829.617004,479
829.735413,459
829.85376,446
829.972107,468
830.090515,451
830.208862,459
830.327209,468
830.445557,457
830.563904,466
830.682312,447
830.800659,458
830.919006,444
831.037354,462
831.155701,459
831.274048,460
831.392395,463
831.51062,476
831.629028,454
831.747314,445
831.865662,489
831.984009,450
832.102356,440
832.220642,468
832.338928,472
832.457275,469
832.575623,437
832.693909,465
832.812134,432
832.930481,457
833.048828,459
833.167114,450
833.2854,461
833.403687,483
833.521973,456
833.640259,456
833.758545,446
833.876831,452
833.995056,451
834.113281,462
834.231628,462
834.349915,467
834.468201,462
834.586426,481
834.704651,467
834.822998,446
834.941162,457
835.059448,447
835.177673,450
835.295959,447
835.414246,444
835.53241,463
835.650635,469
835.768921,455
835.887146,460
836.005371,468
836.123596,449
836.241821,458
836.360046,451
836.478271,479
836.596497,463
836.714722,468
836.832886,481
836.95105,479
837.069336,483
837.1875,478
837.305725,466
837.423889,469
837.542053,483
837.660339,484
837.778503,483
837.896667,465
838.014832,470
838.132996,474
838.25116,490
838.369385,471
838.487488,448
838.605713,480
838.723877,466
838.84198,470
838.960205,461
839.078308,480
839.196472,461
839.314636,484
839.4328,447
839.550964,472
839.669067,459
839.787231,464
839.905396,491
840.023499,462
840.141602,452
840.259766,484
840.377869,472
840.495972,461
840.614136,464
840.732239,472
840.850342,479
840.968445,451
841.086548,452
841.204651,465
841.322754,444
841.440918,449
841.55896,468
841.677002,454
841.795166,456
841.913208,464
842.031311,465
842.149353,453
842.267456,447
842.385498,457
842.503601,453
842.621643,436
842.739746,454
842.857788,451
842.97583,467
843.093933,452
843.211975,466
843.330017,463
843.44812,440
843.566101,460
843.684204,457
843.802246,440
843.920227,451
844.038269,458
844.156311,459
844.274292,445
844.392395,443
844.510376,455
844.628357,450
844.74646,442
844.864441,473
844.982422,435
845.100403,463
845.218384,454
845.336426,450
845.454468,460
845.572449,422
845.69043,452
845.808411,438
845.926453,460
846.044373,463
846.162354,438
846.280396,434
846.398315,451
846.516296,454
846.634216,458
846.752197,445
846.870178,431
846.988098,427
847.106079,481
847.22406,448
847.34198,442
847.4599,450
847.577881,445
847.695801,440
847.813782,459
847.931641,455
848.049561,441
848.167603,444
848.285461,462
848.403381,442
848.521362,438
848.639221,446
848.75708,451
848.875,445
848.99292,451
849.110901,447
849.22876,440
849.34668,440
849.464539,447
849.582458,451
849.700317,446
849.818176,427
849.936096,434
850.053955,441
850.171875,436
850.289673,472
850.407593,437
850.525452,436
850.643311,458
850.761169,435
850.878967,456
850.996887,458
851.114746,437
851.232544,446
851.350403,441
851.468262,455
851.58606,464
851.703979,443
851.821777,449
851.939636,442
852.057434,427
852.175232,462
852.293091,431
852.410889,432
852.528687,449
852.646545,444
852.764343,441
852.88208,437
852.999939,448
853.117676,449
853.235535,444
853.353271,444
853.471069,446
853.588928,441
853.706604,452
853.824402,457
853.9422,441
854.059998,437
854.177734,444
854.295532,450
854.413269,450
854.531006,437
854.648804,445
854.766541,447
854.884277,441
855.002014,452
855.119751,450
855.237549,446
855.355225,439
855.473022,458
855.590698,438
855.708435,433
855.826172,441
855.943848,454
856.061646,473
856.179321,448
856.296997,467
856.414795,446
856.53241,452
856.650085,451
856.767822,457
856.885559,437
857.003174,464
857.120911,451
857.238586,456
857.356201,456
857.473938,465
857.591614,465
857.709351,434
857.826965,472
857.944641,445
858.062317,445
858.179993,448
858.297668,464
858.415283,441
858.532959,462
858.650574,457
858.768188,457
858.885803,468
859.003479,445
859.121094,441
859.23877,433
859.356384,441
859.473999,457
859.591675,450
859.709229,452
859.826843,445
859.944458,447
860.062012,468
860.179626,438
860.297302,460
860.414856,455
860.532471,469
860.650024,453
860.767639,455
860.885193,451
861.002808,448
861.120361,458
861.237976,474
861.35553,447
861.473022,451
861.590698,452
861.708191,442
861.825745,453
861.943298,446
862.060852,447
862.178406,442
862.295959,455
862.413513,441
862.531006,464
862.64856,443
862.766113,429
862.883667,426
863.00116,433
863.118713,463
863.236206,466
863.353699,460
863.471252,446
863.588745,457
863.706177,454
863.82373,454
863.941162,458
864.058716,453
864.176208,467
864.29364,458
864.411194,461
864.528687,460
864.646118,447
864.763611,458
864.881042,458
864.998535,441
865.116028,453
865.233459,429
865.350891,456
865.468384,447
865.585754,457
865.703308,465
865.820679,448
865.938171,476
866.055542,450
866.173035,459
866.290466,460
866.407837,449
866.52533,458
866.6427,465
866.760071,438
866.877563,436
866.994934,462
867.112305,459
867.229736,448
867.347107,449
867.464539,448
867.58197,450
867.699341,461
867.81665,443
867.934082,440
868.051453,436
868.168823,443
868.286194,448
868.403564,468
868.520935,456
868.638306,451
868.755676,461
868.872986,462
868.990295,441
869.107727,458
869.225037,444
869.342346,436
869.459717,437
869.577026,451
869.694336,460
869.811707,438
869.929016,448
870.046326,451
870.163635,464
870.280945,443
870.398254,460
870.515564,443
870.632812,437
870.750183,446
870.867432,456
870.984741,436
871.102051,473
871.219299,440
871.336609,458
871.453918,435
871.571106,434
871.688416,465
871.805664,439
871.922852,436
872.040222,438
872.157471,446
872.274719,445
872.391968,463
872.509155,468
872.626465,449
872.743652,458
872.860962,441
872.978149,456
873.095337,453
873.212646,442
873.329834,444
873.44696,450
873.564209,472
873.681396,468
873.798645,470
873.915894,466
874.03302,448
874.150208,454
874.267456,452
874.384583,467
874.501831,461
874.618958,454
874.736145,448
874.853333,442
874.970459,445
875.087646,465
875.204834,435
875.32196,458
875.439148,442
875.556274,469
875.673401,450
875.790527,445
875.907715,433
876.024841,466
876.141968,458
876.259094,441
876.376282,434
876.493347,461
876.610474,440
876.7276,432
876.844727,448
876.961853,452
877.078918,438
877.195984,452
877.313171,449
877.430237,448
877.547302,447
877.664368,467
877.781433,438
877.898499,459
878.015625,443
878.13269,448
878.249695,453
878.366821,427
878.483887,450
878.600952,445
878.717957,451
878.834961,452
878.952087,439
879.069092,432
879.186157,446
879.303162,445
879.420227,457
879.537231,439
879.654236,460
879.77124,450
879.888306,434
880.005249,453
880.122314,447
880.239319,438
880.356323,441
880.473328,459
880.590271,460
880.707275,444
880.824341,441
880.941284,465
881.058228,443
881.175232,460
881.292236,453
881.40918,442
881.526123,463
881.643066,439
881.760071,433
881.877014,439
881.993958,464
882.11084,457
882.227783,417
882.344727,462
882.46167,466
882.578613,432
882.695618,462
882.812439,455
882.929382,447
883.046326,458
883.163208,447
883.280151,452
883.397034,455
883.513916,434
883.630798,469
883.747742,447
883.864563,438
883.981506,453
884.098389,444
884.21521,432
884.332153,469
884.448975,468
884.565796,434
884.682678,474
884.7995,461
884.916443,457
885.033264,468
885.150085,454
885.266968,446
885.383789,448
885.500671,463
885.617493,470
885.734314,451
885.851196,443
885.967896,461
886.084717,458
886.201599,450
886.318359,471
886.435181,457
886.552002,451
886.668762,449
886.785645,457
886.902344,428
887.019165,447
887.135925,466
887.252747,434
887.369446,445
887.486267,455
887.603027,468
887.719788,463
887.836548,455
887.953247,455
888.070068,457
888.186829,460
888.303528,444
888.420288,459
888.536987,464
888.653687,463
888.770447,475
888.887146,468
889.003967,449
889.120667,460
889.237305,440
889.354065,463
889.470703,467
889.587463,456
889.704163,451
889.820862,443
889.937561,469
890.054199,464
890.170837,444
890.287598,457
890.404236,450
890.520874,456
890.637634,464
890.754211,454
890.87085,475
890.987549,458
891.104187,461
891.220886,464
891.337463,459
891.454102,481
891.57074,466
891.687378,472
891.804077,435
891.920654,465
892.037231,467
892.15387,455
892.270447,461
892.387085,458
892.503723,445
892.6203,473
892.736877,460
892.853516,469
892.970032,471
893.08667,450
893.203186,458
893.319763,439
893.43634,473
893.552917,456
893.669556,461
893.786011,457
893.902588,440
894.019165,457
894.135681,468
894.252197,468
894.368835,430
894.485291,463
894.601868,478
894.718384,462
894.8349,465
894.951355,474
895.067932,469
895.184448,466
895.300964,439
895.417419,464
895.533936,451
895.650452,458
895.766907,467
895.883423,476
895.999878,452
896.116333,463
896.232849,450
896.349304,469
896.465759,455
896.582214,452
896.698669,475
896.815125,456
896.931641,466
897.048035,446
897.164551,462
897.280884,454
897.397339,447
897.513794,454
897.630249,471
897.746582,467
897.863098,445
897.979431,469
898.095886,467
898.212341,454
898.328674,464
898.445129,459
898.561462,441
898.677795,469
898.794312,487
898.910645,479
899.026978,467
899.143433,455
899.259766,461
899.37616,459
899.492493,466
899.608765,470
899.725159,464
899.841553,478
899.957947,458
900.07428,490
900.190552,448
900.306946,448
900.423157,465
900.53949,470
900.655884,441
900.772156,459
900.888489,455
901.004822,473
901.121033,467
901.237366,472
901.353699,462
901.46991,465
901.586304,454
901.702515,474
901.818787,460
901.93512,479
902.051331,475
902.167603,467
902.283875,468
902.400085,462
902.516418,462
902.632629,456
902.74884,479
902.865112,460
902.981384,476
903.097595,462
903.213867,469
903.330017,473
903.446289,458
903.5625,486
903.67865,464
903.794922,443
903.911072,446
904.027344,472
904.143494,470
904.259705,468
904.375916,436
904.492065,461
904.608215,453
904.724426,473
904.840576,459
904.956726,477
905.072876,475
905.189087,469
905.305176,470
905.421387,458
905.537537,465
905.653687,479
905.769775,449
905.885925,471
906.002014,471
906.118164,487
906.234314,454
906.350403,468
906.466492,461
906.582642,459
906.69873,446
906.814758,474
906.930908,479
907.046936,468
907.163086,470
907.279175,456
907.395264,477
907.511353,461
907.62738,457
907.743408,459
907.859497,439
907.975525,466
908.091553,479
908.207703,440
908.32373,471
908.439758,487
908.555786,462
908.671814,460
908.787842,470
908.90387,488
909.019775,469
909.135864,464
909.251892,469
909.367859,458
909.483826,470
909.599854,464
909.715881,464
909.831848,489
909.947815,467
910.063782,461
910.179749,471
910.295776,477
910.411743,473
910.527649,480
910.643616,479
910.759583,479
910.875488,455
910.991455,472
911.107361,461
911.223267,466
911.339294,455
911.4552,476
911.571106,453
911.687073,493
911.802979,474
911.918823,457
912.034729,476
912.150635,464
912.266602,456
912.382446,491
912.498352,450
912.614197,488
912.730103,462
912.846008,447
792.44574,616
792.56488,645
792.68396,704
792.80304,646
792.92218,636
793.041199,595
793.160339,617
793.279419,610
793.398499,604
793.517578,594
793.636658,570
793.755737,610
793.874817,618
793.993896,604
794.112976,599
794.232056,576
794.351074,620
794.470215,600
794.589233,610
794.708313,587
794.827393,573
794.946411,592
795.065552,584
795.18457,601
795.303589,574
795.422668,577
795.541687,594
795.660767,564
795.779846,576
795.898865,579
796.017883,568
796.136963,618
796.255981,565
796.375061,563
796.49408,594
796.613037,577
796.732117,587
796.851135,578
796.970154,586
797.089233,599
797.208191,590
797.327271,575
797.446228,573
797.565186,570
797.684265,562
797.803223,571
797.922241,584
798.04126,582
798.160278,581
798.279297,572
798.398315,584
798.517273,591
798.636292,577
798.75531,570
798.874268,588
798.993286,570
799.112244,580
799.231323,561
799.350281,570
799.469238,544
799.588257,567
799.707153,584
799.826111,553
799.945129,586
800.064087,578
800.183044,588
800.302063,570
800.421021,581
800.539978,591
800.658936,558
800.777893,589
800.896912,584
801.015747,571
801.134705,566
801.253723,585
801.37262,579
801.491638,595
801.610535,605
801.729492,577
801.84845,581
801.967407,580
802.086243,585
802.205261,564
802.324158,573
802.443115,589
802.562073,598
802.680969,603
802.799927,594
802.918762,599
803.037659,601
803.156677,586
803.275574,612
803.39447,554
803.513428,588
803.632263,598
803.751221,597
803.870117,611
803.989014,628
804.107971,608
804.226746,585
804.345642,583
804.4646,594
804.583496,585
804.702393,590
804.821228,600
804.940125,610
805.059021,612
805.177917,608
805.296814,609
805.415649,625
805.534546,612
805.653442,602
805.772278,604
805.891113,603
806.01001,614
806.128906,608
806.247742,604
806.366577,631
806.485413,625
806.604309,600
806.723145,615
806.84198,611
806.960876,600
807.079712,627
807.198486,615
807.317383,621
807.436218,608
807.554993,596
807.673889,615
807.792725,614
807.91156,608
808.030396,606
808.14917,626
808.268005,628
808.386841,626
808.505676,613
808.624451,636
808.743286,629
808.862122,623
808.980896,624
809.099731,632
809.218506,656
809.337341,617
809.456116,610
809.57489,626
809.693726,631
809.8125,632
809.931274,633
810.050049,638
810.168884,608
810.287659,650
810.406372,613
810.525269,625
810.643982,631
810.762756,638
810.881531,636
811.000305,627
811.11908,634
811.237854,643
811.356567,600
811.475403,664
811.594116,631
811.71283,637
811.831604,626
811.950378,639
812.069153,615
812.187927,626
812.30658,627
812.425415,649
812.544128,626
812.662781,660
812.781616,647
812.900269,648
813.019043,636
813.137756,636
813.256531,617
813.375244,640
813.493896,646
813.612671,639
813.731384,621
813.850037,619
813.96875,629
814.087524,623
814.206238,613
814.324951,630
814.443604,610
814.562256,661
814.68103,619
814.799683,636
814.918335,642
815.037109,633
815.155762,620
815.274475,614
815.393188,640
815.511841,627
815.630554,635
815.749146,603
815.867859,587
815.986572,601
816.105164,608
816.223877,641
816.342529,603
816.461182,624
816.579895,607
816.698486,618
816.817139,608
816.935791,624
817.054504,630
817.173096,619
817.291748,616
817.4104,622
817.529053,598
817.647644,605
817.766235,577
817.884949,581
818.00354,566
818.122192,556
818.240845,543
818.359436,545
818.478088,552
818.59668,558
818.715271,541
818.833923,535
818.952515,529
819.071106,525
819.189758,518
819.30835,512
819.426941,528
819.545532,523
819.664124,494
819.782715,523
819.901306,495
820.019897,485
820.138489,499
820.25708,491
820.375671,475
820.494202,479
820.612732,484
820.731384,506
820.849915,487
820.968506,478
821.087097,493
821.205627,483
821.324158,482
821.442749,492
821.561279,472
821.679871,467
821.798401,456
821.916931,513
822.035461,476
822.154053,476
822.272583,481
822.391174,482
822.509583,493
822.628174,478
822.746704,477
822.865234,486
822.983765,483
823.102295,464
823.220825,473
823.339294,474
823.457825,499
823.576355,468
823.694824,473
823.813354,507
823.931885,475
824.050354,486
824.168884,510
824.287354,502
824.405823,483
824.524353,466
824.642822,474
824.761353,496
824.879822,495
824.998291,477
825.116699,473
825.235291,501
825.353699,488
825.472168,473
825.590637,462
825.709106,484
825.827576,472
825.946045,469
826.064453,480
826.182983,464
826.301392,467
826.4198,484
826.53833,456
826.656738,462
826.775208,453
826.893677,462
827.012024,466
827.130493,458
827.248962,466
827.36731,477
827.485779,475
827.604248,465
827.722595,460
827.841064,472
827.959412,453
828.077942,468
828.196289,457
828.314636,462
828.433105,463
828.551514,470
828.669861,447
828.78833,454
828.906677,449
829.025085,458
829.143433,466
829.261841,469
829.38031,455
829.498657,454
829.617004,481
829.735413,457
829.85376,457
829.972107,457
830.090515,461
830.208862,462
830.327209,464
830.445557,451
830.563904,453
830.682312,464
830.800659,454
830.919006,466
831.037354,469
831.155701,465
831.274048,446
831.392395,464
831.51062,446
831.629028,467
831.747314,466
831.865662,472
831.984009,465
832.102356,459
832.220642,457
832.338928,468
832.457275,477
832.575623,473
832.693909,452
832.812134,441
832.930481,458
833.048828,456
833.167114,470
833.2854,474
833.403687,455
833.521973,464
833.640259,459
833.758545,470
833.876831,455
833.995056,471
834.113281,457
834.231628,465
834.349915,449
834.468201,470
834.586426,458
834.704651,462
834.822998,454
834.941162,448
835.059448,463
835.177673,461
835.295959,475
835.414246,474
835.53241,455
835.650635,455
835.768921,466
835.887146,475
836.005371,460
836.123596,470
836.241821,461
836.360046,473
836.478271,462
836.596497,462
836.714722,462
836.832886,483
836.95105,486
837.069336,486
837.1875,469
837.305725,476
837.423889,469
837.542053,483
837.660339,462
837.778503,479
837.896667,477
838.014832,486
838.132996,482
838.25116,471
838.369385,477
838.487488,482
838.605713,465
838.723877,485
838.84198,477
838.960205,459
839.078308,473
839.196472,490
839.314636,468
839.4328,462
839.550964,446
839.669067,475
839.787231,468
839.905396,471
840.023499,469
840.141602,499
840.259766,468
840.377869,471
840.495972,476
840.614136,468
840.732239,459
840.850342,464
840.968445,456
841.086548,463
841.204651,469
841.322754,464
841.440918,460
841.55896,446
841.677002,461
841.795166,477
841.913208,471
842.031311,458
842.149353,458
842.267456,461
842.385498,448
842.503601,472
842.621643,455
842.739746,454
842.857788,439
842.97583,473
843.093933,436
843.211975,465
843.330017,453
843.44812,434
843.566101,448
843.684204,444
843.802246,448
843.920227,457
844.038269,452
844.156311,446
844.274292,469
844.392395,447
844.510376,457
844.628357,478
844.74646,441
844.864441,457
844.982422,428
845.100403,484
845.218384,443
845.336426,455
845.454468,460
845.572449,457
845.69043,446
845.808411,450
845.926453,467
846.044373,455
846.162354,451
846.280396,460
846.398315,444
846.516296,437
846.634216,439
846.752197,454
846.870178,466
846.988098,447
847.106079,444
847.22406,456
847.34198,435
847.4599,456
847.577881,452
847.695801,443
847.813782,445
847.931641,446
848.049561,436
848.167603,460
848.285461,458
848.403381,464
848.521362,453
848.639221,444
848.75708,451
848.875,433
848.99292,436
849.110901,461
849.22876,438
849.34668,454
849.464539,452
849.582458,449
849.700317,445
849.818176,456
849.936096,446
850.053955,438
850.171875,466
850.289673,441
850.407593,463
850.525452,431
850.643311,441
850.761169,464
850.878967,438
850.996887,442
851.114746,433
851.232544,454
851.350403,432
851.468262,453
851.58606,455
851.703979,442
851.821777,435
851.939636,440
852.057434,456
852.175232,436
852.293091,463
852.410889,456
852.528687,457
852.646545,469
852.764343,431
852.88208,436
852.999939,444
853.117676,449
853.235535,461
853.353271,430
853.471069,442
853.588928,454
853.706604,455
853.824402,435
853.9422,458
854.059998,431
854.177734,448
854.295532,472
854.413269,457
854.531006,419
854.648804,452
854.766541,459
854.884277,441
855.002014,464
855.119751,458
855.237549,443
855.355225,451
855.473022,448
855.590698,465
855.708435,449
855.826172,459
855.943848,457
856.061646,438
856.179321,444
856.296997,446
856.414795,462
856.53241,453
856.650085,450
856.767822,451
856.885559,446
857.003174,445
857.120911,456
857.238586,468
857.356201,437
857.473938,453
857.591614,456
857.709351,457
857.826965,459
857.944641,457
858.062317,456
858.179993,460
858.297668,431
858.415283,442
858.532959,484
858.650574,436
858.768188,464
858.885803,450
859.003479,451
859.121094,460
859.23877,443
859.356384,454
859.473999,473
859.591675,448
859.709229,451
859.826843,444
859.944458,448
860.062012,438
860.179626,453
860.297302,443
860.414856,460
860.532471,441
860.650024,451
860.767639,449
860.885193,457
861.002808,456
861.120361,450
861.237976,456
861.35553,461
861.473022,432
861.590698,478
861.708191,431
861.825745,452
861.943298,446
862.060852,459
862.178406,463
862.295959,448
862.413513,442
862.531006,464
862.64856,443
862.766113,465
862.883667,419
863.00116,452
863.118713,438
863.236206,465
863.353699,447
863.471252,453
863.588745,449
863.706177,457
863.82373,449
863.941162,450
864.058716,455
864.176208,458
864.29364,455
864.411194,456
864.528687,446
864.646118,464
864.763611,443
864.881042,437
864.998535,459
865.116028,451
865.233459,456
865.350891,455
865.468384,453
865.585754,464
865.703308,457
865.820679,452
865.938171,454
866.055542,453
866.173035,435
866.290466,450
866.407837,454
866.52533,467
866.6427,441
866.760071,449
866.877563,457
866.994934,445
867.112305,453
867.229736,453
867.347107,456
867.464539,455
867.58197,440
867.699341,445
867.81665,463
867.934082,471
868.051453,454
868.168823,459
868.286194,453
868.403564,447
868.520935,454
868.638306,462
868.755676,449
868.872986,453
868.990295,448
869.107727,440
869.225037,462
869.342346,440
869.459717,472
869.577026,454
869.694336,440
869.811707,446
869.929016,460
870.046326,452
870.163635,450
870.280945,473
870.398254,444
870.515564,474
870.632812,447
870.750183,471
870.867432,425
870.984741,459
871.102051,451
871.219299,465
871.336609,455
871.453918,461
871.571106,426
871.688416,455
871.805664,462
871.922852,450
872.040222,435
872.157471,438
872.274719,447
872.391968,444
872.509155,458
872.626465,468
872.743652,452
872.860962,447
872.978149,434
873.095337,446
873.212646,447
873.329834,458
873.44696,459
873.564209,459
873.681396,447
873.798645,451
873.915894,446
874.03302,455
874.150208,450
874.267456,448
874.384583,458
874.501831,442
874.618958,460
874.736145,457
874.853333,461
874.970459,457
875.087646,451
875.204834,462
875.32196,474
875.439148,436
875.556274,462
875.673401,444
875.790527,439
875.907715,449
876.024841,454
876.141968,471
876.259094,442
876.376282,446
876.493347,459
876.610474,466
876.7276,454
876.844727,460
876.961853,450
877.078918,454
877.195984,463
877.313171,446
877.430237,448
877.547302,455
877.664368,448
877.781433,469
877.898499,445
878.015625,448
878.13269,436
878.249695,462
878.366821,446
878.483887,450
878.600952,463
878.717957,448
878.834961,446
878.952087,443
879.069092,468
879.186157,447
879.303162,446
879.420227,430
879.537231,448
879.654236,452
879.77124,455
879.888306,449
880.005249,463
880.122314,469
880.239319,448
880.356323,455
880.473328,450
880.590271,462
880.707275,447
880.824341,453
880.941284,443
881.058228,455
881.175232,455
881.292236,443
881.40918,432
881.526123,447
881.643066,449
881.760071,451
881.877014,450
881.993958,483
882.11084,457
882.227783,452
882.344727,460
882.46167,463
882.578613,441
882.695618,455
882.812439,421
882.929382,460
883.046326,453
883.163208,459
883.280151,435
883.397034,449
883.513916,446
883.630798,469
883.747742,449
883.864563,456
883.981506,448
884.098389,457
884.21521,447
884.332153,460
884.448975,466
884.565796,464
884.682678,454
884.7995,433
884.916443,456
885.033264,473
885.150085,460
885.266968,439
885.383789,442
885.500671,455
885.617493,447
885.734314,458
885.851196,461
885.967896,461
886.084717,452
886.201599,473
886.318359,441
886.435181,444
886.552002,464
886.668762,461
886.785645,442
886.902344,452
887.019165,429
887.135925,498
887.252747,451
887.369446,459
887.486267,441
887.603027,445
887.719788,460
887.836548,469
887.953247,454
888.070068,443
888.186829,449
888.303528,452
888.420288,447
888.536987,455
888.653687,454
888.770447,455
888.887146,465
889.003967,472
889.120667,458
889.237305,448
889.354065,467
889.470703,460
889.587463,456
889.704163,470
889.820862,459
889.937561,466
890.054199,446
890.170837,476
890.287598,451
890.404236,463
890.520874,438
890.637634,456
890.754211,449
890.87085,445
890.987549,449
891.104187,457
891.220886,458
891.337463,469
891.454102,459
891.57074,460
891.687378,465
891.804077,462
891.920654,439
892.037231,455
892.15387,471
892.270447,463
892.387085,459
892.503723,451
892.6203,464
892.736877,487
892.853516,451
892.970032,457
893.08667,463
893.203186,462
893.319763,463
893.43634,448
893.552917,449
893.669556,465
893.786011,455
893.902588,447
894.019165,482
894.135681,477
894.252197,437
894.368835,467
894.485291,473
894.601868,456
894.718384,447
894.8349,457
894.951355,429
895.067932,471
895.184448,460
895.300964,469
895.417419,454
895.533936,464
895.650452,468
895.766907,473
895.883423,469
895.999878,484
896.116333,451
896.232849,482
896.349304,453
896.465759,459
896.582214,450
896.698669,460
896.815125,464
896.931641,456
897.048035,462
897.164551,456
897.280884,465
897.397339,483
897.513794,486
897.630249,433
897.746582,462
897.863098,459
897.979431,455
898.095886,473
898.212341,465
898.328674,472
898.445129,479
898.561462,462
898.677795,457
898.794312,469
898.910645,463
899.026978,453
899.143433,460
899.259766,460
899.37616,460
899.492493,457
899.608765,468
899.725159,447
899.841553,467
899.957947,480
900.07428,469
900.190552,465
900.306946,447
900.423157,471
900.53949,461
900.655884,458
900.772156,464
900.888489,467
901.004822,472
901.121033,470
901.237366,474
901.353699,459
901.46991,456
901.586304,465
901.702515,452
901.818787,476
901.93512,463
902.051331,454
902.167603,475
902.283875,449
902.400085,479
902.516418,460
902.632629,467
902.74884,479
902.865112,476
902.981384,481
903.097595,483
903.213867,497
903.330017,466
903.446289,458
903.5625,461
903.67865,462
903.794922,477
903.911072,471
904.027344,458
904.143494,459
904.259705,466
904.375916,469
904.492065,463
904.608215,462
904.724426,464
904.840576,498
904.956726,454
905.072876,480
905.189087,472
905.305176,465
905.421387,457
905.537537,464
905.653687,467
905.769775,456
905.885925,484
906.002014,467
906.118164,456
906.234314,479
906.350403,465
906.466492,456
906.582642,460
906.69873,474
906.814758,471
906.930908,457
907.046936,461
907.163086,460
907.279175,460
907.395264,467
907.511353,472
907.62738,494
907.743408,473
907.859497,469
907.975525,470
908.091553,473
908.207703,468
908.32373,458
908.439758,464
908.555786,481
908.671814,457
908.787842,469
908.90387,452
909.019775,468
909.135864,461
909.251892,471
909.367859,491
909.483826,464
909.599854,464
909.715881,463
909.831848,462
909.947815,458
910.063782,474
910.179749,472
910.295776,476
910.411743,476
910.527649,473
910.643616,463
910.759583,493
910.875488,471
910.991455,481
911.107361,486
911.223267,480
911.339294,479
911.4552,474
911.571106,485
911.687073,487
911.802979,475
911.918823,458
912.034729,468
912.150635,452
912.266602,468
912.382446,456
912.498352,463
912.614197,484
912.730103,452
912.846008,455
