792.44574,623
792.56488,651
792.68396,680
792.80304,674
792.92218,604
793.041199,636
793.160339,643
793.279419,609
793.398499,592
793.517578,603
793.636658,597
793.755737,625
793.874817,637
793.993896,600
794.112976,629
794.232056,587
794.351074,611
794.470215,595
794.589233,601
794.708313,594
794.827393,579
794.946411,576
795.065552,608
795.18457,581
795.303589,575
795.422668,575
795.541687,576
795.660767,579
795.779846,610
795.898865,583
796.017883,572
796.136963,577
796.255981,598
796.375061,562
796.49408,571
796.613037,592
796.732117,592
796.851135,594
796.970154,568
797.089233,580
797.208191,588
797.327271,554
797.446228,577
797.565186,581
797.684265,586
797.803223,584
797.922241,587
798.04126,593
798.160278,593
798.279297,567
798.398315,585
798.517273,557
798.636292,591
798.75531,567
798.874268,569
798.993286,571
799.112244,565
799.231323,547
799.350281,571
799.469238,576
799.588257,585
799.707153,594
799.826111,575
799.945129,544
800.064087,578
800.183044,570
800.302063,608
800.421021,571
800.539978,575
800.658936,595
800.777893,577
800.896912,578
801.015747,604
801.134705,565
801.253723,588
801.37262,562
801.491638,591
801.610535,578
801.729492,593
801.84845,574
801.967407,598
802.086243,576
802.205261,579
802.324158,567
802.443115,579
802.562073,575
802.680969,581
802.799927,584
802.918762,598
803.037659,597
803.156677,583
803.275574,580
803.39447,591
803.513428,592
803.632263,591
803.751221,603
803.870117,614
803.989014,590
804.107971,585
804.226746,602
804.345642,608
804.4646,615
804.583496,618
804.702393,597
804.821228,598
804.940125,577
805.059021,580
805.177917,597
805.296814,612
805.415649,605
805.534546,620
805.653442,603
805.772278,605
805.891113,613
806.01001,619
806.128906,622
806.247742,595
806.366577,612
806.485413,613
806.604309,586
806.723145,595
806.84198,616
806.960876,623
807.079712,602
807.198486,611
807.317383,606
807.436218,637
807.554993,621
807.673889,630
807.792725,604
807.91156,605
808.030396,612
808.14917,616
808.268005,612
808.386841,632
808.505676,619
808.624451,647
808.743286,615
808.862122,607
808.980896,620
809.099731,628
809.218506,639
809.337341,631
809.456116,621
809.57489,623
809.693726,641
809.8125,617
809.931274,628
810.050049,618
810.168884,619
810.287659,611
810.406372,621
810.525269,627
810.643982,612
810.762756,643
810.881531,644
811.000305,616
811.11908,624
811.237854,619
811.356567,608
811.475403,631
811.594116,638
811.71283,639
811.831604,636
811.950378,619
812.069153,621
812.187927,616
812.30658,616
812.425415,635
812.544128,629
812.662781,647
812.781616,621
812.900269,612
813.019043,632
813.137756,611
813.256531,630
813.375244,641
813.493896,645
813.612671,606
813.731384,618
813.850037,618
813.96875,624
814.087524,630
814.206238,640
814.324951,638
814.443604,628
814.562256,620
814.68103,602
814.799683,621
814.918335,626
815.037109,618
815.155762,620
815.274475,647
815.393188,600
815.511841,619
815.630554,618
815.749146,610
815.867859,589
815.986572,606
816.105164,610
816.223877,615
816.342529,599
816.461182,624
816.579895,626
816.698486,618
816.817139,631
816.935791,616
817.054504,625
817.173096,617
817.291748,591
817.4104,600
817.529053,594
817.647644,597
817.766235,580
817.884949,569
818.00354,562
818.122192,551
818.240845,549
818.359436,575
818.478088,542
818.59668,557
818.715271,528
818.833923,532
818.952515,518
819.071106,494
819.189758,509
819.30835,509
819.426941,493
819.545532,527
819.664124,503
819.782715,507
819.901306,505
820.019897,511
820.138489,508
820.25708,511
820.375671,493
820.494202,491
820.612732,483
820.731384,521
820.849915,482
820.968506,496
821.087097,495
821.205627,499
821.324158,476
821.442749,484
821.561279,492
821.679871,495
821.798401,476
821.916931,472
822.035461,479
822.154053,477
822.272583,465
822.391174,484
822.509583,462
822.628174,474
822.746704,483
822.865234,488
822.983765,508
823.102295,490
823.220825,487
823.339294,504
823.457825,465
823.576355,472
823.694824,477
823.813354,500
823.931885,463
824.050354,480
824.168884,463
824.287354,497
824.405823,488
824.524353,497
824.642822,488
824.761353,480
824.879822,455
824.998291,501
825.116699,484
825.235291,489
825.353699,481
825.472168,470
825.590637,493
825.709106,487
825.827576,466
825.946045,462
826.064453,470
826.182983,490
826.301392,461
826.4198,476
826.53833,456
826.656738,458
826.775208,461
826.893677,472
827.012024,448
827.130493,474
827.248962,452
827.36731,490
827.485779,459
827.604248,442
827.722595,444
827.841064,452
827.959412,464
828.077942,484
828.196289,453
828.314636,473
828.433105,464
828.551514,459
828.669861,466
828.78833,472
828.906677,453
829.025085,465
829.143433,437
829.261841,444
829.38031,474
829.498657,457
829.617004,447
829.735413,467
829.85376,454
829.972107,457
830.090515,434
830.208862,478
830.327209,455
830.445557,472
830.563904,451
830.682312,436
830.800659,462
830.919006,471
831.037354,448
831.155701,469
831.274048,454
831.392395,461
831.51062,452
831.629028,450
831.747314,456
831.865662,456
831.984009,440
832.102356,445
832.220642,438
832.338928,469
832.457275,476
832.575623,465
832.693909,448
832.812134,457
832.930481,459
833.048828,445
833.167114,449
833.2854,448
833.403687,463
833.521973,455
833.640259,447
833.758545,447
833.876831,468
833.995056,455
834.113281,437
834.231628,457
834.349915,453
834.468201,476
834.586426,427
834.704651,445
834.822998,443
834.941162,451
835.059448,457
835.177673,438
835.295959,463
835.414246,464
835.53241,477
835.650635,454
835.768921,450
835.887146,469
836.005371,464
836.123596,462
836.241821,444
836.360046,451
836.478271,459
836.596497,464
836.714722,454
836.832886,485
836.95105,473
837.069336,460
837.1875,473
837.305725,497
837.423889,474
837.542053,488
837.660339,459
837.778503,461
837.896667,460
838.014832,480
838.132996,465
838.25116,461
838.369385,481
838.487488,467
838.605713,467
838.723877,477
838.84198,465
838.960205,482
839.078308,473
839.196472,459
839.314636,470
839.4328,478
839.550964,452
839.669067,482
839.787231,451
839.905396,481
840.023499,482
840.141602,446
840.259766,462
840.377869,480
840.495972,473
840.614136,478
840.732239,458
840.850342,460
840.968445,465
841.086548,459
841.204651,458
841.322754,467
841.440918,457
841.55896,460
841.677002,456
841.795166,463
841.913208,447
842.031311,470
842.149353,455
842.267456,450
842.385498,457
842.503601,466
842.621643,448
842.739746,472
842.857788,456
842.97583,455
843.093933,448
843.211975,436
843.330017,457
843.44812,453
843.566101,464
843.684204,461
843.802246,452
843.920227,445
844.038269,461
844.156311,449
844.274292,461
844.392395,449
844.510376,446
844.628357,457
844.74646,440
844.864441,456
844.982422,442
845.100403,466
845.218384,450
845.336426,471
845.454468,436
845.572449,447
845.69043,446
845.808411,430
845.926453,475
846.044373,456
846.162354,442
846.280396,424
846.398315,456
846.516296,468
846.634216,454
846.752197,461
846.870178,451
846.988098,465
847.106079,444
847.22406,449
847.34198,422
847.4599,450
847.577881,451
847.695801,437
847.813782,455
847.931641,447
848.049561,445
848.167603,433
848.285461,438
848.403381,454
848.521362,452
848.639221,468
848.75708,445
848.875,454
848.99292,444
849.110901,458
849.22876,438
849.34668,434
849.464539,459
849.582458,458
849.700317,444
849.818176,448
849.936096,432
850.053955,441
850.171875,432
850.289673,445
850.407593,449
850.525452,427
850.643311,453
850.761169,447
850.878967,431
850.996887,445
851.114746,437
851.232544,440
851.350403,445
851.468262,453
851.58606,451
851.703979,438
851.821777,426
851.939636,462
852.057434,446
852.175232,454
852.293091,440
852.410889,433
852.528687,452
852.646545,454
852.764343,429
852.88208,462
852.999939,447
853.117676,461
853.235535,411
853.353271,452
853.471069,451
853.588928,445
853.706604,442
853.824402,441
853.9422,449
854.059998,446
854.177734,457
854.295532,454
854.413269,440
854.531006,435
854.648804,468
854.766541,448
854.884277,457
855.002014,443
855.119751,448
855.237549,460
855.355225,450
855.473022,445
855.590698,439
855.708435,449
855.826172,438
855.943848,450
856.061646,447
856.179321,459
856.296997,452
856.414795,446
856.53241,434
856.650085,459
856.767822,449
856.885559,453
857.003174,464
857.120911,454
857.238586,459
857.356201,470
857.473938,460
857.591614,446
857.709351,438
857.826965,452
857.944641,445
858.062317,435
858.179993,445
858.297668,458
858.415283,459
858.532959,442
858.650574,456
858.768188,458
858.885803,455
859.003479,455
859.121094,449
859.23877,448
859.356384,435
859.473999,436
859.591675,434
859.709229,443
859.826843,449
859.944458,425
860.062012,437
860.179626,453
860.297302,442
860.414856,429
860.532471,466
860.650024,451
860.767639,443
860.885193,446
861.002808,456
861.120361,447
861.237976,449
861.35553,462
861.473022,447
861.590698,447
861.708191,451
861.825745,437
861.943298,433
862.060852,446
862.178406,456
862.295959,442
862.413513,436
862.531006,460
862.64856,447
862.766113,451
862.883667,442
863.00116,451
863.118713,453
863.236206,443
863.353699,432
863.471252,445
863.588745,434
863.706177,451
863.82373,459
863.941162,458
864.058716,451
864.176208,447
864.29364,438
864.411194,467
864.528687,454
864.646118,445
864.763611,472
864.881042,453
864.998535,460
865.116028,466
865.233459,449
865.350891,458
865.468384,449
865.585754,447
865.703308,454
865.820679,467
865.938171,452
866.055542,464
866.173035,438
866.290466,438
866.407837,439
866.52533,459
866.6427,448
866.760071,437
866.877563,444
866.994934,443
867.112305,469
867.229736,465
867.347107,452
867.464539,461
867.58197,452
867.699341,461
867.81665,448
867.934082,453
868.051453,440
868.168823,445
868.286194,465
868.403564,462
868.520935,437
868.638306,464
868.755676,440
868.872986,464
868.990295,435
869.107727,446
869.225037,449
869.342346,455
869.459717,427
869.577026,461
869.694336,449
869.811707,466
869.929016,475
870.046326,470
870.163635,439
870.280945,458
870.398254,429
870.515564,467
870.632812,455
870.750183,456
870.867432,444
870.984741,460
871.102051,458
871.219299,435
871.336609,467
871.453918,462
871.571106,464
871.688416,463
871.805664,428
871.922852,453
872.040222,441
872.157471,456
872.274719,439
872.391968,468
872.509155,436
872.626465,453
872.743652,446
872.860962,425
872.978149,462
873.095337,460
873.212646,451
873.329834,450
873.44696,438
873.564209,463
873.681396,461
873.798645,443
873.915894,431
874.03302,452
874.150208,449
874.267456,461
874.384583,432
874.501831,456
874.618958,433
874.736145,462
874.853333,427
874.970459,476
875.087646,443
875.204834,435
875.32196,451
875.439148,460
875.556274,438
875.673401,454
875.790527,442
875.907715,450
876.024841,449
876.141968,456
876.259094,444
876.376282,462
876.493347,445
876.610474,464
876.7276,443
876.844727,450
876.961853,440
877.078918,470
877.195984,460
877.313171,444
877.430237,431
877.547302,464
877.664368,442
877.781433,435
877.898499,456
878.015625,457
878.13269,435
878.249695,471
878.366821,440
878.483887,469
878.600952,463
878.717957,444
878.834961,446
878.952087,467
879.069092,434
879.186157,463
879.303162,438
879.420227,459
879.537231,453
879.654236,443
879.77124,449
879.888306,446
880.005249,462
880.122314,425
880.239319,457
880.356323,438
880.473328,452
880.590271,455
880.707275,435
880.824341,448
880.941284,456
881.058228,480
881.175232,440
881.292236,446
881.40918,437
881.526123,455
881.643066,433
881.760071,461
881.877014,443
881.993958,440
882.11084,450
882.227783,461
882.344727,454
882.46167,470
882.578613,453
882.695618,458
882.812439,446
882.929382,465
883.046326,464
883.163208,451
883.280151,456
883.397034,451
883.513916,432
883.630798,440
883.747742,453
883.864563,465
883.981506,453
884.098389,453
884.21521,439
884.332153,457
884.448975,450
884.565796,435
884.682678,441
884.7995,442
884.916443,441
885.033264,459
885.150085,450
885.266968,472
885.383789,453
885.500671,457
885.617493,438
885.734314,457
885.851196,469
885.967896,464
886.084717,451
886.201599,458
886.318359,462
886.435181,456
886.552002,446
886.668762,471
886.785645,461
886.902344,450
887.019165,455
887.135925,465
887.252747,453
887.369446,470
887.486267,464
887.603027,482
887.719788,449
887.836548,452
887.953247,442
888.070068,453
888.186829,463
888.303528,458
888.420288,444
888.536987,454
888.653687,453
888.770447,464
888.887146,451
889.003967,455
889.120667,452
889.237305,462
889.354065,454
889.470703,468
889.587463,468
889.704163,458
889.820862,447
889.937561,465
890.054199,446
890.170837,476
890.287598,459
890.404236,441
890.520874,454
890.637634,461
890.754211,449
890.87085,448
890.987549,431
891.104187,455
891.220886,458
891.337463,463
891.454102,466
891.57074,455
891.687378,453
891.804077,461
891.920654,454
892.037231,475
892.15387,463
892.270447,456
892.387085,447
892.503723,469
892.6203,450
892.736877,464
892.853516,461
892.970032,459
893.08667,453
893.203186,460
893.319763,443
893.43634,469
893.552917,462
893.669556,468
893.786011,459
893.902588,457
894.019165,455
894.135681,455
894.252197,436
894.368835,450
894.485291,434
894.601868,458
894.718384,442
894.8349,472
894.951355,462
895.067932,461
895.184448,453
895.300964,466
895.417419,444
895.533936,459
895.650452,470
895.766907,474
895.883423,464
895.999878,477
896.116333,451
896.232849,464
896.349304,468
896.465759,427
896.582214,463
896.698669,441
896.815125,442
896.931641,452
897.048035,449
897.164551,459
897.280884,448
897.397339,475
897.513794,448
897.630249,448
897.746582,461
897.863098,451
897.979431,454
898.095886,480
898.212341,453
898.328674,455
898.445129,463
898.561462,481
898.677795,457
898.794312,477
898.910645,468
899.026978,485
899.143433,461
899.259766,471
899.37616,457
899.492493,475
899.608765,469
899.725159,470
899.841553,447
899.957947,468
900.07428,460
900.190552,464
900.306946,448
900.423157,448
900.53949,457
900.655884,455
900.772156,454
900.888489,466
901.004822,457
901.121033,467
901.237366,464
901.353699,468
901.46991,456
901.586304,441
901.702515,447
901.818787,467
901.93512,465
902.051331,465
902.167603,443
902.283875,457
902.400085,475
902.516418,475
902.632629,473
902.74884,463
902.865112,463
902.981384,468
903.097595,470
903.213867,456
903.330017,482
903.446289,467
903.5625,481
903.67865,481
903.794922,445
903.911072,475
904.027344,456
904.143494,461
904.259705,456
904.375916,459
904.492065,458
904.608215,470
904.724426,442
904.840576,449
904.956726,478
905.072876,470
905.189087,461
905.305176,462
905.421387,465
905.537537,479
905.653687,465
905.769775,460
905.885925,469
906.002014,459
906.118164,467
906.234314,465
906.350403,449
906.466492,468
906.582642,447
906.69873,463
906.814758,461
906.930908,467
907.046936,452
907.163086,475
907.279175,443
907.395264,489
907.511353,459
907.62738,453
907.743408,451
907.859497,459
907.975525,451
908.091553,462
908.207703,455
908.32373,470
908.439758,474
908.555786,470
908.671814,457
908.787842,455
908.90387,444
909.019775,483
909.135864,468
909.251892,454
909.367859,444
909.483826,472
909.599854,457
909.715881,474
909.831848,482
909.947815,465
910.063782,464
910.179749,463
910.295776,452
910.411743,463
910.527649,454
910.643616,458
910.759583,465
910.875488,485
910.991455,477
911.107361,456
911.223267,477
911.339294,460
911.4552,456
911.571106,469
911.687073,476
911.802979,466
911.918823,459
912.034729,455
912.150635,442
912.266602,486
912.382446,463
912.498352,466
912.614197,447
912.730103,496
912.846008,450
792.44574,619
792.56488,646
792.68396,702
792.80304,658
792.92218,602
793.041199,608
793.160339,628
793.279419,630
793.398499,611
793.517578,609
793.636658,590
793.755737,613
793.874817,633
793.993896,628
794.112976,596
794.232056,575
794.351074,586
794.470215,575
794.589233,598
794.708313,571
794.827393,585
794.946411,605
795.065552,580
795.18457,601
795.303589,584
795.422668,581
795.541687,582
795.660767,580
795.779846,577
795.898865,596
796.017883,617
796.136963,584
796.255981,602
796.375061,582
796.49408,606
796.613037,600
796.732117,582
796.851135,583
796.970154,591
797.089233,590
797.208191,572
797.327271,578
797.446228,582
797.565186,564
797.684265,575
797.803223,561
797.922241,563
798.04126,566
798.160278,583
798.279297,577
798.398315,567
798.517273,582
798.636292,563
798.75531,562
798.874268,574
798.993286,575
799.112244,562
799.231323,583
799.350281,581
799.469238,588
799.588257,598
799.707153,581
799.826111,586
799.945129,575
800.064087,588
800.183044,554
800.302063,621
800.421021,583
800.539978,578
800.658936,594
800.777893,586
800.896912,580
801.015747,587
801.134705,598
801.253723,598
801.37262,561
801.491638,564
801.610535,571
801.729492,581
801.84845,590
801.967407,591
802.086243,589
802.205261,597
802.324158,597
802.443115,590
802.562073,598
802.680969,585
802.799927,598
802.918762,591
803.037659,578
803.156677,589
803.275574,595
803.39447,582
803.513428,590
803.632263,605
803.751221,590
803.870117,596
803.989014,598
804.107971,608
804.226746,599
804.345642,574
804.4646,608
804.583496,606
804.702393,594
804.821228,598
804.940125,612
805.059021,596
805.177917,601
805.296814,607
805.415649,607
805.534546,616
805.653442,618
805.772278,607
805.891113,614
806.01001,646
806.128906,618
806.247742,616
806.366577,617
806.485413,593
806.604309,615
806.723145,620
806.84198,623
806.960876,611
807.079712,599
807.198486,614
807.317383,629
807.436218,598
807.554993,612
807.673889,586
807.792725,613
807.91156,607
808.030396,662
808.14917,607
808.268005,609
808.386841,616
808.505676,622
808.624451,615
808.743286,613
808.862122,623
808.980896,657
809.099731,632
809.218506,600
809.337341,633
809.456116,626
809.57489,623
809.693726,632
809.8125,625
809.931274,636
810.050049,647
810.168884,627
810.287659,641
810.406372,659
810.525269,616
810.643982,610
810.762756,635
810.881531,632
811.000305,644
811.11908,618
811.237854,627
811.356567,654
811.475403,622
811.594116,627
811.71283,641
811.831604,637
811.950378,658
812.069153,630
812.187927,626
812.30658,621
812.425415,634
812.544128,628
812.662781,651
812.781616,617
812.900269,620
813.019043,630
813.137756,652
813.256531,613
813.375244,632
813.493896,621
813.612671,632
813.731384,638
813.850037,656
813.96875,619
814.087524,603
814.206238,634
814.324951,631
814.443604,638
814.562256,621
814.68103,632
814.799683,628
814.918335,654
815.037109,622
815.155762,606
815.274475,613
815.393188,633
815.511841,629
815.630554,621
815.749146,605
815.867859,621
815.986572,634
816.105164,618
816.223877,629
816.342529,612
816.461182,618
816.579895,620
816.698486,628
816.817139,630
816.935791,633
817.054504,637
817.173096,615
817.291748,612
817.4104,597
817.529053,583
817.647644,603
817.766235,587
817.884949,581
818.00354,586
818.122192,572
818.240845,547
818.359436,538
818.478088,546
818.59668,538
818.715271,502
818.833923,528
818.952515,529
819.071106,531
819.189758,504
819.30835,512
819.426941,507
819.545532,500
819.664124,497
819.782715,500
819.901306,505
820.019897,486
820.138489,490
820.25708,502
820.375671,492
820.494202,495
820.612732,485
820.731384,490
820.849915,491
820.968506,494
821.087097,490
821.205627,496
821.324158,491
821.442749,483
821.561279,469
821.679871,476
821.798401,474
821.916931,469
822.035461,508
822.154053,473
822.272583,485
822.391174,485
822.509583,486
822.628174,480
822.746704,477
822.865234,477
822.983765,481
823.102295,479
823.220825,470
823.339294,482
823.457825,492
823.576355,489
823.694824,474
823.813354,479
823.931885,479
824.050354,485
824.168884,489
824.287354,494
824.405823,501
824.524353,491
824.642822,487
824.761353,489
824.879822,464
824.998291,486
825.116699,480
825.235291,477
825.353699,496
825.472168,479
825.590637,481
825.709106,470
825.827576,468
825.946045,473
826.064453,470
826.182983,457
826.301392,457
826.4198,484
826.53833,480
826.656738,466
826.775208,464
826.893677,461
827.012024,459
827.130493,498
827.248962,487
827.36731,464
827.485779,463
827.604248,466
827.722595,455
827.841064,459
827.959412,476
828.077942,474
828.196289,453
828.314636,462
828.433105,473
828.551514,471
828.669861,453
828.78833,483
828.906677,469
829.025085,451
829.143433,470
829.261841,456
829.38031,466
829.498657,477
829.617004,431
829.735413,447
829.85376,451
829.972107,485
830.090515,476
830.208862,483
830.327209,465
830.445557,467
830.563904,440
830.682312,469
830.800659,445
830.919006,474
831.037354,473
831.155701,448
831.274048,445
831.392395,478
831.51062,451
831.629028,447
831.747314,462
831.865662,472
831.984009,451
832.102356,465
832.220642,465
832.338928,449
832.457275,462
832.575623,461
832.693909,460
832.812134,444
832.930481,460
833.048828,472
833.167114,467
833.2854,472
833.403687,457
833.521973,442
833.640259,468
833.758545,475
833.876831,466
833.995056,452
834.113281,458
834.231628,448
834.349915,456
834.468201,451
834.586426,456
834.704651,467
834.822998,451
834.941162,462
835.059448,468
835.177673,475
835.295959,448
835.414246,449
835.53241,445
835.650635,463
835.768921,452
835.887146,454
836.005371,488
836.123596,471
836.241821,457
836.360046,467
836.478271,468
836.596497,473
836.714722,459
836.832886,459
836.95105,487
837.069336,473
837.1875,465
837.305725,476
837.423889,477
837.542053,510
837.660339,472
837.778503,466
837.896667,461
838.014832,475
838.132996,482
838.25116,475
838.369385,461
838.487488,460
838.605713,477
838.723877,476
838.84198,472
838.960205,479
839.078308,466
839.196472,466
839.314636,454
839.4328,474
839.550964,477
839.669067,476
839.787231,469
839.905396,480
840.023499,460
840.141602,475
840.259766,481
840.377869,476
840.495972,460
840.614136,448
840.732239,468
840.850342,472
840.968445,459
841.086548,480
841.204651,470
841.322754,469
841.440918,462
841.55896,460
841.677002,461
841.795166,477
841.913208,462
842.031311,448
842.149353,474
842.267456,454
842.385498,447
842.503601,462
842.621643,439
842.739746,459
842.857788,454
842.97583,438
843.093933,463
843.211975,446
843.330017,418
843.44812,456
843.566101,453
843.684204,454
843.802246,446
843.920227,436
844.038269,452
844.156311,459
844.274292,462
844.392395,447
844.510376,464
844.628357,460
844.74646,448
844.864441,457
844.982422,435
845.100403,469
845.218384,450
845.336426,471
845.454468,451
845.572449,455
845.69043,449
845.808411,461
845.926453,449
846.044373,460
846.162354,468
846.280396,456
846.398315,438
846.516296,467
846.634216,465
846.752197,421
846.870178,439
846.988098,457
847.106079,452
847.22406,469
847.34198,449
847.4599,468
847.577881,436
847.695801,448
847.813782,454
847.931641,450
848.049561,447
848.167603,451
848.285461,454
848.403381,447
848.521362,444
848.639221,428
848.75708,462
848.875,451
848.99292,436
849.110901,450
849.22876,451
849.34668,444
849.464539,428
849.582458,464
849.700317,441
849.818176,464
849.936096,458
850.053955,445
850.171875,431
850.289673,479
850.407593,447
850.525452,462
850.643311,442
850.761169,459
850.878967,459
850.996887,461
851.114746,421
851.232544,452
851.350403,445
851.468262,443
851.58606,451
851.703979,446
851.821777,438
851.939636,463
852.057434,462
852.175232,460
852.293091,448
852.410889,468
852.528687,438
852.646545,447
852.764343,436
852.88208,455
852.999939,451
853.117676,443
853.235535,444
853.353271,442
853.471069,442
853.588928,462
853.706604,447
853.824402,461
853.9422,450
854.059998,443
854.177734,438
854.295532,450
854.413269,440
854.531006,448
854.648804,464
854.766541,442
854.884277,447
855.002014,444
855.119751,468
855.237549,437
855.355225,436
855.473022,475
855.590698,447
855.708435,464
855.826172,454
855.943848,460
856.061646,461
856.179321,450
856.296997,442
856.414795,446
856.53241,469
856.650085,441
856.767822,448
856.885559,468
857.003174,443
857.120911,451
857.238586,466
857.356201,474
857.473938,443
857.591614,457
857.709351,460
857.826965,474
857.944641,450
858.062317,463
858.179993,449
858.297668,451
858.415283,457
858.532959,457
858.650574,460
858.768188,461
858.885803,447
859.003479,467
859.121094,458
859.23877,464
859.356384,457
859.473999,462
859.591675,456
859.709229,467
859.826843,446
859.944458,445
860.062012,440
860.179626,448
860.297302,451
860.414856,461
860.532471,454
860.650024,452
860.767639,461
860.885193,439
861.002808,444
861.120361,450
861.237976,446
861.35553,450
861.473022,454
861.590698,439
861.708191,457
861.825745,456
861.943298,466
862.060852,437
862.178406,425
862.295959,444
862.413513,448
862.531006,439
862.64856,441
862.766113,443
862.883667,450
863.00116,453
863.118713,446
863.236206,444
863.353699,433
863.471252,444
863.588745,451
863.706177,448
863.82373,462
863.941162,453
864.058716,447
864.176208,465
864.29364,438
864.411194,445
864.528687,449
864.646118,465
864.763611,445
864.881042,434
864.998535,460
865.116028,469
865.233459,439
865.350891,464
865.468384,439
865.585754,464
865.703308,450
865.820679,472
865.938171,448
866.055542,453
866.173035,425
866.290466,453
866.407837,461
866.52533,466
866.6427,449
866.760071,453
866.877563,445
866.994934,457
867.112305,445
867.229736,470
867.347107,455
867.464539,460
867.58197,470
867.699341,458
867.81665,452
867.934082,462
868.051453,438
868.168823,459
868.286194,438
868.403564,428
868.520935,461
868.638306,472
868.755676,446
868.872986,449
868.990295,452
869.107727,439
869.225037,460
869.342346,446
869.459717,438
869.577026,466
869.694336,454
869.811707,454
869.929016,445
870.046326,452
870.163635,446
870.280945,443
870.398254,443
870.515564,458
870.632812,444
870.750183,471
870.867432,438
870.984741,456
871.102051,440
871.219299,443
871.336609,443
871.453918,457
871.571106,452
871.688416,466
871.805664,452
871.922852,455
872.040222,462
872.157471,462
872.274719,441
872.391968,461
872.509155,455
872.626465,456
872.743652,453
872.860962,453
872.978149,456
873.095337,469
873.212646,445
873.329834,463
873.44696,472
873.564209,448
873.681396,443
873.798645,457
873.915894,445
874.03302,456
874.150208,468
874.267456,459
874.384583,436
874.501831,448
874.618958,461
874.736145,457
874.853333,439
874.970459,421
875.087646,464
875.204834,448
875.32196,438
875.439148,458
875.556274,474
875.673401,459
875.790527,448
875.907715,441
876.024841,446
876.141968,451
876.259094,471
876.376282,444
876.493347,447
876.610474,434
876.7276,443
876.844727,449
876.961853,449
877.078918,457
877.195984,467
877.313171,466
877.430237,450
877.547302,455
877.664368,456
877.781433,459
877.898499,449
878.015625,436
878.13269,459
878.249695,469
878.366821,445
878.483887,455
878.600952,460
878.717957,448
878.834961,449
878.952087,443
879.069092,432
879.186157,448
879.303162,446
879.420227,456
879.537231,435
879.654236,443
879.77124,453
879.888306,450
880.005249,435
880.122314,448
880.239319,429
880.356323,464
880.473328,459
880.590271,439
880.707275,452
880.824341,456
880.941284,443
881.058228,455
881.175232,451
881.292236,455
881.40918,454
881.526123,447
881.643066,440
881.760071,445
881.877014,437
881.993958,460
882.11084,442
882.227783,437
882.344727,449
882.46167,451
882.578613,461
882.695618,460
882.812439,433
882.929382,447
883.046326,454
883.163208,456
883.280151,471
883.397034,453
883.513916,454
883.630798,474
883.747742,431
883.864563,456
883.981506,451
884.098389,463
884.21521,441
884.332153,449
884.448975,450
884.565796,452
884.682678,453
884.7995,457
884.916443,443
885.033264,461
885.150085,449
885.266968,431
885.383789,445
885.500671,450
885.617493,461
885.734314,462
885.851196,450
885.967896,468
886.084717,465
886.201599,450
886.318359,463
886.435181,475
886.552002,458
886.668762,458
886.785645,431
886.902344,452
887.019165,459
887.135925,448
887.252747,471
887.369446,455
887.486267,458
887.603027,455
887.719788,453
887.836548,465
887.953247,446
888.070068,465
888.186829,440
888.303528,438
888.420288,463
888.536987,451
888.653687,463
888.770447,461
888.887146,442
889.003967,453
889.120667,449
889.237305,456
889.354065,460
889.470703,475
889.587463,464
889.704163,441
889.820862,472
889.937561,454
890.054199,467
890.170837,448
890.287598,466
890.404236,466
890.520874,472
890.637634,462
890.754211,454
890.87085,453
890.987549,458
891.104187,458
891.220886,443
891.337463,445
891.454102,466
891.57074,466
891.687378,476
891.804077,474
891.920654,450
892.037231,451
892.15387,448
892.270447,454
892.387085,462
892.503723,464
892.6203,445
892.736877,461
892.853516,457
892.970032,480
893.08667,460
893.203186,471
893.319763,457
893.43634,450
893.552917,457
893.669556,444
893.786011,470
893.902588,480
894.019165,457
894.135681,483
894.252197,466
894.368835,461
894.485291,448
894.601868,445
894.718384,444
894.8349,461
894.951355,460
895.067932,463
895.184448,459
895.300964,472
895.417419,458
895.533936,468
895.650452,438
895.766907,466
895.883423,456
895.999878,464
896.116333,479
896.232849,480
896.349304,461
896.465759,499
896.582214,463
896.698669,462
896.815125,454
896.931641,463
897.048035,467
897.164551,483
897.280884,455
897.397339,473
897.513794,457
897.630249,442
897.746582,450
897.863098,447
897.979431,460
898.095886,449
898.212341,449
898.328674,463
898.445129,457
898.561462,468
898.677795,470
898.794312,461
898.910645,444
899.026978,473
899.143433,460
899.259766,451
899.37616,463
899.492493,480
899.608765,443
899.725159,473
899.841553,447
899.957947,446
900.07428,442
900.190552,474
900.306946,448
900.423157,480
900.53949,455
900.655884,447
900.772156,459
900.888489,461
901.004822,462
901.121033,476
901.237366,469
901.353699,474
901.46991,471
901.586304,454
901.702515,464
901.818787,477
901.93512,472
902.051331,488
902.167603,459
902.283875,479
902.400085,462
902.516418,481
902.632629,475
902.74884,465
902.865112,461
902.981384,476
903.097595,479
903.213867,474
903.330017,451
903.446289,462
903.5625,460
903.67865,475
903.794922,449
903.911072,447
904.027344,473
904.143494,480
904.259705,455
904.375916,487
904.492065,458
904.608215,470
904.724426,448
904.840576,474
904.956726,471
905.072876,489
905.189087,464
905.305176,474
905.421387,454
905.537537,450
905.653687,458
905.769775,452
905.885925,468
906.002014,491
906.118164,457
906.234314,474
906.350403,451
906.466492,487
906.582642,461
906.69873,479
906.814758,451
906.930908,488
907.046936,455
907.163086,464
907.279175,477
907.395264,476
907.511353,477
907.62738,468
907.743408,452
907.859497,455
907.975525,468
908.091553,473
908.207703,449
908.32373,472
908.439758,480
908.555786,460
908.671814,462
908.787842,478
908.90387,468
909.019775,455
909.135864,466
909.251892,474
909.367859,474
909.483826,485
909.599854,455
909.715881,484
909.831848,461
909.947815,455
910.063782,457
910.179749,476
910.295776,470
910.411743,474
910.527649,448
910.643616,461
910.759583,455
910.875488,484
910.991455,451
911.107361,479
911.223267,480
911.339294,463
911.4552,464
911.571106,476
911.687073,459
911.802979,477
911.918823,470
912.034729,464
912.150635,484
912.266602,484
912.382446,492
912.498352,448
912.614197,484
912.730103,472
912.846008,498
792.44574,601
792.56488,645
792.68396,654
792.80304,655
792.92218,596
793.041199,614
793.160339,636
793.279419,601
793.398499,600
793.517578,610
793.636658,599
793.755737,603
793.874817,624
793.993896,628
794.112976,601
794.232056,576
794.351074,596
794.470215,603
794.589233,583
794.708313,588
794.827393,587
794.946411,613
795.065552,610
795.18457,582
795.303589,606
795.422668,584
795.541687,598
795.660767,590
795.779846,603
795.898865,583
796.017883,579
796.136963,592
796.255981,575
796.375061,579
796.49408,601
796.613037,596
796.732117,572
796.851135,576
796.970154,568
797.089233,572
797.208191,577
797.327271,601
797.446228,568
797.565186,598
797.684265,581
797.803223,578
797.922241,585
798.04126,599
798.160278,571
798.279297,575
798.398315,576
798.517273,564
798.636292,594
798.75531,577
798.874268,564
798.993286,574
799.112244,548
799.231323,575
799.350281,588
799.469238,552
799.588257,572
799.707153,572
799.826111,584
799.945129,561
800.064087,567
800.183044,584
800.302063,585
800.421021,602
800.539978,568
800.658936,578
800.777893,576
800.896912,571
801.015747,561
801.134705,592
801.253723,572
801.37262,582
801.491638,596
801.610535,578
801.729492,582
801.84845,576
801.967407,594
802.086243,590
802.205261,582
802.324158,589
802.443115,587
802.562073,599
802.680969,585
802.799927,593
802.918762,582
803.037659,572
803.156677,572
803.275574,591
803.39447,587
803.513428,602
803.632263,586
803.751221,596
803.870117,593
803.989014,595
804.107971,604
804.226746,604
804.345642,605
804.4646,617
804.583496,600
804.702393,611
804.821228,606
804.940125,594
805.059021,621
805.177917,628
805.296814,620
805.415649,633
805.534546,614
805.653442,582
805.772278,616
805.891113,621
806.01001,630
806.128906,625
806.247742,606
806.366577,603
806.485413,595
806.604309,611
806.723145,610
806.84198,625
806.960876,609
807.079712,585
807.198486,599
807.317383,612
807.436218,601
807.554993,643
807.673889,625
807.792725,632
807.91156,613
808.030396,617
808.14917,634
808.268005,631
808.386841,640
808.505676,633
808.624451,627
808.743286,623
808.862122,609
808.980896,615
809.099731,613
809.218506,621
809.337341,620
809.456116,631
809.57489,640
809.693726,617
809.8125,628
809.931274,632
810.050049,623
810.168884,679
810.287659,610
810.406372,645
810.525269,628
810.643982,633
810.762756,591
810.881531,644
811.000305,627
811.11908,648
811.237854,604
811.356567,610
811.475403,606
811.594116,650
811.71283,638
811.831604,641
811.950378,653
812.069153,640
812.187927,620
812.30658,624
812.425415,632
812.544128,633
812.662781,633
812.781616,624
812.900269,619
813.019043,642
813.137756,628
813.256531,630
813.375244,641
813.493896,621
813.612671,627
813.731384,639
813.850037,629
813.96875,645
814.087524,665
814.206238,629
814.324951,638
814.443604,613
814.562256,617
814.68103,639
814.799683,659
814.918335,633
815.037109,623
815.155762,614
815.274475,593
815.393188,614
815.511841,594
815.630554,626
815.749146,606
815.867859,628
815.986572,609
816.105164,618
816.223877,606
816.342529,636
816.461182,611
816.579895,626
816.698486,618
816.817139,628
816.935791,626
817.054504,614
817.173096,623
817.291748,605
817.4104,611
817.529053,600
817.647644,602
817.766235,564
817.884949,595
818.00354,586
818.122192,551
818.240845,561
818.359436,536
818.478088,527
818.59668,521
818.715271,545
818.833923,521
818.952515,540
819.071106,541
819.189758,509
819.30835,501
819.426941,518
819.545532,516
819.664124,528
819.782715,519
819.901306,505
820.019897,504
820.138489,500
820.25708,500
820.375671,506
820.494202,497
820.612732,492
820.731384,486
820.849915,507
820.968506,503
821.087097,508
821.205627,502
821.324158,479
821.442749,470
821.561279,477
821.679871,502
821.798401,494
821.916931,499
822.035461,465
822.154053,488
822.272583,517
822.391174,487
822.509583,480
822.628174,500
822.746704,488
822.865234,484
822.983765,473
823.102295,479
823.220825,487
823.339294,468
823.457825,479
823.576355,482
823.694824,482
823.813354,496
823.931885,498
824.050354,484
824.168884,486
824.287354,477
824.405823,474
824.524353,491
824.642822,501
824.761353,475
824.879822,502
824.998291,494
825.116699,497
825.235291,479
825.353699,482
825.472168,490
825.590637,476
825.709106,470
825.827576,472
825.946045,467
826.064453,477
826.182983,471
826.301392,492
826.4198,464
826.53833,470
826.656738,445
826.775208,482
826.893677,464
827.012024,473
827.130493,472
827.248962,471
827.36731,468
827.485779,486
827.604248,467
827.722595,472
827.841064,453
827.959412,457
828.077942,473
828.196289,471
828.314636,459
828.433105,453
828.551514,451
828.669861,464
828.78833,476
828.906677,469
829.025085,446
829.143433,468
829.261841,448
829.38031,469
829.498657,468
829.617004,459
829.735413,452
829.85376,469
829.972107,449
830.090515,473
830.208862,444
830.327209,450
830.445557,466
830.563904,458
830.682312,460
830.800659,468
830.919006,457
831.037354,457
831.155701,445
831.274048,456
831.392395,472
831.51062,471
831.629028,467
831.747314,467
831.865662,446
831.984009,459
832.102356,449
832.220642,460
832.338928,471
832.457275,465
832.575623,452
832.693909,464
832.812134,473
832.930481,451
833.048828,466
833.167114,463
833.2854,474
833.403687,466
833.521973,463
833.640259,455
833.758545,468
833.876831,454
833.995056,445
834.113281,470
834.231628,453
834.349915,453
834.468201,438
834.586426,458
834.704651,452
834.822998,466
834.941162,463
835.059448,475
835.177673,456
835.295959,460
835.414246,463
835.53241,457
835.650635,450
835.768921,482
835.887146,449
836.005371,479
836.123596,480
836.241821,458
836.360046,477
836.478271,469
836.596497,464
836.714722,460
836.832886,465
836.95105,463
837.069336,484
837.1875,473
837.305725,466
837.423889,483
837.542053,474
837.660339,476
837.778503,476
837.896667,468
838.014832,484
838.132996,488
838.25116,476
838.369385,478
838.487488,487
838.605713,469
838.723877,458
838.84198,471
838.960205,470
839.078308,474
839.196472,490
839.314636,464
839.4328,471
839.550964,468
839.669067,456
839.787231,465
839.905396,466
840.023499,459
840.141602,478
840.259766,464
840.377869,463
840.495972,451
840.614136,469
840.732239,483
840.850342,468
840.968445,462
841.086548,464
841.204651,463
841.322754,454
841.440918,464
841.55896,450
841.677002,457
841.795166,448
841.913208,443
842.031311,457
842.149353,474
842.267456,436
842.385498,475
842.503601,466
842.621643,445
842.739746,456
842.857788,449
842.97583,481
843.093933,438
843.211975,462
843.330017,449
843.44812,442
843.566101,462
843.684204,445
843.802246,453
843.920227,450
844.038269,451
844.156311,457
844.274292,443
844.392395,448
844.510376,450
844.628357,442
844.74646,450
844.864441,451
844.982422,460
845.100403,466
845.218384,448
845.336426,446
845.454468,464
845.572449,453
845.69043,447
845.808411,448
845.926453,459
846.044373,463
846.162354,426
846.280396,450
846.398315,433
846.516296,445
846.634216,444
846.752197,447
846.870178,448
846.988098,429
847.106079,439
847.22406,444
847.34198,450
847.4599,439
847.577881,459
847.695801,449
847.813782,455
847.931641,461
848.049561,438
848.167603,442
848.285461,464
848.403381,429
848.521362,451
848.639221,423
848.75708,465
848.875,447
848.99292,457
849.110901,455
849.22876,438
849.34668,437
849.464539,448
849.582458,450
849.700317,435
849.818176,436
849.936096,449
850.053955,464
850.171875,447
850.289673,443
850.407593,424
850.525452,436
850.643311,455
850.761169,433
850.878967,449
850.996887,453
851.114746,445
851.232544,448
851.350403,453
851.468262,429
851.58606,446
851.703979,438
851.821777,447
851.939636,442
852.057434,438
852.175232,449
852.293091,467
852.410889,452
852.528687,439
852.646545,463
852.764343,451
852.88208,457
852.999939,459
853.117676,451
853.235535,446
853.353271,453
853.471069,437
853.588928,431
853.706604,447
853.824402,442
853.9422,434
854.059998,465
854.177734,468
854.295532,457
854.413269,453
854.531006,453
854.648804,450
854.766541,478
854.884277,459
855.002014,457
855.119751,452
855.237549,447
855.355225,454
855.473022,462
855.590698,477
855.708435,462
855.826172,452
855.943848,464
856.061646,471
856.179321,437
856.296997,458
856.414795,461
856.53241,457
856.650085,470
856.767822,451
856.885559,457
857.003174,456
857.120911,448
857.238586,439
857.356201,441
857.473938,459
857.591614,443
857.709351,447
857.826965,470
857.944641,474
858.062317,439
858.179993,475
858.297668,441
858.415283,461
858.532959,431
858.650574,455
858.768188,457
858.885803,447
859.003479,458
859.121094,444
859.23877,456
859.356384,463
859.473999,451
859.591675,430
859.709229,428
859.826843,456
859.944458,447
860.062012,453
860.179626,462
860.297302,453
860.414856,463
860.532471,439
860.650024,459
860.767639,459
860.885193,440
861.002808,439
861.120361,456
861.237976,459
861.35553,458
861.473022,433
861.590698,445
861.708191,450
861.825745,445
861.943298,440
862.060852,454
862.178406,457
862.295959,442
862.413513,438
862.531006,448
862.64856,448
862.766113,455
862.883667,466
863.00116,448
863.118713,445
863.236206,441
863.353699,473
863.471252,458
863.588745,453
863.706177,458
863.82373,460
863.941162,447
864.058716,465
864.176208,457
864.29364,458
864.411194,452
864.528687,443
864.646118,464
864.763611,442
864.881042,467
864.998535,454
865.116028,469
865.233459,445
865.350891,435
865.468384,461
865.585754,460
865.703308,445
865.820679,460
865.938171,448
866.055542,440
866.173035,459
866.290466,445
866.407837,466
866.52533,453
866.6427,471
866.760071,443
866.877563,459
866.994934,457
867.112305,438
867.229736,444
867.347107,459
867.464539,447
867.58197,465
867.699341,455
867.81665,450
867.934082,449
868.051453,448
868.168823,442
868.286194,444
868.403564,451
868.520935,472
868.638306,495
868.755676,447
868.872986,454
868.990295,446
869.107727,455
869.225037,463
869.342346,449
869.459717,467
869.577026,455
869.694336,455
869.811707,456
869.929016,474
870.046326,462
870.163635,438
870.280945,443
870.398254,461
870.515564,447
870.632812,453
870.750183,445
870.867432,443
870.984741,451
871.102051,461
871.219299,474
871.336609,445
871.453918,448
871.571106,456
871.688416,435
871.805664,440
871.922852,463
872.040222,453
872.157471,465
872.274719,440
872.391968,457
872.509155,457
872.626465,427
872.743652,462
872.860962,461
872.978149,446
873.095337,454
873.212646,445
873.329834,457
873.44696,446
873.564209,455
873.681396,455
873.798645,434
873.915894,452
874.03302,463
874.150208,439
874.267456,460
874.384583,456
874.501831,434
874.618958,449
874.736145,432
874.853333,461
874.970459,449
875.087646,462
875.204834,448
875.32196,471
875.439148,452
875.556274,455
875.673401,456
875.790527,456
875.907715,444
876.024841,457
876.141968,439
876.259094,441
876.376282,427
876.493347,473
876.610474,462
876.7276,451
876.844727,454
876.961853,476
877.078918,448
877.195984,465
877.313171,468
877.430237,492
877.547302,472
877.664368,466
877.781433,443
877.898499,458
878.015625,459
878.13269,462
878.249695,476
878.366821,452
878.483887,451
878.600952,463
878.717957,426
878.834961,463
878.952087,459
879.069092,443
879.186157,442
879.303162,455
879.420227,446
879.537231,459
879.654236,455
879.77124,458
879.888306,462
880.005249,442
880.122314,452
880.239319,462
880.356323,450
880.473328,443
880.590271,443
880.707275,451
880.824341,459
880.941284,451
881.058228,456
881.175232,452
881.292236,460
881.40918,450
881.526123,450
881.643066,437
881.760071,461
881.877014,438
881.993958,458
882.11084,457
882.227783,453
882.344727,461
882.46167,458
882.578613,454
882.695618,460
882.812439,451
882.929382,447
883.046326,452
883.163208,447
883.280151,457
883.397034,455
883.513916,462
883.630798,443
883.747742,453
883.864563,445
883.981506,474
884.098389,464
884.21521,451
884.332153,461
884.448975,461
884.565796,454
884.682678,470
884.7995,471
884.916443,461
885.033264,455
885.150085,448
885.266968,476
885.383789,464
885.500671,458
885.617493,456
885.734314,440
885.851196,462
885.967896,470
886.084717,456
886.201599,457
886.318359,455
886.435181,474
886.552002,439
886.668762,455
886.785645,456
886.902344,467
887.019165,458
887.135925,439
887.252747,470
887.369446,456
887.486267,468
887.603027,441
887.719788,465
887.836548,431
887.953247,452
888.070068,451
888.186829,462
888.303528,463
888.420288,459
888.536987,464
888.653687,440
888.770447,459
888.887146,454
889.003967,435
889.120667,461
889.237305,458
889.354065,471
889.470703,446
889.587463,470
889.704163,452
889.820862,454
889.937561,460
890.054199,450
890.170837,437
890.287598,461
890.404236,454
890.520874,463
890.637634,458
890.754211,477
890.87085,475
890.987549,461
891.104187,438
891.220886,452
891.337463,458
891.454102,460
891.57074,447
891.687378,447
891.804077,486
891.920654,467
892.037231,457
892.15387,474
892.270447,464
892.387085,457
892.503723,466
892.6203,459
892.736877,462
892.853516,482
892.970032,481
893.08667,456
893.203186,463
893.319763,481
893.43634,463
893.552917,478
893.669556,447
893.786011,462
893.902588,467
894.019165,464
894.135681,492
894.252197,466
894.368835,442
894.485291,467
894.601868,455
894.718384,458
894.8349,457
894.951355,462
895.067932,443
895.184448,450
895.300964,465
895.417419,470
895.533936,469
895.650452,463
895.766907,457
895.883423,455
895.999878,456
896.116333,481
896.232849,442
896.349304,461
896.465759,459
896.582214,477
896.698669,455
896.815125,468
896.931641,460
897.048035,469
897.164551,467
897.280884,471
897.397339,459
897.513794,471
897.630249,448
897.746582,448
897.863098,457
897.979431,464
898.095886,469
898.212341,476
898.328674,444
898.445129,462
898.561462,458
898.677795,483
898.794312,468
898.910645,450
899.026978,460
899.143433,467
899.259766,463
899.37616,453
899.492493,474
899.608765,463
899.725159,454
899.841553,458
899.957947,450
900.07428,455
900.190552,462
900.306946,467
900.423157,457
900.53949,462
900.655884,465
900.772156,467
900.888489,468
901.004822,463
901.121033,461
901.237366,451
901.353699,468
901.46991,464
901.586304,469
901.702515,485
901.818787,458
901.93512,469
902.051331,459
902.167603,460
902.283875,473
902.400085,462
902.516418,456
902.632629,475
902.74884,486
902.865112,463
902.981384,461
903.097595,490
903.213867,460
903.330017,452
903.446289,450
903.5625,473
903.67865,484
903.794922,474
903.911072,464
904.027344,453
904.143494,464
904.259705,463
904.375916,463
904.492065,464
904.608215,459
904.724426,469
904.840576,463
904.956726,473
905.072876,481
905.189087,479
905.305176,465
905.421387,480
905.537537,457
905.653687,456
905.769775,465
905.885925,464
906.002014,476
906.118164,450
906.234314,454
906.350403,473
906.466492,467
906.582642,463
906.69873,474
906.814758,475
906.930908,471
907.046936,474
907.163086,478
907.279175,462
907.395264,463
907.511353,467
907.62738,476
907.743408,486
907.859497,475
907.975525,476
908.091553,471
908.207703,460
908.32373,469
908.439758,476
908.555786,474
908.671814,483
908.787842,465
908.90387,477
909.019775,460
909.135864,478
909.251892,465
909.367859,461
909.483826,466
909.599854,507
909.715881,457
909.831848,469
909.947815,485
910.063782,446
910.179749,466
910.295776,470
910.411743,463
910.527649,479
910.643616,458
910.759583,455
910.875488,461
910.991455,491
911.107361,466
911.223267,470
911.339294,481
911.4552,467
911.571106,473
911.687073,474
911.802979,460
911.918823,450
912.034729,449
912.150635,475
912.266602,451
912.382446,485
912.498352,448
912.614197,480
912.730103,501
912.846008,461
