792.44574,638
792.56488,646
792.68396,707
792.80304,650
792.92218,630
793.041199,611
793.160339,620
793.279419,628
793.398499,619
793.517578,597
793.636658,580
793.755737,615
793.874817,646
793.993896,629
794.112976,592
794.232056,588
794.351074,594
794.470215,579
794.589233,604
794.708313,590
794.827393,589
794.946411,591
795.065552,599
795.18457,613
795.303589,584
795.422668,574
795.541687,574
795.660767,572
795.779846,586
795.898865,567
796.017883,589
796.136963,575
796.255981,571
796.375061,582
796.49408,596
796.613037,569
796.732117,608
796.851135,574
796.970154,566
797.089233,576
797.208191,591
797.327271,596
797.446228,567
797.565186,573
797.684265,578
797.803223,586
797.922241,582
798.04126,571
798.160278,574
798.279297,591
798.398315,561
798.517273,578
798.636292,567
798.75531,563
798.874268,581
798.993286,560
799.112244,585
799.231323,583
799.350281,580
799.469238,567
799.588257,578
799.707153,595
799.826111,574
799.945129,569
800.064087,587
800.183044,563
800.302063,585
800.421021,578
800.539978,571
800.658936,566
800.777893,598
800.896912,584
801.015747,584
801.134705,579
801.253723,596
801.37262,567
801.491638,582
801.610535,553
801.729492,583
801.84845,596
801.967407,597
802.086243,569
802.205261,586
802.324158,587
802.443115,587
802.562073,586
802.680969,593
802.799927,566
802.918762,553
803.037659,580
803.156677,576
803.275574,577
803.39447,579
803.513428,606
803.632263,591
803.751221,609
803.870117,588
803.989014,601
804.107971,592
804.226746,573
804.345642,615
804.4646,617
804.583496,585
804.702393,594
804.821228,605
804.940125,600
805.059021,602
805.177917,581
805.296814,613
805.415649,618
805.534546,616
805.653442,597
805.772278,608
805.891113,611
806.01001,606
806.128906,609
806.247742,623
806.366577,625
806.485413,609
806.604309,619
806.723145,634
806.84198,623
806.960876,595
807.079712,588
807.198486,605
807.317383,631
807.436218,629
807.554993,617
807.673889,624
807.792725,616
807.91156,644
808.030396,614
808.14917,602
808.268005,621
808.386841,594
808.505676,618
808.624451,621
808.743286,611
808.862122,601
808.980896,597
809.099731,613
809.218506,609
809.337341,619
809.456116,622
809.57489,597
809.693726,603
809.8125,613
809.931274,648
810.050049,646
810.168884,625
810.287659,642
810.406372,625
810.525269,627
810.643982,644
810.762756,618
810.881531,611
811.000305,636
811.11908,640
811.237854,628
811.356567,595
811.475403,627
811.594116,625
811.71283,629
811.831604,640
811.950378,620
812.069153,627
812.187927,625
812.30658,606
812.425415,656
812.544128,621
812.662781,630
812.781616,622
812.900269,639
813.019043,612
813.137756,619
813.256531,624
813.375244,624
813.493896,647
813.612671,639
813.731384,597
813.850037,633
813.96875,622
814.087524,601
814.206238,620
814.324951,621
814.443604,595
814.562256,631
814.68103,614
814.799683,625
814.918335,600
815.037109,619
815.155762,605
815.274475,608
815.393188,631
815.511841,596
815.630554,603
815.749146,617
815.867859,601
815.986572,612
816.105164,609
816.223877,594
816.342529,607
816.461182,623
816.579895,608
816.698486,579
816.817139,612
816.935791,633
817.054504,593
817.173096,592
817.291748,611
817.4104,578
817.529053,610
817.647644,616
817.766235,557
817.884949,569
818.00354,567
818.122192,579
818.240845,561
818.359436,567
818.478088,553
818.59668,563
818.715271,524
818.833923,545
818.952515,540
819.071106,533
819.189758,527
819.30835,521
819.426941,500
819.545532,509
819.664124,498
819.782715,511
819.901306,503
820.019897,492
820.138489,493
820.25708,489
820.375671,489
820.494202,484
820.612732,480
820.731384,493
820.849915,495
820.968506,473
821.087097,486
821.205627,484
821.324158,498
821.442749,479
821.561279,497
821.679871,500
821.798401,475
821.916931,499
822.035461,468
822.154053,491
822.272583,465
822.391174,490
822.509583,482
822.628174,482
822.746704,479
822.865234,498
822.983765,482
823.102295,470
823.220825,477
823.339294,479
823.457825,457
823.576355,468
823.694824,476
823.813354,484
823.931885,489
824.050354,481
824.168884,467
824.287354,476
824.405823,480
824.524353,474
824.642822,471
824.761353,482
824.879822,470
824.998291,497
825.116699,474
825.235291,467
825.353699,466
825.472168,474
825.590637,470
825.709106,487
825.827576,461
825.946045,473
826.064453,472
826.182983,464
826.301392,460
826.4198,470
826.53833,463
826.656738,457
826.775208,467
826.893677,471
827.012024,484
827.130493,472
827.248962,456
827.36731,473
827.485779,457
827.604248,472
827.722595,451
827.841064,472
827.959412,463
828.077942,450
828.196289,467
828.314636,454
828.433105,448
828.551514,449
828.669861,477
828.78833,473
828.906677,438
829.025085,468
829.143433,471
829.261841,455
829.38031,450
829.498657,463
829.617004,459
829.735413,460
829.85376,458
829.972107,458
830.090515,452
830.208862,466
830.327209,455
830.445557,473
830.563904,441
830.682312,462
830.800659,465
830.919006,456
831.037354,448
831.155701,453
831.274048,460
831.392395,458
831.51062,429
831.629028,455
831.747314,446
831.865662,456
831.984009,456
832.102356,467
832.220642,450
832.338928,461
832.457275,456
832.575623,464
832.693909,453
832.812134,451
832.930481,455
833.048828,447
833.167114,461
833.2854,469
833.403687,475
833.521973,461
833.640259,461
833.758545,451
833.876831,452
833.995056,464
834.113281,461
834.231628,463
834.349915,452
834.468201,459
834.586426,465
834.704651,462
834.822998,457
834.941162,456
835.059448,457
835.177673,440
835.295959,437
835.414246,474
835.53241,468
835.650635,462
835.768921,447
835.887146,447
836.005371,462
836.123596,464
836.241821,447
836.360046,485
836.478271,473
836.596497,480
836.714722,455
836.832886,478
836.95105,477
837.069336,479
837.1875,474
837.305725,472
837.423889,473
837.542053,488
837.660339,480
837.778503,490
837.896667,455
838.014832,472
838.132996,454
838.25116,480
838.369385,477
838.487488,473
838.605713,465
838.723877,475
838.84198,485
838.960205,467
839.078308,477
839.196472,468
839.314636,477
839.4328,473
839.550964,470
839.669067,456
839.787231,453
839.905396,480
840.023499,475
840.141602,480
840.259766,483
840.377869,465
840.495972,436
840.614136,468
840.732239,462
840.850342,458
840.968445,449
841.086548,467
841.204651,450
841.322754,451
841.440918,466
841.55896,448
841.677002,469
841.795166,462
841.913208,452
842.031311,458
842.149353,452
842.267456,462
842.385498,455
842.503601,466
842.621643,451
842.739746,452
842.857788,443
842.97583,448
843.093933,434
843.211975,451
843.330017,449
843.44812,462
843.566101,452
843.684204,453
843.802246,457
843.920227,431
844.038269,430
844.156311,448
844.274292,435
844.392395,450
844.510376,433
844.628357,445
844.74646,457
844.864441,450
844.982422,438
845.100403,443
845.218384,439
845.336426,473
845.454468,442
845.572449,458
845.69043,432
845.808411,457
845.926453,451
846.044373,433
846.162354,465
846.280396,468
846.398315,441
846.516296,451
846.634216,439
846.752197,455
846.870178,449
846.988098,460
847.106079,452
847.22406,443
847.34198,427
847.4599,457
847.577881,445
847.695801,440
847.813782,424
847.931641,445
848.049561,441
848.167603,461
848.285461,434
848.403381,449
848.521362,448
848.639221,448
848.75708,450
848.875,455
848.99292,435
849.110901,448
849.22876,440
849.34668,447
849.464539,431
849.582458,430
849.700317,462
849.818176,433
849.936096,465
850.053955,456
850.171875,429
850.289673,441
850.407593,433
850.525452,437
850.643311,433
850.761169,460
850.878967,446
850.996887,452
851.114746,440
851.232544,433
851.350403,451
851.468262,436
851.58606,439
851.703979,430
851.821777,422
851.939636,450
852.057434,448
852.175232,434
852.293091,449
852.410889,457
852.528687,447
852.646545,463
852.764343,450
852.88208,442
852.999939,432
853.117676,443
853.235535,454
853.353271,448
853.471069,455
853.588928,462
853.706604,455
853.824402,445
853.9422,453
854.059998,461
854.177734,449
854.295532,451
854.413269,449
854.531006,445
854.648804,452
854.766541,453
854.884277,452
855.002014,449
855.119751,446
855.237549,465
855.355225,457
855.473022,464
855.590698,442
855.708435,467
855.826172,463
855.943848,465
856.061646,455
856.179321,477
856.296997,466
856.414795,439
856.53241,443
856.650085,453
856.767822,446
856.885559,448
857.003174,440
857.120911,484
857.238586,467
857.356201,453
857.473938,443
857.591614,451
857.709351,456
857.826965,477
857.944641,445
858.062317,467
858.179993,454
858.297668,446
858.415283,465
858.532959,453
858.650574,462
858.768188,469
858.885803,430
859.003479,454
859.121094,461
859.23877,452
859.356384,456
859.473999,458
859.591675,455
859.709229,436
859.826843,438
859.944458,457
860.062012,456
860.179626,440
860.297302,444
860.414856,453
860.532471,462
860.650024,456
860.767639,451
860.885193,461
861.002808,436
861.120361,452
861.237976,454
861.35553,438
861.473022,457
861.590698,451
861.708191,448
861.825745,456
861.943298,454
862.060852,453
862.178406,432
862.295959,448
862.413513,425
862.531006,442
862.64856,434
862.766113,446
862.883667,429
863.00116,447
863.118713,456
863.236206,448
863.353699,437
863.471252,451
863.588745,451
863.706177,452
863.82373,435
863.941162,460
864.058716,458
864.176208,454
864.29364,431
864.411194,442
864.528687,442
864.646118,445
864.763611,446
864.881042,460
864.998535,455
865.116028,440
865.233459,462
865.350891,447
865.468384,435
865.585754,455
865.703308,445
865.820679,449
865.938171,459
866.055542,454
866.173035,461
866.290466,451
866.407837,437
866.52533,441
866.6427,457
866.760071,451
866.877563,439
866.994934,457
867.112305,440
867.229736,468
867.347107,448
867.464539,448
867.58197,438
867.699341,446
867.81665,440
867.934082,463
868.051453,457
868.168823,460
868.286194,447
868.403564,464
868.520935,442
868.638306,438
868.755676,451
868.872986,453
868.990295,447
869.107727,463
869.225037,455
869.342346,477
869.459717,463
869.577026,455
869.694336,442
869.811707,462
869.929016,448
870.046326,463
870.163635,456
870.280945,452
870.398254,450
870.515564,458
870.632812,453
870.750183,450
870.867432,458
870.984741,458
871.102051,437
871.219299,447
871.336609,442
871.453918,442
871.571106,451
871.688416,443
871.805664,445
871.922852,457
872.040222,441
872.157471,452
872.274719,446
872.391968,470
872.509155,444
872.626465,444
872.743652,434
872.860962,467
872.978149,452
873.095337,439
873.212646,437
873.329834,453
873.44696,459
873.564209,453
873.681396,441
873.798645,450
873.915894,449
874.03302,436
874.150208,455
874.267456,452
874.384583,448
874.501831,479
874.618958,440
874.736145,443
874.853333,453
874.970459,456
875.087646,438
875.204834,464
875.32196,444
875.439148,461
875.556274,452
875.673401,451
875.790527,437
875.907715,458
876.024841,448
876.141968,467
876.259094,465
876.376282,459
876.493347,429
876.610474,454
876.7276,448
876.844727,457
876.961853,462
877.078918,467
877.195984,454
877.313171,461
877.430237,467
877.547302,444
877.664368,449
877.781433,449
877.898499,466
878.015625,463
878.13269,433
878.249695,450
878.366821,448
878.483887,445
878.600952,460
878.717957,444
878.834961,447
878.952087,460
879.069092,460
879.186157,451
879.303162,438
879.420227,444
879.537231,440
879.654236,448
879.77124,442
879.888306,454
880.005249,452
880.122314,444
880.239319,444
880.356323,440
880.473328,443
880.590271,459
880.707275,439
880.824341,450
880.941284,449
881.058228,448
881.175232,445
881.292236,437
881.40918,432
881.526123,444
881.643066,444
881.760071,455
881.877014,456
881.993958,428
882.11084,437
882.227783,475
882.344727,445
882.46167,447
882.578613,446
882.695618,434
882.812439,447
882.929382,442
883.046326,436
883.163208,459
883.280151,424
883.397034,459
883.513916,439
883.630798,433
883.747742,448
883.864563,442
883.981506,458
884.098389,459
884.21521,448
884.332153,458
884.448975,461
884.565796,467
884.682678,453
884.7995,456
884.916443,464
885.033264,437
885.150085,463
885.266968,480
885.383789,449
885.500671,456
885.617493,457
885.734314,482
885.851196,460
885.967896,445
886.084717,453
886.201599,461
886.318359,458
886.435181,447
886.552002,453
886.668762,465
886.785645,466
886.902344,455
887.019165,442
887.135925,455
887.252747,449
887.369446,454
887.486267,457
887.603027,478
887.719788,462
887.836548,461
887.953247,450
888.070068,467
888.186829,485
888.303528,463
888.420288,456
888.536987,440
888.653687,440
888.770447,477
888.887146,455
889.003967,463
889.120667,460
889.237305,435
889.354065,439
889.470703,444
889.587463,445
889.704163,457
889.820862,443
889.937561,453
890.054199,447
890.170837,464
890.287598,431
890.404236,446
890.520874,451
890.637634,445
890.754211,466
890.87085,473
890.987549,445
891.104187,461
891.220886,424
891.337463,450
891.454102,450
891.57074,464
891.687378,456
891.804077,459
891.920654,462
892.037231,467
892.15387,450
892.270447,443
892.387085,456
892.503723,466
892.6203,448
892.736877,455
892.853516,464
892.970032,453
893.08667,459
893.203186,463
893.319763,458
893.43634,459
893.552917,449
893.669556,472
893.786011,441
893.902588,473
894.019165,446
894.135681,453
894.252197,437
894.368835,458
894.485291,461
894.601868,470
894.718384,461
894.8349,485
894.951355,457
895.067932,470
895.184448,435
895.300964,465
895.417419,454
895.533936,464
895.650452,454
895.766907,467
895.883423,465
895.999878,463
896.116333,454
896.232849,464
896.349304,451
896.465759,475
896.582214,447
896.698669,461
896.815125,475
896.931641,470
897.048035,456
897.164551,444
897.280884,441
897.397339,452
897.513794,466
897.630249,457
897.746582,456
897.863098,456
897.979431,447
898.095886,473
898.212341,447
898.328674,453
898.445129,469
898.561462,476
898.677795,456
898.794312,460
898.910645,449
899.026978,448
899.143433,458
899.259766,463
899.37616,473
899.492493,465
899.608765,468
899.725159,468
899.841553,457
899.957947,471
900.07428,467
900.190552,458
900.306946,456
900.423157,458
900.53949,438
900.655884,458
900.772156,455
900.888489,476
901.004822,476
901.121033,460
901.237366,449
901.353699,457
901.46991,469
901.586304,472
901.702515,452
901.818787,487
901.93512,449
902.051331,482
902.167603,450
902.283875,471
902.400085,480
902.516418,475
902.632629,450
902.74884,457
902.865112,457
902.981384,478
903.097595,475
903.213867,451
903.330017,468
903.446289,466
903.5625,448
903.67865,461
903.794922,464
903.911072,483
904.027344,468
904.143494,484
904.259705,464
904.375916,472
904.492065,477
904.608215,451
904.724426,453
904.840576,474
904.956726,470
905.072876,476
905.189087,458
905.305176,469
905.421387,462
905.537537,465
905.653687,471
905.769775,446
905.885925,449
906.002014,471
906.118164,462
906.234314,454
906.350403,463
906.466492,470
906.582642,448
906.69873,467
906.814758,477
906.930908,476
907.046936,471
907.163086,458
907.279175,468
907.395264,458
907.511353,467
907.62738,451
907.743408,465
907.859497,450
907.975525,459
908.091553,465
908.207703,479
908.32373,465
908.439758,469
908.555786,479
908.671814,474
908.787842,461
908.90387,469
909.019775,470
909.135864,477
909.251892,478
909.367859,446
909.483826,457
909.599854,437
909.715881,477
909.831848,463
909.947815,466
910.063782,478
910.179749,472
910.295776,458
910.411743,449
910.527649,469
910.643616,476
910.759583,466
910.875488,453
910.991455,440
911.107361,477
911.223267,454
911.339294,474
911.4552,466
911.571106,476
911.687073,478
911.802979,453
911.918823,475
912.034729,462
912.150635,457
912.266602,473
912.382446,469
912.498352,480
912.614197,463
912.730103,472
912.846008,480
792.44574,613
792.56488,661
792.68396,715
792.80304,650
792.92218,620
793.041199,614
793.160339,612
793.279419,636
793.398499,625
793.517578,607
793.636658,599
793.755737,633
793.874817,616
793.993896,616
794.112976,624
794.232056,599
794.351074,607
794.470215,577
794.589233,599
794.708313,597
794.827393,592
794.946411,602
795.065552,608
795.18457,571
795.303589,618
795.422668,578
795.541687,597
795.660767,609
795.779846,569
795.898865,563
796.017883,564
796.136963,571
796.255981,591
796.375061,596
796.49408,592
796.613037,582
796.732117,583
796.851135,583
796.970154,600
797.089233,594
797.208191,571
797.327271,579
797.446228,580
797.565186,573
797.684265,589
797.803223,594
797.922241,589
798.04126,607
798.160278,599
798.279297,590
798.398315,586
798.517273,594
798.636292,578
798.75531,601
798.874268,592
798.993286,587
799.112244,586
799.231323,584
799.350281,590
799.469238,593
799.588257,580
799.707153,571
799.826111,586
799.945129,580
800.064087,581
800.183044,570
800.302063,591
800.421021,565
800.539978,606
800.658936,596
800.777893,574
800.896912,574
801.015747,569
801.134705,581
801.253723,600
801.37262,586
801.491638,585
801.610535,594
801.729492,556
801.84845,585
801.967407,591
802.086243,599
802.205261,600
802.324158,610
802.443115,607
802.562073,586
802.680969,594
802.799927,593
802.918762,595
803.037659,580
803.156677,584
803.275574,584
803.39447,619
803.513428,602
803.632263,596
803.751221,595
803.870117,594
803.989014,587
804.107971,574
804.226746,607
804.345642,622
804.4646,592
804.583496,602
804.702393,599
804.821228,614
804.940125,606
805.059021,604
805.177917,611
805.296814,603
805.415649,612
805.534546,621
805.653442,602
805.772278,602
805.891113,590
806.01001,633
806.128906,608
806.247742,612
806.366577,598
806.485413,626
806.604309,608
806.723145,614
806.84198,598
806.960876,601
807.079712,618
807.198486,621
807.317383,595
807.436218,606
807.554993,617
807.673889,620
807.792725,599
807.91156,629
808.030396,606
808.14917,655
808.268005,614
808.386841,618
808.505676,625
808.624451,638
808.743286,623
808.862122,614
808.980896,604
809.099731,640
809.218506,606
809.337341,619
809.456116,630
809.57489,642
809.693726,611
809.8125,664
809.931274,623
810.050049,620
810.168884,632
810.287659,636
810.406372,627
810.525269,649
810.643982,650
810.762756,635
810.881531,617
811.000305,634
811.11908,621
811.237854,627
811.356567,650
811.475403,651
811.594116,604
811.71283,640
811.831604,632
811.950378,609
812.069153,637
812.187927,640
812.30658,617
812.425415,630
812.544128,614
812.662781,627
812.781616,635
812.900269,668
813.019043,621
813.137756,609
813.256531,643
813.375244,620
813.493896,631
813.612671,661
813.731384,640
813.850037,641
813.96875,632
814.087524,642
814.206238,639
814.324951,624
814.443604,620
814.562256,629
814.68103,655
814.799683,624
814.918335,615
815.037109,613
815.155762,604
815.274475,620
815.393188,614
815.511841,610
815.630554,616
815.749146,613
815.867859,618
815.986572,603
816.105164,645
816.223877,616
816.342529,598
816.461182,612
816.579895,601
816.698486,600
816.817139,611
816.935791,603
817.054504,609
817.173096,636
817.291748,605
817.4104,630
817.529053,608
817.647644,606
817.766235,613
817.884949,596
818.00354,595
818.122192,552
818.240845,569
818.359436,566
818.478088,563
818.59668,538
818.715271,524
818.833923,541
818.952515,537
819.071106,547
819.189758,506
819.30835,532
819.426941,503
819.545532,509
819.664124,518
819.782715,504
819.901306,511
820.019897,516
820.138489,490
820.25708,506
820.375671,506
820.494202,496
820.612732,506
820.731384,501
820.849915,493
820.968506,497
821.087097,487
821.205627,488
821.324158,467
821.442749,502
821.561279,501
821.679871,485
821.798401,475
821.916931,488
822.035461,494
822.154053,473
822.272583,492
822.391174,475
822.509583,475
822.628174,485
822.746704,481
822.865234,469
822.983765,483
823.102295,477
823.220825,494
823.339294,498
823.457825,459
823.576355,472
823.694824,492
823.813354,488
823.931885,478
824.050354,482
824.168884,484
824.287354,493
824.405823,491
824.524353,491
824.642822,507
824.761353,488
824.879822,495
824.998291,503
825.116699,459
825.235291,491
825.353699,490
825.472168,507
825.590637,478
825.709106,463
825.827576,469
825.946045,484
826.064453,475
826.182983,514
826.301392,465
826.4198,470
826.53833,462
826.656738,478
826.775208,485
826.893677,471
827.012024,471
827.130493,472
827.248962,475
827.36731,471
827.485779,452
827.604248,486
827.722595,472
827.841064,461
827.959412,458
828.077942,458
828.196289,468
828.314636,473
828.433105,458
828.551514,469
828.669861,454
828.78833,467
828.906677,455
829.025085,476
829.143433,461
829.261841,457
829.38031,477
829.498657,467
829.617004,467
829.735413,463
829.85376,457
829.972107,462
830.090515,461
830.208862,464
830.327209,457
830.445557,483
830.563904,457
830.682312,449
830.800659,464
830.919006,465
831.037354,456
831.155701,466
831.274048,467
831.392395,452
831.51062,453
831.629028,458
831.747314,470
831.865662,465
831.984009,463
832.102356,477
832.220642,461
832.338928,484
832.457275,449
832.575623,476
832.693909,455
832.812134,467
832.930481,466
833.048828,458
833.167114,470
833.2854,454
833.403687,467
833.521973,464
833.640259,453
833.758545,471
833.876831,455
833.995056,460
834.113281,459
834.231628,469
834.349915,451
834.468201,465
834.586426,462
834.704651,458
834.822998,457
834.941162,467
835.059448,454
835.177673,450
835.295959,468
835.414246,478
835.53241,468
835.650635,474
835.768921,447
835.887146,456
836.005371,460
836.123596,464
836.241821,454
836.360046,473
836.478271,466
836.596497,472
836.714722,470
836.832886,478
836.95105,465
837.069336,498
837.1875,463
837.305725,471
837.423889,477
837.542053,484
837.660339,475
837.778503,484
837.896667,456
838.014832,482
838.132996,478
838.25116,498
838.369385,455
838.487488,484
838.605713,468
838.723877,473
838.84198,469
838.960205,493
839.078308,469
839.196472,465
839.314636,501
839.4328,452
839.550964,482
839.669067,482
839.787231,487
839.905396,471
840.023499,465
840.141602,476
840.259766,466
840.377869,476
840.495972,472
840.614136,470
840.732239,435
840.850342,460
840.968445,473
841.086548,464
841.204651,463
841.322754,477
841.440918,475
841.55896,454
841.677002,461
841.795166,450
841.913208,483
842.031311,445
842.149353,475
842.267456,460
842.385498,451
842.503601,450
842.621643,472
842.739746,437
842.857788,439
842.97583,485
843.093933,465
843.211975,455
843.330017,464
843.44812,454
843.566101,440
843.684204,458
843.802246,442
843.920227,452
844.038269,453
844.156311,455
844.274292,449
844.392395,479
844.510376,456
844.628357,450
844.74646,443
844.864441,454
844.982422,459
845.100403,452
845.218384,422
845.336426,445
845.454468,457
845.572449,455
845.69043,448
845.808411,456
845.926453,461
846.044373,467
846.162354,431
846.280396,461
846.398315,441
846.516296,452
846.634216,446
846.752197,432
846.870178,453
846.988098,458
847.106079,452
847.22406,471
847.34198,446
847.4599,438
847.577881,433
847.695801,449
847.813782,457
847.931641,469
848.049561,462
848.167603,455
848.285461,463
848.403381,433
848.521362,451
848.639221,437
848.75708,451
848.875,453
848.99292,465
849.110901,437
849.22876,444
849.34668,456
849.464539,431
849.582458,458
849.700317,452
849.818176,463
849.936096,438
850.053955,453
850.171875,446
850.289673,445
850.407593,445
850.525452,451
850.643311,445
850.761169,446
850.878967,440
850.996887,432
851.114746,456
851.232544,465
851.350403,440
851.468262,453
851.58606,454
851.703979,461
851.821777,443
851.939636,468
852.057434,437
852.175232,450
852.293091,454
852.410889,440
852.528687,428
852.646545,446
852.764343,451
852.88208,450
852.999939,444
853.117676,463
853.235535,442
853.353271,444
853.471069,457
853.588928,455
853.706604,466
853.824402,454
853.9422,454
854.059998,446
854.177734,463
854.295532,469
854.413269,450
854.531006,459
854.648804,453
854.766541,479
854.884277,449
855.002014,468
855.119751,461
855.237549,467
855.355225,455
855.473022,465
855.590698,467
855.708435,474
855.826172,447
855.943848,446
856.061646,476
856.179321,445
856.296997,454
856.414795,471
856.53241,463
856.650085,467
856.767822,474
856.885559,445
857.003174,466
857.120911,472
857.238586,466
857.356201,463
857.473938,468
857.591614,457
857.709351,470
857.826965,448
857.944641,470
858.062317,466
858.179993,472
858.297668,464
858.415283,459
858.532959,465
858.650574,468
858.768188,452
858.885803,450
859.003479,459
859.121094,460
859.23877,462
859.356384,456
859.473999,473
859.591675,450
859.709229,448
859.826843,449
859.944458,454
860.062012,453
860.179626,474
860.297302,450
860.414856,454
860.532471,443
860.650024,456
860.767639,430
860.885193,462
861.002808,446
861.120361,444
861.237976,450
861.35553,440
861.473022,450
861.590698,456
861.708191,446
861.825745,446
861.943298,444
862.060852,432
862.178406,440
862.295959,448
862.413513,456
862.531006,458
862.64856,432
862.766113,452
862.883667,431
863.00116,449
863.118713,461
863.236206,458
863.353699,441
863.471252,460
863.588745,440
863.706177,448
863.82373,450
863.941162,471
864.058716,451
864.176208,443
864.29364,451
864.411194,456
864.528687,445
864.646118,438
864.763611,452
864.881042,463
864.998535,439
865.116028,472
865.233459,441
865.350891,463
865.468384,428
865.585754,452
865.703308,448
865.820679,449
865.938171,457
866.055542,446
866.173035,452
866.290466,442
866.407837,455
866.52533,464
866.6427,443
866.760071,462
866.877563,432
866.994934,464
867.112305,448
867.229736,458
867.347107,441
867.464539,477
867.58197,444
867.699341,448
867.81665,456
867.934082,456
868.051453,459
868.168823,467
868.286194,452
868.403564,438
868.520935,457
868.638306,467
868.755676,458
868.872986,473
868.990295,446
869.107727,464
869.225037,446
869.342346,428
869.459717,450
869.577026,446
869.694336,453
869.811707,456
869.929016,444
870.046326,452
870.163635,435
870.280945,449
870.398254,454
870.515564,441
870.632812,457
870.750183,461
870.867432,444
870.984741,471
871.102051,452
871.219299,446
871.336609,462
871.453918,458
871.571106,449
871.688416,436
871.805664,434
871.922852,450
872.040222,446
872.157471,456
872.274719,460
872.391968,463
872.509155,451
872.626465,461
872.743652,442
872.860962,462
872.978149,465
873.095337,446
873.212646,444
873.329834,450
873.44696,457
873.564209,446
873.681396,446
873.798645,448
873.915894,445
874.03302,448
874.150208,429
874.267456,451
874.384583,459
874.501831,454
874.618958,451
874.736145,488
874.853333,461
874.970459,448
875.087646,443
875.204834,446
875.32196,462
875.439148,451
875.556274,451
875.673401,457
875.790527,439
875.907715,451
876.024841,455
876.141968,457
876.259094,433
876.376282,470
876.493347,441
876.610474,479
876.7276,461
876.844727,452
876.961853,443
877.078918,467
877.195984,453
877.313171,437
877.430237,449
877.547302,466
877.664368,454
877.781433,449
877.898499,423
878.015625,453
878.13269,432
878.249695,449
878.366821,450
878.483887,471
878.600952,472
878.717957,459
878.834961,464
878.952087,461
879.069092,465
879.186157,460
879.303162,461
879.420227,454
879.537231,449
879.654236,463
879.77124,448
879.888306,442
880.005249,467
880.122314,443
880.239319,448
880.356323,455
880.473328,443
880.590271,453
880.707275,450
880.824341,475
880.941284,455
881.058228,462
881.175232,456
881.292236,469
881.40918,459
881.526123,458
881.643066,466
881.760071,467
881.877014,461
881.993958,463
882.11084,444
882.227783,455
882.344727,459
882.46167,466
882.578613,463
882.695618,462
882.812439,454
882.929382,451
883.046326,451
883.163208,462
883.280151,454
883.397034,444
883.513916,450
883.630798,451
883.747742,453
883.864563,455
883.981506,467
884.098389,458
884.21521,443
884.332153,479
884.448975,456
884.565796,448
884.682678,479
884.7995,458
884.916443,452
885.033264,462
885.150085,454
885.266968,467
885.383789,453
885.500671,454
885.617493,449
885.734314,466
885.851196,457
885.967896,477
886.084717,442
886.201599,456
886.318359,453
886.435181,462
886.552002,469
886.668762,469
886.785645,463
886.902344,456
887.019165,456
887.135925,453
887.252747,460
887.369446,471
887.486267,462
887.603027,457
887.719788,439
887.836548,459
887.953247,446
888.070068,448
888.186829,466
888.303528,479
888.420288,470
888.536987,465
888.653687,449
888.770447,474
888.887146,456
889.003967,462
889.120667,434
889.237305,476
889.354065,447
889.470703,451
889.587463,449
889.704163,457
889.820862,435
889.937561,474
890.054199,451
890.170837,465
890.287598,439
890.404236,459
890.520874,456
890.637634,482
890.754211,471
890.87085,457
890.987549,458
891.104187,467
891.220886,451
891.337463,454
891.454102,462
891.57074,476
891.687378,455
891.804077,473
891.920654,450
892.037231,458
892.15387,464
892.270447,467
892.387085,449
892.503723,462
892.6203,451
892.736877,462
892.853516,460
892.970032,479
893.08667,473
893.203186,480
893.319763,461
893.43634,455
893.552917,482
893.669556,457
893.786011,463
893.902588,458
894.019165,445
894.135681,480
894.252197,460
894.368835,471
894.485291,465
894.601868,473
894.718384,465
894.8349,465
894.951355,455
895.067932,461
895.184448,474
895.300964,479
895.417419,458
895.533936,473
895.650452,444
895.766907,457
895.883423,450
895.999878,461
896.116333,462
896.232849,456
896.349304,452
896.465759,464
896.582214,459
896.698669,464
896.815125,461
896.931641,471
897.048035,452
897.164551,452
897.280884,451
897.397339,471
897.513794,472
897.630249,475
897.746582,461
897.863098,465
897.979431,461
898.095886,466
898.212341,464
898.328674,479
898.445129,460
898.561462,460
898.677795,475
898.794312,475
898.910645,457
899.026978,461
899.143433,458
899.259766,470
899.37616,466
899.492493,468
899.608765,456
899.725159,452
899.841553,465
899.957947,449
900.07428,471
900.190552,471
900.306946,461
900.423157,473
900.53949,471
900.655884,470
900.772156,476
900.888489,468
901.004822,474
901.121033,465
901.237366,462
901.353699,459
901.46991,458
901.586304,460
901.702515,462
901.818787,461
901.93512,479
902.051331,450
902.167603,474
902.283875,467
902.400085,466
902.516418,488
902.632629,444
902.74884,492
902.865112,448
902.981384,461
903.097595,458
903.213867,464
903.330017,470
903.446289,473
903.5625,476
903.67865,473
903.794922,459
903.911072,479
904.027344,479
904.143494,477
904.259705,467
904.375916,472
904.492065,453
904.608215,472
904.724426,452
904.840576,469
904.956726,449
905.072876,478
905.189087,456
905.305176,464
905.421387,450
905.537537,484
905.653687,459
905.769775,462
905.885925,458
906.002014,472
906.118164,470
906.234314,484
906.350403,465
906.466492,477
906.582642,469
906.69873,480
906.814758,465
906.930908,482
907.046936,464
907.163086,457
907.279175,460
907.395264,480
907.511353,477
907.62738,463
907.743408,455
907.859497,467
907.975525,474
908.091553,493
908.207703,462
908.32373,465
908.439758,464
908.555786,472
908.671814,479
908.787842,489
908.90387,474
909.019775,467
909.135864,451
909.251892,497
909.367859,455
909.483826,484
909.599854,475
909.715881,494
909.831848,479
909.947815,485
910.063782,474
910.179749,494
910.295776,457
910.411743,472
910.527649,460
910.643616,472
910.759583,479
910.875488,479
910.991455,450
911.107361,474
911.223267,470
911.339294,494
911.4552,487
911.571106,464
911.687073,469
911.802979,451
911.918823,464
912.034729,480
912.150635,473
912.266602,489
912.382446,467
912.498352,481
912.614197,484
912.730103,474
912.846008,444
792.44574,623
792.56488,635
792.68396,683
792.80304,685
792.92218,631
793.041199,591
793.160339,606
793.279419,604
793.398499,625
793.517578,601
793.636658,616
793.755737,609
793.874817,627
793.993896,617
794.112976,618
794.232056,596
794.351074,582
794.470215,604
794.589233,602
794.708313,613
794.827393,573
794.946411,609
795.065552,598
795.18457,593
795.303589,596
795.422668,581
795.541687,608
795.660767,600
795.779846,571
795.898865,596
796.017883,566
796.136963,602
796.255981,579
796.375061,590
796.49408,605
796.613037,578
796.732117,589
796.851135,581
796.970154,559
797.089233,581
797.208191,572
797.327271,598
797.446228,591
797.565186,577
797.684265,562
797.803223,577
797.922241,571
798.04126,584
798.160278,559
798.279297,582
798.398315,570
798.517273,568
798.636292,583
798.75531,571
798.874268,571
798.993286,608
799.112244,598
799.231323,575
799.350281,582
799.469238,581
799.588257,581
799.707153,574
799.826111,588
799.945129,574
800.064087,568
800.183044,577
800.302063,586
800.421021,582
800.539978,594
800.658936,574
800.777893,562
800.896912,593
801.015747,578
801.134705,582
801.253723,597
801.37262,594
801.491638,594
801.610535,597
801.729492,598
801.84845,588
801.967407,621
802.086243,596
802.205261,567
802.324158,573
802.443115,572
802.562073,584
802.680969,583
802.799927,585
802.918762,589
803.037659,585
803.156677,577
803.275574,604
803.39447,568
803.513428,589
803.632263,605
803.751221,599
803.870117,583
803.989014,579
804.107971,593
804.226746,587
804.345642,604
804.4646,589
804.583496,601
804.702393,600
804.821228,625
804.940125,591
805.059021,608
805.177917,601
805.296814,596
805.415649,601
805.534546,590
805.653442,610
805.772278,603
805.891113,595
806.01001,625
806.128906,616
806.247742,613
806.366577,607
806.485413,610
806.604309,621
806.723145,603
806.84198,608
806.960876,619
807.079712,619
807.198486,627
807.317383,620
807.436218,633
807.554993,641
807.673889,621
807.792725,626
807.91156,612
808.030396,603
808.14917,601
808.268005,637
808.386841,619
808.505676,609
808.624451,603
808.743286,626
808.862122,615
808.980896,634
809.099731,639
809.218506,611
809.337341,624
809.456116,639
809.57489,620
809.693726,616
809.8125,639
809.931274,637
810.050049,630
810.168884,622
810.287659,639
810.406372,635
810.525269,636
810.643982,632
810.762756,632
810.881531,613
811.000305,641
811.11908,642
811.237854,631
811.356567,649
811.475403,653
811.594116,645
811.71283,621
811.831604,642
811.950378,595
812.069153,629
812.187927,625
812.30658,607
812.425415,627
812.544128,635
812.662781,647
812.781616,647
812.900269,625
813.019043,632
813.137756,648
813.256531,634
813.375244,629
813.493896,639
813.612671,630
813.731384,629
813.850037,605
813.96875,603
814.087524,613
814.206238,617
814.324951,634
814.443604,623
814.562256,621
814.68103,640
814.799683,639
814.918335,636
815.037109,621
815.155762,579
815.274475,634
815.393188,626
815.511841,612
815.630554,623
815.749146,617
815.867859,605
815.986572,603
816.105164,614
816.223877,607
816.342529,596
816.461182,606
816.579895,607
816.698486,619
816.817139,596
816.935791,637
817.054504,626
817.173096,646
817.291748,603
817.4104,606
817.529053,629
817.647644,589
817.766235,589
817.884949,560
818.00354,578
818.122192,558
818.240845,567
818.359436,581
818.478088,544
818.59668,560
818.715271,545
818.833923,536
818.952515,520
819.071106,539
819.189758,508
819.30835,497
819.426941,505
819.545532,530
819.664124,490
819.782715,492
819.901306,493
820.019897,505
820.138489,502
820.25708,486
820.375671,504
820.494202,517
820.612732,486
820.731384,484
820.849915,495
820.968506,502
821.087097,502
821.205627,494
821.324158,482
821.442749,510
821.561279,479
821.679871,487
821.798401,498
821.916931,483
822.035461,483
822.154053,474
822.272583,503
822.391174,460
822.509583,486
822.628174,490
822.746704,482
822.865234,480
822.983765,473
823.102295,488
823.220825,487
823.339294,490
823.457825,465
823.576355,489
823.694824,473
823.813354,485
823.931885,497
824.050354,503
824.168884,487
824.287354,481
824.405823,505
824.524353,505
824.642822,481
824.761353,480
824.879822,496
824.998291,483
825.116699,485
825.235291,480
825.353699,498
825.472168,465
825.590637,500
825.709106,464
825.827576,480
825.946045,487
826.064453,494
826.182983,462
826.301392,484
826.4198,467
826.53833,475
826.656738,467
826.775208,462
826.893677,461
827.012024,470
827.130493,468
827.248962,462
827.36731,473
827.485779,461
827.604248,469
827.722595,453
827.841064,468
827.959412,475
828.077942,482
828.196289,476
828.314636,461
828.433105,475
828.551514,465
828.669861,455
828.78833,445
828.906677,467
829.025085,450
829.143433,466
829.261841,460
829.38031,465
829.498657,449
829.617004,475
829.735413,453
829.85376,457
829.972107,462
830.090515,467
830.208862,478
830.327209,458
830.445557,451
830.563904,486
830.682312,453
830.800659,469
830.919006,468
831.037354,446
831.155701,453
831.274048,475
831.392395,465
831.51062,465
831.629028,462
831.747314,461
831.865662,478
831.984009,451
832.102356,468
832.220642,450
832.338928,459
832.457275,467
832.575623,448
832.693909,481
832.812134,464
832.930481,469
833.048828,451
833.167114,458
833.2854,468
833.403687,460
833.521973,478
833.640259,443
833.758545,450
833.876831,441
833.995056,468
834.113281,461
834.231628,444
834.349915,457
834.468201,447
834.586426,462
834.704651,459
834.822998,463
834.941162,463
835.059448,464
835.177673,468
835.295959,437
835.414246,468
835.53241,466
835.650635,469
835.768921,482
835.887146,487
836.005371,451
836.123596,467
836.241821,484
836.360046,473
836.478271,460
836.596497,455
836.714722,456
836.832886,481
836.95105,472
837.069336,485
837.1875,497
837.305725,480
837.423889,488
837.542053,476
837.660339,484
837.778503,490
837.896667,481
838.014832,500
838.132996,471
838.25116,488
838.369385,497
838.487488,472
838.605713,475
838.723877,483
838.84198,480
838.960205,466
839.078308,457
839.196472,485
839.314636,454
839.4328,468
839.550964,479
839.669067,467
839.787231,467
839.905396,478
840.023499,465
840.141602,464
840.259766,474
840.377869,466
840.495972,439
840.614136,467
840.732239,472
840.850342,466
840.968445,477
841.086548,462
841.204651,468
841.322754,469
841.440918,486
841.55896,477
841.677002,455
841.795166,461
841.913208,478
842.031311,461
842.149353,444
842.267456,471
842.385498,472
842.503601,454
842.621643,464
842.739746,437
842.857788,430
842.97583,456
843.093933,434
843.211975,439
843.330017,456
843.44812,455
843.566101,461
843.684204,448
843.802246,454
843.920227,438
844.038269,444
844.156311,470
844.274292,459
844.392395,455
844.510376,469
844.628357,450
844.74646,437
844.864441,456
844.982422,466
845.100403,460
845.218384,453
845.336426,449
845.454468,433
845.572449,455
845.69043,445
845.808411,448
845.926453,441
846.044373,455
846.162354,468
846.280396,454
846.398315,464
846.516296,450
846.634216,452
846.752197,448
846.870178,446
846.988098,430
847.106079,443
847.22406,443
847.34198,471
847.4599,453
847.577881,434
847.695801,459
847.813782,452
847.931641,439
848.049561,472
848.167603,440
848.285461,460
848.403381,443
848.521362,438
848.639221,440
848.75708,440
848.875,444
848.99292,450
849.110901,464
849.22876,459
849.34668,448
849.464539,463
849.582458,438
849.700317,470
849.818176,434
849.936096,454
850.053955,473
850.171875,453
850.289673,450
850.407593,445
850.525452,456
850.643311,441
850.761169,445
850.878967,459
850.996887,453
851.114746,439
851.232544,444
851.350403,429
851.468262,457
851.58606,441
851.703979,446
851.821777,457
851.939636,444
852.057434,442
852.175232,449
852.293091,461
852.410889,451
852.528687,435
852.646545,442
852.764343,457
852.88208,466
852.999939,453
853.117676,457
853.235535,463
853.353271,439
853.471069,459
853.588928,443
853.706604,459
853.824402,455
853.9422,461
854.059998,460
854.177734,440
854.295532,449
854.413269,467
854.531006,463
854.648804,448
854.766541,462
854.884277,441
855.002014,458
855.119751,448
855.237549,443
855.355225,467
855.473022,465
855.590698,459
855.708435,474
855.826172,468
855.943848,449
856.061646,472
856.179321,458
856.296997,449
856.414795,452
856.53241,483
856.650085,458
856.767822,457
856.885559,440
857.003174,461
857.120911,469
857.238586,466
857.356201,471
857.473938,447
857.591614,469
857.709351,450
857.826965,484
857.944641,462
858.062317,454
858.179993,451
858.297668,451
858.415283,459
858.532959,476
858.650574,465
858.768188,452
858.885803,452
859.003479,446
859.121094,461
859.23877,448
859.356384,468
859.473999,451
859.591675,455
859.709229,460
859.826843,445
859.944458,446
860.062012,461
860.179626,450
860.297302,461
860.414856,445
860.532471,448
860.650024,450
860.767639,462
860.885193,461
861.002808,462
861.120361,443
861.237976,440
861.35553,451
861.473022,439
861.590698,457
861.708191,449
861.825745,451
861.943298,465
862.060852,463
862.178406,456
862.295959,457
862.413513,448
862.531006,444
862.64856,438
862.766113,449
862.883667,437
863.00116,438
863.118713,459
863.236206,452
863.353699,455
863.471252,442
863.588745,460
863.706177,469
863.82373,460
863.941162,441
864.058716,444
864.176208,465
864.29364,453
864.411194,481
864.528687,452
864.646118,459
864.763611,480
864.881042,461
864.998535,456
865.116028,446
865.233459,458
865.350891,455
865.468384,455
865.585754,452
865.703308,446
865.820679,457
865.938171,473
866.055542,469
866.173035,434
866.290466,458
866.407837,449
866.52533,438
866.6427,447
866.760071,475
866.877563,446
866.994934,453
867.112305,460
867.229736,455
867.347107,469
867.464539,445
867.58197,446
867.699341,447
867.81665,474
867.934082,445
868.051453,461
868.168823,466
868.286194,460
868.403564,463
868.520935,456
868.638306,471
868.755676,444
868.872986,445
868.990295,441
869.107727,463
869.225037,451
869.342346,446
869.459717,456
869.577026,442
869.694336,477
869.811707,455
869.929016,455
870.046326,455
870.163635,446
870.280945,468
870.398254,462
870.515564,442
870.632812,459
870.750183,450
870.867432,456
870.984741,441
871.102051,470
871.219299,467
871.336609,470
871.453918,464
871.571106,444
871.688416,458
871.805664,432
871.922852,452
872.040222,462
872.157471,449
872.274719,455
872.391968,444
872.509155,456
872.626465,457
872.743652,456
872.860962,441
872.978149,447
873.095337,435
873.212646,450
873.329834,443
873.44696,466
873.564209,445
873.681396,456
873.798645,468
873.915894,449
874.03302,442
874.150208,452
874.267456,438
874.384583,449
874.501831,474
874.618958,446
874.736145,443
874.853333,454
874.970459,455
875.087646,438
875.204834,438
875.32196,472
875.439148,464
875.556274,455
875.673401,460
875.790527,448
875.907715,464
876.024841,436
876.141968,467
876.259094,452
876.376282,452
876.493347,430
876.610474,440
876.7276,473
876.844727,457
876.961853,472
877.078918,478
877.195984,457
877.313171,471
877.430237,460
877.547302,446
877.664368,453
877.781433,444
877.898499,449
878.015625,456
878.13269,471
878.249695,457
878.366821,454
878.483887,459
878.600952,474
878.717957,457
878.834961,441
878.952087,460
879.069092,465
879.186157,470
879.303162,448
879.420227,457
879.537231,450
879.654236,451
879.77124,469
879.888306,452
880.005249,444
880.122314,464
880.239319,442
880.356323,457
880.473328,457
880.590271,442
880.707275,457
880.824341,472
880.941284,458
881.058228,449
881.175232,447
881.292236,441
881.40918,454
881.526123,460
881.643066,439
881.760071,453
881.877014,476
881.993958,447
882.11084,445
882.227783,452
882.344727,460
882.46167,453
882.578613,473
882.695618,467
882.812439,457
882.929382,444
883.046326,482
883.163208,457
883.280151,447
883.397034,453
883.513916,440
883.630798,461
883.747742,459
883.864563,447
883.981506,448
884.098389,457
884.21521,449
884.332153,468
884.448975,445
884.565796,453
884.682678,461
884.7995,462
884.916443,451
885.033264,450
885.150085,468
885.266968,459
885.383789,448
885.500671,441
885.617493,473
885.734314,466
885.851196,474
885.967896,460
886.084717,459
886.201599,464
886.318359,461
886.435181,468
886.552002,443
886.668762,451
886.785645,470
886.902344,468
887.019165,475
887.135925,475
887.252747,463
887.369446,453
887.486267,469
887.603027,466
887.719788,466
887.836548,463
887.953247,465
888.070068,454
888.186829,474
888.303528,465
888.420288,456
888.536987,463
888.653687,475
888.770447,482
888.887146,482
889.003967,458
889.120667,483
889.237305,434
889.354065,462
889.470703,477
889.587463,473
889.704163,451
889.820862,461
889.937561,460
890.054199,478
890.170837,433
890.287598,452
890.404236,467
890.520874,470
890.637634,458
890.754211,469
890.87085,483
890.987549,447
891.104187,455
891.220886,468
891.337463,463
891.454102,467
891.57074,462
891.687378,459
891.804077,452
891.920654,479
892.037231,472
892.15387,449
892.270447,482
892.387085,450
892.503723,471
892.6203,464
892.736877,465
892.853516,466
892.970032,450
893.08667,461
893.203186,456
893.319763,459
893.43634,449
893.552917,469
893.669556,467
893.786011,445
893.902588,462
894.019165,464
894.135681,452
894.252197,470
894.368835,460
894.485291,473
894.601868,479
894.718384,461
894.8349,464
894.951355,468
895.067932,466
895.184448,470
895.300964,459
895.417419,479
895.533936,459
895.650452,464
895.766907,465
895.883423,463
895.999878,464
896.116333,453
896.232849,450
896.349304,462
896.465759,464
896.582214,470
896.698669,450
896.815125,458
896.931641,452
897.048035,463
897.164551,462
897.280884,458
897.397339,464
897.513794,465
897.630249,466
897.746582,472
897.863098,459
897.979431,447
898.095886,458
898.212341,470
898.328674,472
898.445129,454
898.561462,455
898.677795,456
898.794312,466
898.910645,452
899.026978,463
899.143433,457
899.259766,457
899.37616,465
899.492493,455
899.608765,464
899.725159,481
899.841553,464
899.957947,448
900.07428,472
900.190552,456
900.306946,458
900.423157,480
900.53949,461
900.655884,469
900.772156,456
900.888489,490
901.004822,467
901.121033,473
901.237366,472
901.353699,463
901.46991,471
901.586304,464
901.702515,463
901.818787,478
901.93512,470
902.051331,467
902.167603,487
902.283875,464
902.400085,486
902.516418,467
902.632629,475
902.74884,457
902.865112,485
902.981384,458
903.097595,466
903.213867,468
903.330017,487
903.446289,451
903.5625,493
903.67865,489
903.794922,476
903.911072,462
904.027344,470
904.143494,462
904.259705,486
904.375916,471
904.492065,460
904.608215,454
904.724426,487
904.840576,482
904.956726,454
905.072876,468
905.189087,477
905.305176,469
905.421387,491
905.537537,468
905.653687,482
905.769775,479
905.885925,468
906.002014,479
906.118164,480
906.234314,453
906.350403,469
906.466492,463
906.582642,472
906.69873,466
906.814758,461
906.930908,458
907.046936,468
907.163086,472
907.279175,466
907.395264,468
907.511353,475
907.62738,477
907.743408,466
907.859497,475
907.975525,451
908.091553,471
908.207703,467
908.32373,474
908.439758,480
908.555786,451
908.671814,470
908.787842,441
908.90387,468
909.019775,456
909.135864,470
909.251892,468
909.367859,474
909.483826,471
909.599854,489
909.715881,457
909.831848,464
909.947815,480
910.063782,472
910.179749,463
910.295776,467
910.411743,462
910.527649,486
910.643616,492
910.759583,460
910.875488,465
910.991455,471
911.107361,478
911.223267,490
911.339294,465
911.4552,488
911.571106,483
911.687073,468
911.802979,471
911.918823,462
912.034729,476
912.150635,480
912.266602,470
912.382446,473
912.498352,473
912.614197,473
912.730103,466
912.846008,482
