792.44574,623
792.56488,654
792.68396,670
792.80304,670
792.92218,622
793.041199,610
793.160339,611
793.279419,632
793.398499,606
793.517578,607
793.636658,588
793.755737,611
793.874817,611
793.993896,603
794.112976,632
794.232056,585
794.351074,608
794.470215,611
794.589233,616
794.708313,581
794.827393,577
794.946411,574
795.065552,600
795.18457,606
795.303589,558
795.422668,599
795.541687,604
795.660767,593
795.779846,575
795.898865,593
796.017883,567
796.136963,577
796.255981,594
796.375061,608
796.49408,593
796.613037,560
796.732117,582
796.851135,589
796.970154,592
797.089233,562
797.208191,574
797.327271,577
797.446228,571
797.565186,595
797.684265,592
797.803223,583
797.922241,574
798.04126,586
798.160278,573
798.279297,573
798.398315,584
798.517273,594
798.636292,583
798.75531,562
798.874268,576
798.993286,566
799.112244,558
799.231323,576
799.350281,587
799.469238,574
799.588257,568
799.707153,586
799.826111,569
799.945129,587
800.064087,561
800.183044,585
800.302063,566
800.421021,581
800.539978,569
800.658936,583
800.777893,562
800.896912,571
801.015747,564
801.134705,584
801.253723,569
801.37262,560
801.491638,567
801.610535,572
801.729492,576
801.84845,590
801.967407,556
802.086243,598
802.205261,570
802.324158,595
802.443115,571
802.562073,580
802.680969,578
802.799927,598
802.918762,577
803.037659,600
803.156677,602
803.275574,590
803.39447,582
803.513428,594
803.632263,579
803.751221,601
803.870117,594
803.989014,586
804.107971,595
804.226746,591
804.345642,591
804.4646,600
804.583496,597
804.702393,618
804.821228,581
804.940125,591
805.059021,610
805.177917,595
805.296814,592
805.415649,603
805.534546,585
805.653442,606
805.772278,595
805.891113,587
806.01001,582
806.128906,587
806.247742,612
806.366577,608
806.485413,616
806.604309,621
806.723145,615
806.84198,610
806.960876,595
807.079712,613
807.198486,624
807.317383,610
807.436218,608
807.554993,610
807.673889,617
807.792725,599
807.91156,609
808.030396,616
808.14917,600
808.268005,604
808.386841,607
808.505676,601
808.624451,647
808.743286,620
808.862122,618
808.980896,639
809.099731,619
809.218506,610
809.337341,636
809.456116,627
809.57489,606
809.693726,612
809.8125,628
809.931274,623
810.050049,622
810.168884,623
810.287659,605
810.406372,617
810.525269,603
810.643982,642
810.762756,625
810.881531,626
811.000305,605
811.11908,592
811.237854,635
811.356567,633
811.475403,603
811.594116,629
811.71283,653
811.831604,618
811.950378,631
812.069153,641
812.187927,637
812.30658,625
812.425415,620
812.544128,653
812.662781,617
812.781616,623
812.900269,604
813.019043,617
813.137756,624
813.256531,646
813.375244,632
813.493896,622
813.612671,609
813.731384,604
813.850037,598
813.96875,642
814.087524,632
814.206238,628
814.324951,625
814.443604,617
814.562256,585
814.68103,613
814.799683,605
814.918335,601
815.037109,617
815.155762,625
815.274475,595
815.393188,622
815.511841,613
815.630554,585
815.749146,614
815.867859,620
815.986572,615
816.105164,594
816.223877,598
816.342529,597
816.461182,593
816.579895,615
816.698486,610
816.817139,603
816.935791,622
817.054504,603
817.173096,593
817.291748,618
817.4104,625
817.529053,609
817.647644,588
817.766235,586
817.884949,558
818.00354,576
818.122192,561
818.240845,562
818.359436,549
818.478088,548
818.59668,568
818.715271,554
818.833923,529
818.952515,534
819.071106,509
819.189758,524
819.30835,508
819.426941,499
819.545532,516
819.664124,494
819.782715,485
819.901306,503
820.019897,478
820.138489,500
820.25708,502
820.375671,509
820.494202,503
820.612732,498
820.731384,503
820.849915,488
820.968506,477
821.087097,480
821.205627,483
821.324158,499
821.442749,483
821.561279,492
821.679871,459
821.798401,508
821.916931,485
822.035461,474
822.154053,468
822.272583,469
822.391174,499
822.509583,482
822.628174,477
822.746704,470
822.865234,489
822.983765,480
823.102295,466
823.220825,467
823.339294,494
823.457825,470
823.576355,477
823.694824,490
823.813354,479
823.931885,476
824.050354,508
824.168884,484
824.287354,463
824.405823,472
824.524353,471
824.642822,484
824.761353,458
824.879822,490
824.998291,482
825.116699,481
825.235291,476
825.353699,498
825.472168,478
825.590637,469
825.709106,475
825.827576,472
825.946045,492
826.064453,482
826.182983,479
826.301392,479
826.4198,454
826.53833,476
826.656738,474
826.775208,465
826.893677,476
827.012024,465
827.130493,459
827.248962,442
827.36731,470
827.485779,452
827.604248,466
827.722595,470
827.841064,468
827.959412,467
828.077942,455
828.196289,456
828.314636,451
828.433105,457
828.551514,441
828.669861,471
828.78833,470
828.906677,458
829.025085,451
829.143433,471
829.261841,443
829.38031,458
829.498657,448
829.617004,468
829.735413,463
829.85376,451
829.972107,468
830.090515,469
830.208862,461
830.327209,447
830.445557,463
830.563904,458
830.682312,455
830.800659,463
830.919006,473
831.037354,463
831.155701,459
831.274048,457
831.392395,444
831.51062,459
831.629028,455
831.747314,463
831.865662,455
831.984009,446
832.102356,446
832.220642,452
832.338928,439
832.457275,442
832.575623,460
832.693909,486
832.812134,462
832.930481,467
833.048828,470
833.167114,434
833.2854,440
833.403687,449
833.521973,454
833.640259,452
833.758545,460
833.876831,438
833.995056,465
834.113281,459
834.231628,455
834.349915,482
834.468201,457
834.586426,454
834.704651,436
834.822998,461
834.941162,456
835.059448,453
835.177673,449
835.295959,463
835.414246,434
835.53241,448
835.650635,455
835.768921,453
835.887146,451
836.005371,461
836.123596,467
836.241821,459
836.360046,456
836.478271,460
836.596497,469
836.714722,474
836.832886,452
836.95105,476
837.069336,460
837.1875,476
837.305725,475
837.423889,485
837.542053,480
837.660339,461
837.778503,476
837.896667,467
838.014832,477
838.132996,476
838.25116,482
838.369385,461
838.487488,473
838.605713,464
838.723877,454
838.84198,471
838.960205,454
839.078308,476
839.196472,452
839.314636,488
839.4328,480
839.550964,474
839.669067,455
839.787231,469
839.905396,468
840.023499,463
840.141602,451
840.259766,474
840.377869,468
840.495972,463
840.614136,470
840.732239,442
840.850342,458
840.968445,459
841.086548,450
841.204651,450
841.322754,469
841.440918,468
841.55896,463
841.677002,477
841.795166,466
841.913208,457
842.031311,451
842.149353,443
842.267456,455
842.385498,458
842.503601,450
842.621643,468
842.739746,458
842.857788,436
842.97583,441
843.093933,458
843.211975,457
843.330017,443
843.44812,467
843.566101,440
843.684204,451
843.802246,432
843.920227,449
844.038269,456
844.156311,426
844.274292,460
844.392395,449
844.510376,462
844.628357,435
844.74646,446
844.864441,449
844.982422,450
845.100403,439
845.218384,444
845.336426,429
845.454468,465
845.572449,453
845.69043,455
845.808411,447
845.926453,440
846.044373,445
846.162354,463
846.280396,443
846.398315,467
846.516296,455
846.634216,460
846.752197,448
846.870178,447
846.988098,436
847.106079,454
847.22406,437
847.34198,452
847.4599,445
847.577881,439
847.695801,426
847.813782,448
847.931641,454
848.049561,444
848.167603,459
848.285461,446
848.403381,430
848.521362,455
848.639221,433
848.75708,459
848.875,424
848.99292,442
849.110901,441
849.22876,445
849.34668,459
849.464539,445
849.582458,435
849.700317,429
849.818176,454
849.936096,452
850.053955,452
850.171875,438
850.289673,460
850.407593,436
850.525452,431
850.643311,446
850.761169,432
850.878967,444
850.996887,449
851.114746,440
851.232544,452
851.350403,429
851.468262,458
851.58606,456
851.703979,444
851.821777,456
851.939636,434
852.057434,439
852.175232,464
852.293091,439
852.410889,450
852.528687,467
852.646545,446
852.764343,446
852.88208,465
852.999939,461
853.117676,444
853.235535,472
853.353271,445
853.471069,454
853.588928,456
853.706604,458
853.824402,433
853.9422,453
854.059998,441
854.177734,451
854.295532,451
854.413269,453
854.531006,455
854.648804,460
854.766541,439
854.884277,443
855.002014,455
855.119751,456
855.237549,457
855.355225,440
855.473022,448
855.590698,442
855.708435,445
855.826172,442
855.943848,479
856.061646,453
856.179321,447
856.296997,458
856.414795,453
856.53241,459
856.650085,465
856.767822,449
856.885559,457
857.003174,467
857.120911,456
857.238586,448
857.356201,464
857.473938,458
857.591614,435
857.709351,463
857.826965,462
857.944641,439
858.062317,467
858.179993,430
858.297668,438
858.415283,462
858.532959,425
858.650574,442
858.768188,446
858.885803,474
859.003479,444
859.121094,467
859.23877,441
859.356384,420
859.473999,453
859.591675,452
859.709229,440
859.826843,452
859.944458,427
860.062012,452
860.179626,450
860.297302,443
860.414856,445
860.532471,450
860.650024,452
860.767639,427
860.885193,444
861.002808,458
861.120361,438
861.237976,432
861.35553,440
861.473022,446
861.590698,450
861.708191,447
861.825745,433
861.943298,460
862.060852,448
862.178406,465
862.295959,444
862.413513,446
862.531006,446
862.64856,440
862.766113,439
862.883667,451
863.00116,460
863.118713,441
863.236206,453
863.353699,452
863.471252,450
863.588745,446
863.706177,440
863.82373,447
863.941162,448
864.058716,438
864.176208,437
864.29364,460
864.411194,460
864.528687,455
864.646118,461
864.763611,442
864.881042,445
864.998535,452
865.116028,459
865.233459,456
865.350891,449
865.468384,473
865.585754,443
865.703308,441
865.820679,433
865.938171,449
866.055542,434
866.173035,450
866.290466,451
866.407837,436
866.52533,451
866.6427,466
866.760071,437
866.877563,440
866.994934,459
867.112305,443
867.229736,434
867.347107,453
867.464539,448
867.58197,454
867.699341,455
867.81665,461
867.934082,445
868.051453,439
868.168823,452
868.286194,458
868.403564,450
868.520935,434
868.638306,447
868.755676,484
868.872986,437
868.990295,451
869.107727,433
869.225037,447
869.342346,443
869.459717,459
869.577026,456
869.694336,455
869.811707,433
869.929016,455
870.046326,447
870.163635,430
870.280945,452
870.398254,450
870.515564,461
870.632812,446
870.750183,461
870.867432,445
870.984741,438
871.102051,442
871.219299,450
871.336609,454
871.453918,460
871.571106,439
871.688416,441
871.805664,434
871.922852,454
872.040222,435
872.157471,428
872.274719,460
872.391968,450
872.509155,450
872.626465,457
872.743652,437
872.860962,462
872.978149,431
873.095337,435
873.212646,444
873.329834,439
873.44696,448
873.564209,448
873.681396,431
873.798645,463
873.915894,447
874.03302,446
874.150208,450
874.267456,443
874.384583,455
874.501831,449
874.618958,455
874.736145,440
874.853333,441
874.970459,446
875.087646,455
875.204834,431
875.32196,448
875.439148,448
875.556274,462
875.673401,441
875.790527,430
875.907715,445
876.024841,454
876.141968,444
876.259094,443
876.376282,449
876.493347,470
876.610474,446
876.7276,452
876.844727,444
876.961853,443
877.078918,448
877.195984,459
877.313171,454
877.430237,436
877.547302,442
877.664368,433
877.781433,432
877.898499,437
878.015625,452
878.13269,461
878.249695,457
878.366821,443
878.483887,439
878.600952,454
878.717957,454
878.834961,453
878.952087,446
879.069092,458
879.186157,441
879.303162,457
879.420227,455
879.537231,466
879.654236,438
879.77124,454
879.888306,447
880.005249,437
880.122314,430
880.239319,459
880.356323,438
880.473328,443
880.590271,449
880.707275,441
880.824341,433
880.941284,456
881.058228,455
881.175232,447
881.292236,451
881.40918,454
881.526123,456
881.643066,483
881.760071,450
881.877014,448
881.993958,471
882.11084,430
882.227783,438
882.344727,463
882.46167,464
882.578613,440
882.695618,449
882.812439,464
882.929382,439
883.046326,444
883.163208,448
883.280151,451
883.397034,449
883.513916,468
883.630798,436
883.747742,451
883.864563,441
883.981506,451
884.098389,450
884.21521,445
884.332153,446
884.448975,448
884.565796,461
884.682678,440
884.7995,454
884.916443,463
885.033264,432
885.150085,461
885.266968,474
885.383789,459
885.500671,462
885.617493,451
885.734314,460
885.851196,440
885.967896,452
886.084717,450
886.201599,466
886.318359,446
886.435181,452
886.552002,442
886.668762,430
886.785645,440
886.902344,445
887.019165,463
887.135925,444
887.252747,453
887.369446,466
887.486267,462
887.603027,454
887.719788,467
887.836548,464
887.953247,454
888.070068,451
888.186829,465
888.303528,456
888.420288,460
888.536987,443
888.653687,448
888.770447,447
888.887146,438
889.003967,460
889.120667,455
889.237305,445
889.354065,461
889.470703,458
889.587463,468
889.704163,458
889.820862,467
889.937561,441
890.054199,455
890.170837,452
890.287598,448
890.404236,464
890.520874,446
890.637634,457
890.754211,481
890.87085,441
890.987549,463
891.104187,457
891.220886,473
891.337463,462
891.454102,447
891.57074,463
891.687378,470
891.804077,455
891.920654,456
892.037231,450
892.15387,457
892.270447,446
892.387085,456
892.503723,465
892.6203,430
892.736877,453
892.853516,462
892.970032,465
893.08667,450
893.203186,451
893.319763,462
893.43634,463
893.552917,450
893.669556,461
893.786011,446
893.902588,433
894.019165,469
894.135681,443
894.252197,462
894.368835,447
894.485291,466
894.601868,463
894.718384,453
894.8349,454
894.951355,450
895.067932,465
895.184448,464
895.300964,460
895.417419,445
895.533936,469
895.650452,456
895.766907,444
895.883423,448
895.999878,456
896.116333,480
896.232849,446
896.349304,454
896.465759,441
896.582214,457
896.698669,462
896.815125,446
896.931641,452
897.048035,455
897.164551,440
897.280884,472
897.397339,460
897.513794,471
897.630249,457
897.746582,451
897.863098,438
897.979431,465
898.095886,469
898.212341,447
898.328674,449
898.445129,475
898.561462,465
898.677795,476
898.794312,447
898.910645,452
899.026978,446
899.143433,465
899.259766,456
899.37616,468
899.492493,452
899.608765,461
899.725159,458
899.841553,458
899.957947,467
900.07428,469
900.190552,455
900.306946,461
900.423157,459
900.53949,472
900.655884,452
900.772156,479
900.888489,460
901.004822,483
901.121033,460
901.237366,437
901.353699,464
901.46991,454
901.586304,452
901.702515,466
901.818787,449
901.93512,466
902.051331,465
902.167603,462
902.283875,471
902.400085,480
902.516418,456
902.632629,483
902.74884,462
902.865112,459
902.981384,470
903.097595,468
903.213867,464
903.330017,460
903.446289,461
903.5625,454
903.67865,458
903.794922,484
903.911072,451
904.027344,465
904.143494,462
904.259705,468
904.375916,481
904.492065,467
904.608215,481
904.724426,468
904.840576,448
904.956726,459
905.072876,455
905.189087,469
905.305176,479
905.421387,470
905.537537,474
905.653687,476
905.769775,474
905.885925,466
906.002014,470
906.118164,482
906.234314,446
906.350403,461
906.466492,464
906.582642,464
906.69873,482
906.814758,466
906.930908,445
907.046936,460
907.163086,463
907.279175,468
907.395264,464
907.511353,479
907.62738,473
907.743408,464
907.859497,466
907.975525,474
908.091553,456
908.207703,483
908.32373,480
908.439758,465
908.555786,467
908.671814,445
908.787842,455
908.90387,465
909.019775,464
909.135864,469
909.251892,464
909.367859,455
909.483826,467
909.599854,470
909.715881,454
909.831848,465
909.947815,475
910.063782,458
910.179749,449
910.295776,454
910.411743,456
910.527649,472
910.643616,468
910.759583,481
910.875488,464
910.991455,452
911.107361,470
911.223267,461
911.339294,480
911.4552,479
911.571106,443
911.687073,472
911.802979,484
911.918823,449
912.034729,472
912.150635,459
912.266602,453
912.382446,455
912.498352,452
912.614197,455
912.730103,484
912.846008,454
792.44574,609
792.56488,670
792.68396,692
792.80304,663
792.92218,620
793.041199,601
793.160339,596
793.279419,629
793.398499,657
793.517578,586
793.636658,613
793.755737,620
793.874817,639
793.993896,624
794.112976,615
794.232056,592
794.351074,579
794.470215,614
794.589233,618
794.708313,583
794.827393,598
794.946411,609
795.065552,592
795.18457,587
795.303589,605
795.422668,586
795.541687,609
795.660767,580
795.779846,601
795.898865,605
796.017883,563
796.136963,577
796.255981,600
796.375061,587
796.49408,599
796.613037,563
796.732117,584
796.851135,599
796.970154,575
797.089233,584
797.208191,562
797.327271,579
797.446228,572
797.565186,588
797.684265,590
797.803223,578
797.922241,564
798.04126,575
798.160278,573
798.279297,571
798.398315,570
798.517273,549
798.636292,558
798.75531,571
798.874268,581
798.993286,587
799.112244,595
799.231323,575
799.350281,583
799.469238,570
799.588257,560
799.707153,595
799.826111,588
799.945129,570
800.064087,593
800.183044,591
800.302063,578
800.421021,571
800.539978,571
800.658936,591
800.777893,599
800.896912,574
801.015747,579
801.134705,596
801.253723,576
801.37262,564
801.491638,603
801.610535,560
801.729492,596
801.84845,562
801.967407,586
802.086243,588
802.205261,579
802.324158,587
802.443115,577
802.562073,594
802.680969,589
802.799927,559
802.918762,605
803.037659,598
803.156677,584
803.275574,581
803.39447,602
803.513428,596
803.632263,602
803.751221,584
803.870117,607
803.989014,610
804.107971,605
804.226746,590
804.345642,592
804.4646,620
804.583496,604
804.702393,584
804.821228,590
804.940125,596
805.059021,589
805.177917,587
805.296814,587
805.415649,590
805.534546,644
805.653442,587
805.772278,606
805.891113,607
806.01001,627
806.128906,587
806.247742,594
806.366577,600
806.485413,627
806.604309,605
806.723145,615
806.84198,593
806.960876,638
807.079712,600
807.198486,611
807.317383,613
807.436218,622
807.554993,608
807.673889,628
807.792725,612
807.91156,602
808.030396,629
808.14917,604
808.268005,603
808.386841,622
808.505676,634
808.624451,615
808.743286,601
808.862122,590
808.980896,623
809.099731,648
809.218506,589
809.337341,613
809.456116,591
809.57489,621
809.693726,621
809.8125,621
809.931274,620
810.050049,639
810.168884,606
810.287659,626
810.406372,600
810.525269,618
810.643982,610
810.762756,615
810.881531,594
811.000305,621
811.11908,635
811.237854,600
811.356567,623
811.475403,619
811.594116,612
811.71283,627
811.831604,634
811.950378,618
812.069153,633
812.187927,653
812.30658,651
812.425415,644
812.544128,647
812.662781,619
812.781616,629
812.900269,627
813.019043,620
813.137756,651
813.256531,618
813.375244,631
813.493896,613
813.612671,631
813.731384,630
813.850037,618
813.96875,606
814.087524,645
814.206238,642
814.324951,628
814.443604,590
814.562256,621
814.68103,631
814.799683,633
814.918335,610
815.037109,625
815.155762,596
815.274475,614
815.393188,607
815.511841,618
815.630554,599
815.749146,611
815.867859,603
815.986572,591
816.105164,592
816.223877,617
816.342529,608
816.461182,610
816.579895,602
816.698486,611
816.817139,645
816.935791,638
817.054504,592
817.173096,633
817.291748,587
817.4104,596
817.529053,619
817.647644,589
817.766235,581
817.884949,578
818.00354,555
818.122192,589
818.240845,550
818.359436,559
818.478088,562
818.59668,562
818.715271,553
818.833923,530
818.952515,519
819.071106,529
819.189758,504
819.30835,515
819.426941,504
819.545532,508
819.664124,525
819.782715,530
819.901306,504
820.019897,496
820.138489,509
820.25708,501
820.375671,502
820.494202,508
820.612732,485
820.731384,504
820.849915,486
820.968506,506
821.087097,492
821.205627,480
821.324158,482
821.442749,472
821.561279,484
821.679871,471
821.798401,498
821.916931,481
822.035461,502
822.154053,502
822.272583,484
822.391174,491
822.509583,464
822.628174,486
822.746704,486
822.865234,478
822.983765,458
823.102295,489
823.220825,470
823.339294,481
823.457825,503
823.576355,484
823.694824,488
823.813354,489
823.931885,506
824.050354,497
824.168884,471
824.287354,511
824.405823,482
824.524353,476
824.642822,463
824.761353,486
824.879822,479
824.998291,497
825.116699,476
825.235291,498
825.353699,466
825.472168,472
825.590637,460
825.709106,471
825.827576,468
825.946045,480
826.064453,482
826.182983,464
826.301392,480
826.4198,501
826.53833,464
826.656738,475
826.775208,460
826.893677,480
827.012024,484
827.130493,480
827.248962,459
827.36731,467
827.485779,446
827.604248,457
827.722595,480
827.841064,468
827.959412,450
828.077942,465
828.196289,468
828.314636,456
828.433105,482
828.551514,443
828.669861,442
828.78833,474
828.906677,461
829.025085,449
829.143433,480
829.261841,471
829.38031,472
829.498657,470
829.617004,458
829.735413,471
829.85376,456
829.972107,442
830.090515,452
830.208862,461
830.327209,437
830.445557,476
830.563904,467
830.682312,466
830.800659,465
830.919006,458
831.037354,463
831.155701,458
831.274048,462
831.392395,446
831.51062,463
831.629028,459
831.747314,457
831.865662,473
831.984009,455
832.102356,441
832.220642,447
832.338928,466
832.457275,484
832.575623,454
832.693909,458
832.812134,469
832.930481,446
833.048828,434
833.167114,460
833.2854,461
833.403687,468
833.521973,463
833.640259,436
833.758545,459
833.876831,457
833.995056,455
834.113281,466
834.231628,450
834.349915,447
834.468201,463
834.586426,444
834.704651,473
834.822998,461
834.941162,459
835.059448,464
835.177673,474
835.295959,444
835.414246,452
835.53241,449
835.650635,453
835.768921,455
835.887146,469
836.005371,439
836.123596,442
836.241821,457
836.360046,464
836.478271,469
836.596497,450
836.714722,476
836.832886,471
836.95105,458
837.069336,469
837.1875,459
837.305725,464
837.423889,465
837.542053,473
837.660339,469
837.778503,471
837.896667,490
838.014832,489
838.132996,453
838.25116,479
838.369385,471
838.487488,490
838.605713,467
838.723877,471
838.84198,475
838.960205,464
839.078308,487
839.196472,471
839.314636,472
839.4328,487
839.550964,462
839.669067,466
839.787231,470
839.905396,498
840.023499,473
840.141602,465
840.259766,477
840.377869,454
840.495972,460
840.614136,468
840.732239,466
840.850342,463
840.968445,434
841.086548,470
841.204651,466
841.322754,468
841.440918,458
841.55896,474
841.677002,458
841.795166,470
841.913208,466
842.031311,459
842.149353,451
842.267456,435
842.385498,450
842.503601,448
842.621643,459
842.739746,452
842.857788,457
842.97583,446
843.093933,450
843.211975,460
843.330017,464
843.44812,462
843.566101,444
843.684204,446
843.802246,452
843.920227,445
844.038269,459
844.156311,453
844.274292,460
844.392395,460
844.510376,444
844.628357,466
844.74646,456
844.864441,449
844.982422,456
845.100403,445
845.218384,435
845.336426,458
845.454468,444
845.572449,464
845.69043,435
845.808411,458
845.926453,421
846.044373,449
846.162354,450
846.280396,440
846.398315,461
846.516296,440
846.634216,443
846.752197,437
846.870178,456
846.988098,459
847.106079,459
847.22406,463
847.34198,438
847.4599,450
847.577881,464
847.695801,442
847.813782,443
847.931641,464
848.049561,443
848.167603,429
848.285461,451
848.403381,441
848.521362,433
848.639221,434
848.75708,447
848.875,455
848.99292,446
849.110901,455
849.22876,448
849.34668,469
849.464539,428
849.582458,449
849.700317,441
849.818176,470
849.936096,448
850.053955,448
850.171875,459
850.289673,455
850.407593,430
850.525452,430
850.643311,461
850.761169,447
850.878967,422
850.996887,471
851.114746,451
851.232544,446
851.350403,434
851.468262,459
851.58606,447
851.703979,448
851.821777,453
851.939636,450
852.057434,459
852.175232,446
852.293091,459
852.410889,439
852.528687,453
852.646545,467
852.764343,450
852.88208,483
852.999939,447
853.117676,457
853.235535,451
853.353271,458
853.471069,436
853.588928,440
853.706604,441
853.824402,464
853.9422,452
854.059998,443
854.177734,458
854.295532,455
854.413269,446
854.531006,449
854.648804,445
854.766541,461
854.884277,435
855.002014,440
855.119751,446
855.237549,451
855.355225,462
855.473022,437
855.590698,441
855.708435,462
855.826172,455
855.943848,464
856.061646,435
856.179321,448
856.296997,459
856.414795,460
856.53241,477
856.650085,440
856.767822,460
856.885559,459
857.003174,466
857.120911,449
857.238586,455
857.356201,469
857.473938,444
857.591614,446
857.709351,444
857.826965,472
857.944641,451
858.062317,453
858.179993,465
858.297668,448
858.415283,455
858.532959,458
858.650574,446
858.768188,451
858.885803,445
859.003479,453
859.121094,443
859.23877,453
859.356384,450
859.473999,445
859.591675,456
859.709229,470
859.826843,437
859.944458,453
860.062012,432
860.179626,431
860.297302,441
860.414856,437
860.532471,448
860.650024,460
860.767639,437
860.885193,452
861.002808,432
861.120361,450
861.237976,448
861.35553,445
861.473022,451
861.590698,432
861.708191,438
861.825745,446
861.943298,444
862.060852,462
862.178406,468
862.295959,446
862.413513,436
862.531006,437
862.64856,456
862.766113,444
862.883667,445
863.00116,455
863.118713,455
863.236206,449
863.353699,463
863.471252,461
863.588745,422
863.706177,448
863.82373,444
863.941162,442
864.058716,449
864.176208,449
864.29364,435
864.411194,438
864.528687,458
864.646118,445
864.763611,452
864.881042,452
864.998535,443
865.116028,451
865.233459,454
865.350891,464
865.468384,457
865.585754,467
865.703308,452
865.820679,454
865.938171,463
866.055542,443
866.173035,453
866.290466,463
866.407837,437
866.52533,468
866.6427,457
866.760071,459
866.877563,454
866.994934,462
867.112305,461
867.229736,479
867.347107,457
867.464539,464
867.58197,438
867.699341,452
867.81665,463
867.934082,470
868.051453,444
868.168823,478
868.286194,446
868.403564,435
868.520935,452
868.638306,451
868.755676,433
868.872986,450
868.990295,443
869.107727,442
869.225037,445
869.342346,443
869.459717,458
869.577026,472
869.694336,442
869.811707,452
869.929016,441
870.046326,474
870.163635,448
870.280945,451
870.398254,448
870.515564,448
870.632812,443
870.750183,429
870.867432,458
870.984741,458
871.102051,456
871.219299,458
871.336609,453
871.453918,441
871.571106,448
871.688416,445
871.805664,459
871.922852,436
872.040222,443
872.157471,445
872.274719,457
872.391968,467
872.509155,455
872.626465,457
872.743652,455
872.860962,467
872.978149,443
873.095337,444
873.212646,444
873.329834,453
873.44696,444
873.564209,456
873.681396,456
873.798645,474
873.915894,448
874.03302,464
874.150208,451
874.267456,465
874.384583,443
874.501831,462
874.618958,441
874.736145,457
874.853333,443
874.970459,457
875.087646,446
875.204834,450
875.32196,453
875.439148,456
875.556274,451
875.673401,467
875.790527,437
875.907715,459
876.024841,431
876.141968,459
876.259094,439
876.376282,452
876.493347,466
876.610474,444
876.7276,454
876.844727,466
876.961853,456
877.078918,454
877.195984,444
877.313171,450
877.430237,453
877.547302,460
877.664368,466
877.781433,440
877.898499,439
878.015625,443
878.13269,457
878.249695,441
878.366821,442
878.483887,450
878.600952,426
878.717957,455
878.834961,433
878.952087,446
879.069092,435
879.186157,436
879.303162,441
879.420227,448
879.537231,435
879.654236,454
879.77124,448
879.888306,455
880.005249,452
880.122314,454
880.239319,445
880.356323,444
880.473328,450
880.590271,443
880.707275,430
880.824341,460
880.941284,463
881.058228,462
881.175232,430
881.292236,442
881.40918,441
881.526123,453
881.643066,453
881.760071,463
881.877014,452
881.993958,469
882.11084,446
882.227783,467
882.344727,463
882.46167,457
882.578613,450
882.695618,463
882.812439,427
882.929382,452
883.046326,450
883.163208,443
883.280151,442
883.397034,447
883.513916,450
883.630798,451
883.747742,448
883.864563,454
883.981506,439
884.098389,438
884.21521,454
884.332153,471
884.448975,453
884.565796,457
884.682678,440
884.7995,463
884.916443,461
885.033264,473
885.150085,457
885.266968,465
885.383789,456
885.500671,444
885.617493,457
885.734314,460
885.851196,454
885.967896,439
886.084717,452
886.201599,452
886.318359,446
886.435181,477
886.552002,465
886.668762,466
886.785645,462
886.902344,457
887.019165,435
887.135925,449
887.252747,460
887.369446,458
887.486267,465
887.603027,457
887.719788,450
887.836548,465
887.953247,467
888.070068,437
888.186829,453
888.303528,464
888.420288,480
888.536987,458
888.653687,465
888.770447,467
888.887146,450
889.003967,462
889.120667,444
889.237305,449
889.354065,439
889.470703,460
889.587463,459
889.704163,451
889.820862,447
889.937561,457
890.054199,463
890.170837,465
890.287598,460
890.404236,439
890.520874,461
890.637634,466
890.754211,438
890.87085,452
890.987549,457
891.104187,446
891.220886,456
891.337463,475
891.454102,447
891.57074,460
891.687378,468
891.804077,447
891.920654,449
892.037231,446
892.15387,465
892.270447,471
892.387085,482
892.503723,453
892.6203,451
892.736877,468
892.853516,448
892.970032,469
893.08667,467
893.203186,453
893.319763,445
893.43634,464
893.552917,451
893.669556,459
893.786011,486
893.902588,471
894.019165,446
894.135681,475
894.252197,466
894.368835,459
894.485291,475
894.601868,469
894.718384,452
894.8349,454
894.951355,462
895.067932,463
895.184448,446
895.300964,461
895.417419,461
895.533936,474
895.650452,461
895.766907,454
895.883423,468
895.999878,467
896.116333,465
896.232849,448
896.349304,443
896.465759,462
896.582214,450
896.698669,469
896.815125,460
896.931641,453
897.048035,467
897.164551,454
897.280884,446
897.397339,465
897.513794,462
897.630249,468
897.746582,462
897.863098,468
897.979431,465
898.095886,484
898.212341,457
898.328674,462
898.445129,458
898.561462,450
898.677795,457
898.794312,483
898.910645,442
899.026978,486
899.143433,465
899.259766,465
899.37616,463
899.492493,470
899.608765,468
899.725159,448
899.841553,469
899.957947,460
900.07428,453
900.190552,455
900.306946,474
900.423157,468
900.53949,469
900.655884,468
900.772156,458
900.888489,463
901.004822,460
901.121033,480
901.237366,469
901.353699,462
901.46991,457
901.586304,474
901.702515,451
901.818787,458
901.93512,450
902.051331,468
902.167603,457
902.283875,471
902.400085,455
902.516418,471
902.632629,452
902.74884,472
902.865112,470
902.981384,473
903.097595,469
903.213867,465
903.330017,449
903.446289,460
903.5625,452
903.67865,464
903.794922,466
903.911072,477
904.027344,453
904.143494,451
904.259705,477
904.375916,462
904.492065,457
904.608215,488
904.724426,466
904.840576,473
904.956726,440
905.072876,450
905.189087,481
905.305176,474
905.421387,440
905.537537,467
905.653687,463
905.769775,474
905.885925,453
906.002014,466
906.118164,475
906.234314,458
906.350403,464
906.466492,463
906.582642,458
906.69873,466
906.814758,478
906.930908,460
907.046936,478
907.163086,477
907.279175,461
907.395264,465
907.511353,450
907.62738,467
907.743408,474
907.859497,479
907.975525,472
908.091553,479
908.207703,465
908.32373,465
908.439758,446
908.555786,470
908.671814,461
908.787842,466
908.90387,477
909.019775,465
909.135864,465
909.251892,476
909.367859,455
909.483826,488
909.599854,461
909.715881,463
909.831848,458
909.947815,452
910.063782,484
910.179749,470
910.295776,476
910.411743,465
910.527649,473
910.643616,459
910.759583,478
910.875488,479
910.991455,477
911.107361,473
911.223267,442
911.339294,476
911.4552,478
911.571106,455
911.687073,475
911.802979,456
911.918823,482
912.034729,472
912.150635,490
912.266602,460
912.382446,462
912.498352,478
912.614197,468
912.730103,465
912.846008,451
792.44574,622
792.56488,647
792.68396,689
792.80304,657
792.92218,628
793.041199,609
793.160339,609
793.279419,604
793.398499,621
793.517578,579
793.636658,606
793.755737,612
793.874817,634
793.993896,612
794.112976,621
794.232056,598
794.351074,581
794.470215,616
794.589233,591
794.708313,615
794.827393,599
794.946411,600
795.065552,575
795.18457,591
795.303589,572
795.422668,595
795.541687,578
795.660767,583
795.779846,597
795.898865,580
796.017883,576
796.136963,576
796.255981,584
796.375061,593
796.49408,589
796.613037,562
796.732117,592
796.851135,587
796.970154,567
797.089233,569
797.208191,593
797.327271,587
797.446228,581
797.565186,574
797.684265,574
797.803223,595
797.922241,571
798.04126,575
798.160278,586
798.279297,578
798.398315,572
798.517273,562
798.636292,587
798.75531,589
798.874268,586
798.993286,581
799.112244,580
799.231323,586
799.350281,571
799.469238,559
799.588257,589
799.707153,576
799.826111,585
799.945129,579
800.064087,584
800.183044,588
800.302063,552
800.421021,603
800.539978,575
800.658936,569
800.777893,606
800.896912,570
801.015747,563
801.134705,608
801.253723,571
801.37262,574
801.491638,602
801.610535,557
801.729492,599
801.84845,591
801.967407,596
802.086243,585
802.205261,566
802.324158,584
802.443115,590
802.562073,605
802.680969,583
802.799927,599
802.918762,580
803.037659,592
803.156677,605
803.275574,595
803.39447,578
803.513428,590
803.632263,586
803.751221,614
803.870117,569
803.989014,605
804.107971,592
804.226746,614
804.345642,582
804.4646,584
804.583496,606
804.702393,620
804.821228,595
804.940125,592
805.059021,603
805.177917,585
805.296814,604
805.415649,588
805.534546,593
805.653442,594
805.772278,613
805.891113,610
806.01001,597
806.128906,612
806.247742,603
806.366577,626
806.485413,587
806.604309,633
806.723145,608
806.84198,602
806.960876,586
807.079712,613
807.198486,598
807.317383,603
807.436218,587
807.554993,618
807.673889,617
807.792725,610
807.91156,617
808.030396,615
808.14917,611
808.268005,620
808.386841,628
808.505676,620
808.624451,635
808.743286,627
808.862122,618
808.980896,634
809.099731,619
809.218506,627
809.337341,655
809.456116,611
809.57489,621
809.693726,620
809.8125,619
809.931274,615
810.050049,618
810.168884,626
810.287659,611
810.406372,643
810.525269,616
810.643982,624
810.762756,653
810.881531,621
811.000305,623
811.11908,635
811.237854,636
811.356567,654
811.475403,621
811.594116,636
811.71283,617
811.831604,650
811.950378,628
812.069153,618
812.187927,610
812.30658,621
812.425415,638
812.544128,638
812.662781,600
812.781616,607
812.900269,598
813.019043,656
813.137756,620
813.256531,656
813.375244,625
813.493896,651
813.612671,639
813.731384,622
813.850037,619
813.96875,621
814.087524,643
814.206238,644
814.324951,624
814.443604,633
814.562256,611
814.68103,638
814.799683,637
814.918335,633
815.037109,639
815.155762,618
815.274475,610
815.393188,610
815.511841,618
815.630554,607
815.749146,605
815.867859,595
815.986572,593
816.105164,598
816.223877,603
816.342529,613
816.461182,620
816.579895,631
816.698486,585
816.817139,617
816.935791,616
817.054504,628
817.173096,608
817.291748,617
817.4104,610
817.529053,586
817.647644,599
817.766235,576
817.884949,585
818.00354,580
818.122192,576
818.240845,551
818.359436,532
818.478088,551
818.59668,538
818.715271,525
818.833923,509
818.952515,541
819.071106,534
819.189758,517
819.30835,499
819.426941,526
819.545532,492
819.664124,502
819.782715,501
819.901306,515
820.019897,495
820.138489,524
820.25708,502
820.375671,497
820.494202,514
820.612732,507
820.731384,491
820.849915,499
820.968506,483
821.087097,481
821.205627,464
821.324158,503
821.442749,474
821.561279,469
821.679871,490
821.798401,482
821.916931,488
822.035461,479
822.154053,481
822.272583,483
822.391174,484
822.509583,468
822.628174,486
822.746704,464
822.865234,483
822.983765,516
823.102295,491
823.220825,491
823.339294,471
823.457825,475
823.576355,485
823.694824,483
823.813354,483
823.931885,459
824.050354,479
824.168884,486
824.287354,497
824.405823,485
824.524353,472
824.642822,510
824.761353,495
824.879822,507
824.998291,467
825.116699,485
825.235291,487
825.353699,483
825.472168,462
825.590637,480
825.709106,464
825.827576,464
825.946045,477
826.064453,479
826.182983,470
826.301392,483
826.4198,481
826.53833,477
826.656738,463
826.775208,452
826.893677,446
827.012024,457
827.130493,471
827.248962,459
827.36731,463
827.485779,467
827.604248,468
827.722595,475
827.841064,459
827.959412,464
828.077942,464
828.196289,459
828.314636,464
828.433105,464
828.551514,450
828.669861,482
828.78833,442
828.906677,460
829.025085,453
829.143433,468
829.261841,466
829.38031,463
829.498657,465
829.617004,456
829.735413,463
829.85376,453
829.972107,475
830.090515,462
830.208862,454
830.327209,466
830.445557,443
830.563904,461
830.682312,462
830.800659,458
830.919006,463
831.037354,451
831.155701,458
831.274048,458
831.392395,451
831.51062,448
831.629028,456
831.747314,455
831.865662,465
831.984009,460
832.102356,445
832.220642,462
832.338928,458
832.457275,457
832.575623,464
832.693909,457
832.812134,465
832.930481,463
833.048828,459
833.167114,447
833.2854,456
833.403687,460
833.521973,458
833.640259,484
833.758545,482
833.876831,458
833.995056,445
834.113281,454
834.231628,455
834.349915,460
834.468201,459
834.586426,468
834.704651,458
834.822998,439
834.941162,478
835.059448,475
835.177673,463
835.295959,435
835.414246,451
835.53241,462
835.650635,459
835.768921,463
835.887146,460
836.005371,476
836.123596,465
836.241821,455
836.360046,456
836.478271,474
836.596497,460
836.714722,463
836.832886,481
836.95105,479
837.069336,454
837.1875,483
837.305725,482
837.423889,470
837.542053,464
837.660339,490
837.778503,481
837.896667,469
838.014832,475
838.132996,458
838.25116,490
838.369385,474
838.487488,478
838.605713,464
838.723877,480
838.84198,471
838.960205,469
839.078308,473
839.196472,480
839.314636,473
839.4328,458
839.550964,464
839.669067,456
839.787231,471
839.905396,469
840.023499,462
840.141602,469
840.259766,471
840.377869,455
840.495972,447
840.614136,462
840.732239,457
840.850342,458
840.968445,460
841.086548,460
841.204651,474
841.322754,461
841.440918,446
841.55896,459
841.677002,462
841.795166,461
841.913208,472
842.031311,446
842.149353,476
842.267456,442
842.385498,472
842.503601,453
842.621643,439
842.739746,465
842.857788,444
842.97583,449
843.093933,441
843.211975,441
843.330017,448
843.44812,450
843.566101,447
843.684204,454
843.802246,437
843.920227,447
844.038269,478
844.156311,461
844.274292,460
844.392395,446
844.510376,460
844.628357,447
844.74646,453
844.864441,437
844.982422,459
845.100403,458
845.218384,453
845.336426,439
845.454468,445
845.572449,451
845.69043,445
845.808411,457
845.926453,447
846.044373,428
846.162354,448
846.280396,441
846.398315,445
846.516296,435
846.634216,448
846.752197,437
846.870178,449
846.988098,447
847.106079,454
847.22406,445
847.34198,446
847.4599,442
847.577881,445
847.695801,452
847.813782,448
847.931641,440
848.049561,457
848.167603,449
848.285461,444
848.403381,453
848.521362,446
848.639221,432
848.75708,457
848.875,429
848.99292,459
849.110901,468
849.22876,443
849.34668,445
849.464539,437
849.582458,455
849.700317,436
849.818176,447
849.936096,440
850.053955,457
850.171875,441
850.289673,438
850.407593,437
850.525452,446
850.643311,436
850.761169,459
850.878967,441
850.996887,439
851.114746,429
851.232544,443
851.350403,457
851.468262,452
851.58606,439
851.703979,462
851.821777,426
851.939636,455
852.057434,448
852.175232,432
852.293091,452
852.410889,449
852.528687,464
852.646545,470
852.764343,467
852.88208,449
852.999939,455
853.117676,462
853.235535,445
853.353271,454
853.471069,469
853.588928,442
853.706604,466
853.824402,445
853.9422,443
854.059998,462
854.177734,446
854.295532,458
854.413269,455
854.531006,441
854.648804,455
854.766541,449
854.884277,459
855.002014,457
855.119751,453
855.237549,440
855.355225,470
855.473022,466
855.590698,474
855.708435,454
855.826172,451
855.943848,455
856.061646,474
856.179321,446
856.296997,455
856.414795,473
856.53241,459
856.650085,452
856.767822,472
856.885559,471
857.003174,446
857.120911,447
857.238586,463
857.356201,455
857.473938,455
857.591614,457
857.709351,448
857.826965,475
857.944641,454
858.062317,439
858.179993,462
858.297668,448
858.415283,457
858.532959,451
858.650574,471
858.768188,456
858.885803,437
859.003479,448
859.121094,463
859.23877,456
859.356384,462
859.473999,479
859.591675,465
859.709229,468
859.826843,445
859.944458,445
860.062012,465
860.179626,471
860.297302,448
860.414856,429
860.532471,456
860.650024,464
860.767639,447
860.885193,441
861.002808,440
861.120361,457
861.237976,442
861.35553,461
861.473022,464
861.590698,437
861.708191,451
861.825745,458
861.943298,436
862.060852,458
862.178406,438
862.295959,470
862.413513,441
862.531006,457
862.64856,460
862.766113,444
862.883667,448
863.00116,436
863.118713,462
863.236206,458
863.353699,444
863.471252,430
863.588745,450
863.706177,447
863.82373,456
863.941162,455
864.058716,446
864.176208,460
864.29364,444
864.411194,465
864.528687,448
864.646118,457
864.763611,451
864.881042,458
864.998535,446
865.116028,455
865.233459,450
865.350891,442
865.468384,463
865.585754,462
865.703308,452
865.820679,447
865.938171,458
866.055542,453
866.173035,473
866.290466,462
866.407837,447
866.52533,448
866.6427,463
866.760071,459
866.877563,467
866.994934,448
867.112305,450
867.229736,458
867.347107,448
867.464539,453
867.58197,450
867.699341,448
867.81665,457
867.934082,446
868.051453,443
868.168823,450
868.286194,478
868.403564,459
868.520935,463
868.638306,452
868.755676,469
868.872986,457
868.990295,443
869.107727,449
869.225037,444
869.342346,450
869.459717,470
869.577026,446
869.694336,428
869.811707,457
869.929016,454
870.046326,465
870.163635,446
870.280945,436
870.398254,465
870.515564,452
870.632812,452
870.750183,465
870.867432,444
870.984741,448
871.102051,459
871.219299,440
871.336609,465
871.453918,467
871.571106,440
871.688416,456
871.805664,461
871.922852,462
872.040222,453
872.157471,464
872.274719,450
872.391968,457
872.509155,440
872.626465,455
872.743652,469
872.860962,437
872.978149,444
873.095337,444
873.212646,448
873.329834,453
873.44696,452
873.564209,440
873.681396,452
873.798645,439
873.915894,476
874.03302,453
874.150208,455
874.267456,461
874.384583,467
874.501831,466
874.618958,447
874.736145,456
874.853333,452
874.970459,433
875.087646,470
875.204834,457
875.32196,433
875.439148,478
875.556274,463
875.673401,458
875.790527,450
875.907715,439
876.024841,466
876.141968,448
876.259094,473
876.376282,436
876.493347,437
876.610474,462
876.7276,449
876.844727,468
876.961853,457
877.078918,476
877.195984,447
877.313171,448
877.430237,461
877.547302,437
877.664368,455
877.781433,455
877.898499,442
878.015625,460
878.13269,454
878.249695,462
878.366821,440
878.483887,459
878.600952,455
878.717957,460
878.834961,465
878.952087,455
879.069092,472
879.186157,438
879.303162,446
879.420227,470
879.537231,446
879.654236,436
879.77124,440
879.888306,461
880.005249,456
880.122314,435
880.239319,476
880.356323,432
880.473328,441
880.590271,450
880.707275,457
880.824341,465
880.941284,441
881.058228,449
881.175232,458
881.292236,455
881.40918,448
881.526123,441
881.643066,449
881.760071,445
881.877014,454
881.993958,457
882.11084,465
882.227783,453
882.344727,446
882.46167,460
882.578613,459
882.695618,447
882.812439,472
882.929382,457
883.046326,451
883.163208,447
883.280151,455
883.397034,452
883.513916,473
883.630798,444
883.747742,459
883.864563,449
883.981506,443
884.098389,449
884.21521,470
884.332153,466
884.448975,441
884.565796,457
884.682678,463
884.7995,446
884.916443,473
885.033264,465
885.150085,467
885.266968,449
885.383789,473
885.500671,469
885.617493,471
885.734314,467
885.851196,463
885.967896,450
886.084717,455
886.201599,465
886.318359,463
886.435181,469
886.552002,467
886.668762,463
886.785645,457
886.902344,468
887.019165,460
887.135925,445
887.252747,454
887.369446,461
887.486267,443
887.603027,461
887.719788,467
887.836548,443
887.953247,445
888.070068,471
888.186829,442
888.303528,455
888.420288,481
888.536987,456
888.653687,453
888.770447,456
888.887146,452
889.003967,472
889.120667,464
889.237305,445
889.354065,471
889.470703,435
889.587463,478
889.704163,464
889.820862,460
889.937561,461
890.054199,465
890.170837,452
890.287598,445
890.404236,462
890.520874,459
890.637634,459
890.754211,452
890.87085,466
890.987549,456
891.104187,462
891.220886,457
891.337463,475
891.454102,464
891.57074,453
891.687378,444
891.804077,479
891.920654,470
892.037231,437
892.15387,450
892.270447,463
892.387085,457
892.503723,469
892.6203,478
892.736877,462
892.853516,444
892.970032,451
893.08667,450
893.203186,475
893.319763,459
893.43634,442
893.552917,443
893.669556,470
893.786011,441
893.902588,482
894.019165,465
894.135681,457
894.252197,454
894.368835,452
894.485291,456
894.601868,451
894.718384,482
894.8349,470
894.951355,468
895.067932,453
895.184448,461
895.300964,461
895.417419,462
895.533936,457
895.650452,449
895.766907,454
895.883423,446
895.999878,450
896.116333,458
896.232849,457
896.349304,476
896.465759,436
896.582214,470
896.698669,467
896.815125,458
896.931641,454
897.048035,482
897.164551,461
897.280884,452
897.397339,453
897.513794,464
897.630249,461
897.746582,449
897.863098,458
897.979431,456
898.095886,458
898.212341,457
898.328674,441
898.445129,462
898.561462,454
898.677795,460
898.794312,452
898.910645,478
899.026978,445
899.143433,478
899.259766,458
899.37616,475
899.492493,442
899.608765,472
899.725159,462
899.841553,452
899.957947,477
900.07428,451
900.190552,472
900.306946,472
900.423157,469
900.53949,472
900.655884,469
900.772156,467
900.888489,464
901.004822,486
901.121033,450
901.237366,472
901.353699,477
901.46991,471
901.586304,464
901.702515,455
901.818787,458
901.93512,481
902.051331,467
902.167603,475
902.283875,459
902.400085,462
902.516418,475
902.632629,475
902.74884,471
902.865112,478
902.981384,481
903.097595,468
903.213867,475
903.330017,463
903.446289,454
903.5625,456
903.67865,489
903.794922,472
903.911072,477
904.027344,478
904.143494,457
904.259705,466
904.375916,471
904.492065,455
904.608215,476
904.724426,463
904.840576,486
904.956726,463
905.072876,461
905.189087,468
905.305176,469
905.421387,454
905.537537,459
905.653687,473
905.769775,463
905.885925,459
906.002014,494
906.118164,463
906.234314,464
906.350403,463
906.466492,461
906.582642,470
906.69873,470
906.814758,485
906.930908,483
907.046936,456
907.163086,474
907.279175,459
907.395264,472
907.511353,472
907.62738,460
907.743408,475
907.859497,464
907.975525,456
908.091553,480
908.207703,480
908.32373,459
908.439758,488
908.555786,467
908.671814,466
908.787842,464
908.90387,465
909.019775,475
909.135864,454
909.251892,470
909.367859,481
909.483826,460
909.599854,476
909.715881,477
909.831848,471
909.947815,467
910.063782,466
910.179749,478
910.295776,471
910.411743,480
910.527649,498
910.643616,461
910.759583,466
910.875488,468
910.991455,486
911.107361,469
911.223267,480
911.339294,468
911.4552,471
911.571106,466
911.687073,468
911.802979,463
911.918823,468
912.034729,477
912.150635,488
912.266602,462
912.382446,469
912.498352,449
912.614197,481
912.730103,447
912.846008,461
