792.44574,628
792.56488,646
792.68396,697
792.80304,668
792.92218,599
793.041199,576
793.160339,603
793.279419,602
793.398499,629
793.517578,603
793.636658,591
793.755737,593
793.874817,630
793.993896,593
794.112976,612
794.232056,597
794.351074,573
794.470215,598
794.589233,605
794.708313,560
794.827393,567
794.946411,578
795.065552,589
795.18457,593
795.303589,593
795.422668,589
795.541687,581
795.660767,582
795.779846,592
795.898865,586
796.017883,567
796.136963,584
796.255981,587
796.375061,582
796.49408,570
796.613037,565
796.732117,587
796.851135,585
796.970154,589
797.089233,571
797.208191,568
797.327271,584
797.446228,579
797.565186,576
797.684265,592
797.803223,563
797.922241,567
798.04126,567
798.160278,587
798.279297,575
798.398315,574
798.517273,591
798.636292,594
798.75531,582
798.874268,597
798.993286,585
799.112244,570
799.231323,572
799.350281,592
799.469238,563
799.588257,571
799.707153,572
799.826111,585
799.945129,570
800.064087,568
800.183044,576
800.302063,580
800.421021,565
800.539978,582
800.658936,569
800.777893,578
800.896912,593
801.015747,572
801.134705,569
801.253723,561
801.37262,564
801.491638,594
801.610535,557
801.729492,612
801.84845,575
801.967407,609
802.086243,573
802.205261,584
802.324158,585
802.443115,604
802.562073,574
802.680969,592
802.799927,608
802.918762,593
803.037659,554
803.156677,606
803.275574,597
803.39447,605
803.513428,570
803.632263,612
803.751221,603
803.870117,572
803.989014,578
804.107971,594
804.226746,583
804.345642,586
804.4646,615
804.583496,602
804.702393,605
804.821228,606
804.940125,605
805.059021,609
805.177917,607
805.296814,584
805.415649,601
805.534546,616
805.653442,609
805.772278,603
805.891113,605
806.01001,623
806.128906,608
806.247742,599
806.366577,612
806.485413,614
806.604309,617
806.723145,599
806.84198,611
806.960876,602
807.079712,601
807.198486,615
807.317383,628
807.436218,650
807.554993,611
807.673889,630
807.792725,600
807.91156,602
808.030396,628
808.14917,598
808.268005,594
808.386841,632
808.505676,608
808.624451,611
808.743286,626
808.862122,627
808.980896,620
809.099731,629
809.218506,618
809.337341,645
809.456116,596
809.57489,611
809.693726,637
809.8125,658
809.931274,637
810.050049,611
810.168884,624
810.287659,617
810.406372,616
810.525269,593
810.643982,611
810.762756,626
810.881531,616
811.000305,607
811.11908,625
811.237854,632
811.356567,630
811.475403,628
811.594116,621
811.71283,624
811.831604,623
811.950378,621
812.069153,636
812.187927,617
812.30658,608
812.425415,624
812.544128,635
812.662781,607
812.781616,613
812.900269,628
813.019043,617
813.137756,612
813.256531,630
813.375244,641
813.493896,648
813.612671,624
813.731384,608
813.850037,651
813.96875,642
814.087524,632
814.206238,627
814.324951,618
814.443604,623
814.562256,625
814.68103,632
814.799683,611
814.918335,641
815.037109,608
815.155762,620
815.274475,609
815.393188,622
815.511841,605
815.630554,604
815.749146,629
815.867859,597
815.986572,624
816.105164,629
816.223877,608
816.342529,587
816.461182,610
816.579895,632
816.698486,596
816.817139,629
816.935791,626
817.054504,610
817.173096,606
817.291748,625
817.4104,594
817.529053,597
817.647644,604
817.766235,568
817.884949,576
818.00354,557
818.122192,554
818.240845,552
818.359436,542
818.478088,552
818.59668,545
818.715271,543
818.833923,497
818.952515,536
819.071106,534
819.189758,519
819.30835,508
819.426941,499
819.545532,515
819.664124,513
819.782715,500
819.901306,494
820.019897,520
820.138489,492
820.25708,510
820.375671,494
820.494202,499
820.612732,492
820.731384,504
820.849915,461
820.968506,503
821.087097,478
821.205627,485
821.324158,500
821.442749,479
821.561279,474
821.679871,474
821.798401,486
821.916931,471
822.035461,487
822.154053,488
822.272583,479
822.391174,489
822.509583,467
822.628174,491
822.746704,476
822.865234,485
822.983765,490
823.102295,481
823.220825,471
823.339294,488
823.457825,484
823.576355,474
823.694824,467
823.813354,491
823.931885,471
824.050354,484
824.168884,481
824.287354,484
824.405823,483
824.524353,484
824.642822,497
824.761353,497
824.879822,488
824.998291,499
825.116699,502
825.235291,504
825.353699,480
825.472168,473
825.590637,492
825.709106,481
825.827576,480
825.946045,472
826.064453,461
826.182983,487
826.301392,443
826.4198,468
826.53833,485
826.656738,483
826.775208,461
826.893677,472
827.012024,463
827.130493,471
827.248962,445
827.36731,473
827.485779,451
827.604248,448
827.722595,455
827.841064,442
827.959412,466
828.077942,457
828.196289,456
828.314636,457
828.433105,466
828.551514,471
828.669861,467
828.78833,456
828.906677,478
829.025085,467
829.143433,461
829.261841,448
829.38031,463
829.498657,463
829.617004,437
829.735413,470
829.85376,470
829.972107,470
830.090515,469
830.208862,444
830.327209,452
830.445557,458
830.563904,455
830.682312,469
830.800659,433
830.919006,452
831.037354,462
831.155701,460
831.274048,436
831.392395,460
831.51062,447
831.629028,444
831.747314,462
831.865662,467
831.984009,456
832.102356,462
832.220642,442
832.338928,477
832.457275,453
832.575623,432
832.693909,482
832.812134,462
832.930481,447
833.048828,477
833.167114,473
833.2854,465
833.403687,447
833.521973,458
833.640259,454
833.758545,460
833.876831,450
833.995056,465
834.113281,456
834.231628,452
834.349915,462
834.468201,457
834.586426,457
834.704651,464
834.822998,474
834.941162,448
835.059448,452
835.177673,465
835.295959,458
835.414246,466
835.53241,468
835.650635,448
835.768921,447
835.887146,466
836.005371,458
836.123596,449
836.241821,465
836.360046,461
836.478271,465
836.596497,473
836.714722,454
836.832886,463
836.95105,473
837.069336,464
837.1875,452
837.305725,473
837.423889,475
837.542053,458
837.660339,468
837.778503,474
837.896667,480
838.014832,473
838.132996,464
838.25116,480
838.369385,479
838.487488,483
838.605713,474
838.723877,480
838.84198,474
838.960205,496
839.078308,472
839.196472,467
839.314636,477
839.4328,479
839.550964,484
839.669067,465
839.787231,467
839.905396,458
840.023499,446
840.141602,479
840.259766,467
840.377869,473
840.495972,446
840.614136,487
840.732239,484
840.850342,449
840.968445,460
841.086548,467
841.204651,457
841.322754,474
841.440918,462
841.55896,475
841.677002,450
841.795166,458
841.913208,462
842.031311,458
842.149353,453
842.267456,429
842.385498,452
842.503601,476
842.621643,439
842.739746,441
842.857788,449
842.97583,451
843.093933,455
843.211975,453
843.330017,428
843.44812,438
843.566101,439
843.684204,441
843.802246,447
843.920227,451
844.038269,429
844.156311,467
844.274292,465
844.392395,454
844.510376,434
844.628357,463
844.74646,434
844.864441,445
844.982422,444
845.100403,432
845.218384,448
845.336426,457
845.454468,437
845.572449,439
845.69043,449
845.808411,440
845.926453,442
846.044373,459
846.162354,445
846.280396,460
846.398315,450
846.516296,448
846.634216,434
846.752197,440
846.870178,448
846.988098,464
847.106079,454
847.22406,450
847.34198,447
847.4599,466
847.577881,438
847.695801,454
847.813782,446
847.931641,450
848.049561,434
848.167603,445
848.285461,447
848.403381,463
848.521362,429
848.639221,439
848.75708,447
848.875,479
848.99292,454
849.110901,445
849.22876,428
849.34668,457
849.464539,453
849.582458,450
849.700317,462
849.818176,472
849.936096,436
850.053955,453
850.171875,439
850.289673,443
850.407593,444
850.525452,443
850.643311,461
850.761169,439
850.878967,452
850.996887,461
851.114746,447
851.232544,474
851.350403,449
851.468262,456
851.58606,449
851.703979,436
851.821777,433
851.939636,447
852.057434,444
852.175232,449
852.293091,438
852.410889,424
852.528687,452
852.646545,443
852.764343,434
852.88208,457
852.999939,450
853.117676,461
853.235535,444
853.353271,447
853.471069,451
853.588928,449
853.706604,475
853.824402,443
853.9422,454
854.059998,448
854.177734,446
854.295532,455
854.413269,436
854.531006,471
854.648804,456
854.766541,441
854.884277,433
855.002014,444
855.119751,456
855.237549,444
855.355225,474
855.473022,450
855.590698,456
855.708435,461
855.826172,450
855.943848,457
856.061646,459
856.179321,450
856.296997,449
856.414795,463
856.53241,460
856.650085,459
856.767822,453
856.885559,453
857.003174,455
857.120911,454
857.238586,467
857.356201,479
857.473938,467
857.591614,451
857.709351,451
857.826965,458
857.944641,460
858.062317,467
858.179993,452
858.297668,458
858.415283,446
858.532959,454
858.650574,456
858.768188,458
858.885803,447
859.003479,441
859.121094,454
859.23877,468
859.356384,445
859.473999,463
859.591675,450
859.709229,445
859.826843,460
859.944458,456
860.062012,438
860.179626,446
860.297302,438
860.414856,438
860.532471,446
860.650024,452
860.767639,453
860.885193,450
861.002808,442
861.120361,442
861.237976,435
861.35553,433
861.473022,447
861.590698,445
861.708191,437
861.825745,454
861.943298,431
862.060852,439
862.178406,449
862.295959,454
862.413513,448
862.531006,467
862.64856,455
862.766113,454
862.883667,449
863.00116,461
863.118713,450
863.236206,457
863.353699,440
863.471252,448
863.588745,448
863.706177,447
863.82373,437
863.941162,449
864.058716,452
864.176208,451
864.29364,454
864.411194,446
864.528687,436
864.646118,454
864.763611,432
864.881042,447
864.998535,447
865.116028,449
865.233459,447
865.350891,433
865.468384,466
865.585754,463
865.703308,454
865.820679,443
865.938171,454
866.055542,452
866.173035,452
866.290466,451
866.407837,439
866.52533,474
866.6427,466
866.760071,466
866.877563,457
866.994934,453
867.112305,441
867.229736,464
867.347107,458
867.464539,473
867.58197,466
867.699341,468
867.81665,454
867.934082,443
868.051453,454
868.168823,450
868.286194,458
868.403564,458
868.520935,456
868.638306,464
868.755676,438
868.872986,455
868.990295,458
869.107727,471
869.225037,430
869.342346,466
869.459717,440
869.577026,445
869.694336,452
869.811707,467
869.929016,438
870.046326,459
870.163635,460
870.280945,470
870.398254,464
870.515564,452
870.632812,451
870.750183,434
870.867432,445
870.984741,445
871.102051,443
871.219299,463
871.336609,433
871.453918,449
871.571106,467
871.688416,468
871.805664,437
871.922852,457
872.040222,446
872.157471,464
872.274719,442
872.391968,461
872.509155,455
872.626465,419
872.743652,442
872.860962,455
872.978149,472
873.095337,445
873.212646,434
873.329834,449
873.44696,445
873.564209,437
873.681396,473
873.798645,454
873.915894,429
874.03302,436
874.150208,449
874.267456,460
874.384583,428
874.501831,468
874.618958,451
874.736145,448
874.853333,439
874.970459,449
875.087646,445
875.204834,460
875.32196,449
875.439148,447
875.556274,449
875.673401,458
875.790527,441
875.907715,451
876.024841,445
876.141968,444
876.259094,449
876.376282,445
876.493347,466
876.610474,447
876.7276,452
876.844727,438
876.961853,455
877.078918,463
877.195984,458
877.313171,445
877.430237,450
877.547302,460
877.664368,439
877.781433,467
877.898499,444
878.015625,469
878.13269,448
878.249695,455
878.366821,462
878.483887,454
878.600952,435
878.717957,450
878.834961,442
878.952087,453
879.069092,452
879.186157,445
879.303162,433
879.420227,442
879.537231,437
879.654236,448
879.77124,443
879.888306,461
880.005249,439
880.122314,448
880.239319,455
880.356323,463
880.473328,456
880.590271,446
880.707275,434
880.824341,458
880.941284,446
881.058228,450
881.175232,467
881.292236,455
881.40918,466
881.526123,460
881.643066,435
881.760071,448
881.877014,437
881.993958,443
882.11084,445
882.227783,462
882.344727,425
882.46167,456
882.578613,436
882.695618,456
882.812439,458
882.929382,446
883.046326,449
883.163208,448
883.280151,437
883.397034,450
883.513916,446
883.630798,452
883.747742,436
883.864563,449
883.981506,438
884.098389,457
884.21521,453
884.332153,449
884.448975,458
884.565796,460
884.682678,458
884.7995,451
884.916443,452
885.033264,458
885.150085,442
885.266968,462
885.383789,464
885.500671,460
885.617493,463
885.734314,471
885.851196,449
885.967896,467
886.084717,441
886.201599,450
886.318359,465
886.435181,469
886.552002,452
886.668762,459
886.785645,453
886.902344,472
887.019165,458
887.135925,453
887.252747,457
887.369446,466
887.486267,442
887.603027,453
887.719788,457
887.836548,452
887.953247,443
888.070068,474
888.186829,448
888.303528,450
888.420288,452
888.536987,461
888.653687,483
888.770447,475
888.887146,454
889.003967,464
889.120667,457
889.237305,452
889.354065,456
889.470703,443
889.587463,442
889.704163,465
889.820862,454
889.937561,479
890.054199,501
890.170837,466
890.287598,452
890.404236,455
890.520874,458
890.637634,450
890.754211,467
890.87085,441
890.987549,468
891.104187,446
891.220886,445
891.337463,447
891.454102,464
891.57074,462
891.687378,468
891.804077,468
891.920654,466
892.037231,458
892.15387,461
892.270447,478
892.387085,454
892.503723,447
892.6203,455
892.736877,473
892.853516,454
892.970032,486
893.08667,479
893.203186,460
893.319763,462
893.43634,478
893.552917,448
893.669556,454
893.786011,469
893.902588,466
894.019165,456
894.135681,458
894.252197,467
894.368835,459
894.485291,451
894.601868,468
894.718384,478
894.8349,452
894.951355,466
895.067932,467
895.184448,461
895.300964,447
895.417419,453
895.533936,442
895.650452,452
895.766907,451
895.883423,466
895.999878,449
896.116333,484
896.232849,463
896.349304,470
896.465759,455
896.582214,441
896.698669,462
896.815125,444
896.931641,462
897.048035,465
897.164551,467
897.280884,460
897.397339,470
897.513794,464
897.630249,471
897.746582,448
897.863098,470
897.979431,463
898.095886,460
898.212341,451
898.328674,444
898.445129,464
898.561462,475
898.677795,453
898.794312,447
898.910645,449
899.026978,464
899.143433,458
899.259766,459
899.37616,467
899.492493,466
899.608765,466
899.725159,446
899.841553,460
899.957947,461
900.07428,473
900.190552,473
900.306946,438
900.423157,463
900.53949,451
900.655884,461
900.772156,459
900.888489,456
901.004822,450
901.121033,458
901.237366,437
901.353699,460
901.46991,448
901.586304,463
901.702515,461
901.818787,482
901.93512,465
902.051331,465
902.167603,466
902.283875,464
902.400085,481
902.516418,473
902.632629,460
902.74884,465
902.865112,478
902.981384,476
903.097595,476
903.213867,461
903.330017,456
903.446289,476
903.5625,460
903.67865,472
903.794922,468
903.911072,483
904.027344,453
904.143494,466
904.259705,471
904.375916,460
904.492065,479
904.608215,471
904.724426,462
904.840576,465
904.956726,462
905.072876,457
905.189087,446
905.305176,479
905.421387,470
905.537537,467
905.653687,461
905.769775,464
905.885925,464
906.002014,458
906.118164,466
906.234314,482
906.350403,431
906.466492,457
906.582642,475
906.69873,463
906.814758,489
906.930908,463
907.046936,481
907.163086,477
907.279175,477
907.395264,488
907.511353,461
907.62738,473
907.743408,451
907.859497,476
907.975525,479
908.091553,470
908.207703,456
908.32373,461
908.439758,458
908.555786,484
908.671814,461
908.787842,461
908.90387,452
909.019775,454
909.135864,462
909.251892,463
909.367859,456
909.483826,464
909.599854,468
909.715881,470
909.831848,472
909.947815,459
910.063782,466
910.179749,479
910.295776,453
910.411743,469
910.527649,452
910.643616,455
910.759583,456
910.875488,469
910.991455,465
911.107361,482
911.223267,455
911.339294,470
911.4552,457
911.571106,456
911.687073,471
911.802979,478
911.918823,462
912.034729,476
912.150635,450
912.266602,478
912.382446,464
912.498352,459
912.614197,472
912.730103,476
912.846008,448
792.44574,591
792.56488,670
792.68396,696
792.80304,669
792.92218,601
793.041199,598
793.160339,595
793.279419,598
793.398499,608
793.517578,596
793.636658,597
793.755737,592
793.874817,629
793.993896,638
794.112976,592
794.232056,584
794.351074,593
794.470215,610
794.589233,581
794.708313,585
794.827393,584
794.946411,589
795.065552,592
795.18457,599
795.303589,588
795.422668,578
795.541687,582
795.660767,579
795.779846,565
795.898865,581
796.017883,602
796.136963,590
796.255981,606
796.375061,600
796.49408,599
796.613037,610
796.732117,584
796.851135,602
796.970154,570
797.089233,560
797.208191,591
797.327271,596
797.446228,548
797.565186,583
797.684265,571
797.803223,576
797.922241,586
798.04126,600
798.160278,594
798.279297,584
798.398315,587
798.517273,595
798.636292,592
798.75531,578
798.874268,567
798.993286,582
799.112244,568
799.231323,583
799.350281,606
799.469238,592
799.588257,573
799.707153,596
799.826111,595
799.945129,559
800.064087,557
800.183044,596
800.302063,593
800.421021,594
800.539978,585
800.658936,590
800.777893,585
800.896912,571
801.015747,596
801.134705,562
801.253723,575
801.37262,602
801.491638,574
801.610535,571
801.729492,569
801.84845,581
801.967407,564
802.086243,591
802.205261,583
802.324158,589
802.443115,576
802.562073,612
802.680969,563
802.799927,611
802.918762,600
803.037659,589
803.156677,581
803.275574,583
803.39447,600
803.513428,598
803.632263,578
803.751221,604
803.870117,592
803.989014,606
804.107971,625
804.226746,601
804.345642,611
804.4646,604
804.583496,613
804.702393,602
804.821228,594
804.940125,599
805.059021,615
805.177917,608
805.296814,624
805.415649,617
805.534546,596
805.653442,634
805.772278,604
805.891113,586
806.01001,605
806.128906,624
806.247742,621
806.366577,631
806.485413,602
806.604309,610
806.723145,621
806.84198,616
806.960876,628
807.079712,598
807.198486,636
807.317383,612
807.436218,606
807.554993,630
807.673889,619
807.792725,601
807.91156,604
808.030396,616
808.14917,589
808.268005,634
808.386841,596
808.505676,633
808.624451,599
808.743286,626
808.862122,609
808.980896,620
809.099731,623
809.218506,623
809.337341,620
809.456116,636
809.57489,605
809.693726,620
809.8125,642
809.931274,624
810.050049,628
810.168884,621
810.287659,647
810.406372,643
810.525269,618
810.643982,612
810.762756,633
810.881531,626
811.000305,608
811.11908,606
811.237854,623
811.356567,631
811.475403,621
811.594116,637
811.71283,633
811.831604,656
811.950378,649
812.069153,598
812.187927,648
812.30658,642
812.425415,649
812.544128,616
812.662781,646
812.781616,642
812.900269,636
813.019043,637
813.137756,614
813.256531,663
813.375244,628
813.493896,637
813.612671,616
813.731384,631
813.850037,606
813.96875,628
814.087524,625
814.206238,631
814.324951,605
814.443604,654
814.562256,615
814.68103,628
814.799683,612
814.918335,613
815.037109,601
815.155762,623
815.274475,622
815.393188,599
815.511841,609
815.630554,626
815.749146,623
815.867859,604
815.986572,616
816.105164,572
816.223877,590
816.342529,626
816.461182,628
816.579895,634
816.698486,613
816.817139,599
816.935791,606
817.054504,633
817.173096,609
817.291748,621
817.4104,606
817.529053,607
817.647644,597
817.766235,598
817.884949,573
818.00354,582
818.122192,564
818.240845,583
818.359436,564
818.478088,554
818.59668,543
818.715271,526
818.833923,539
818.952515,545
819.071106,527
819.189758,518
819.30835,507
819.426941,540
819.545532,504
819.664124,503
819.782715,514
819.901306,500
820.019897,498
820.138489,490
820.25708,483
820.375671,488
820.494202,486
820.612732,501
820.731384,493
820.849915,484
820.968506,496
821.087097,470
821.205627,497
821.324158,486
821.442749,490
821.561279,494
821.679871,481
821.798401,483
821.916931,490
822.035461,477
822.154053,502
822.272583,487
822.391174,475
822.509583,476
822.628174,486
822.746704,478
822.865234,491
822.983765,468
823.102295,475
823.220825,474
823.339294,476
823.457825,484
823.576355,476
823.694824,492
823.813354,487
823.931885,490
824.050354,497
824.168884,471
824.287354,497
824.405823,490
824.524353,495
824.642822,497
824.761353,503
824.879822,487
824.998291,483
825.116699,476
825.235291,482
825.353699,495
825.472168,484
825.590637,469
825.709106,481
825.827576,457
825.946045,468
826.064453,481
826.182983,451
826.301392,492
826.4198,460
826.53833,466
826.656738,470
826.775208,471
826.893677,462
827.012024,454
827.130493,475
827.248962,472
827.36731,466
827.485779,454
827.604248,492
827.722595,470
827.841064,459
827.959412,469
828.077942,468
828.196289,445
828.314636,470
828.433105,464
828.551514,462
828.669861,473
828.78833,474
828.906677,451
829.025085,465
829.143433,447
829.261841,466
829.38031,462
829.498657,458
829.617004,463
829.735413,468
829.85376,455
829.972107,458
830.090515,460
830.208862,471
830.327209,448
830.445557,467
830.563904,450
830.682312,486
830.800659,462
830.919006,445
831.037354,455
831.155701,469
831.274048,456
831.392395,450
831.51062,471
831.629028,472
831.747314,454
831.865662,476
831.984009,443
832.102356,456
832.220642,456
832.338928,468
832.457275,464
832.575623,482
832.693909,453
832.812134,468
832.930481,458
833.048828,469
833.167114,448
833.2854,452
833.403687,453
833.521973,459
833.640259,456
833.758545,456
833.876831,457
833.995056,471
834.113281,463
834.231628,473
834.349915,446
834.468201,464
834.586426,437
834.704651,472
834.822998,467
834.941162,473
835.059448,463
835.177673,475
835.295959,465
835.414246,440
835.53241,474
835.650635,445
835.768921,485
835.887146,447
836.005371,465
836.123596,454
836.241821,468
836.360046,454
836.478271,476
836.596497,465
836.714722,469
836.832886,468
836.95105,486
837.069336,476
837.1875,462
837.305725,497
837.423889,470
837.542053,478
837.660339,494
837.778503,469
837.896667,471
838.014832,472
838.132996,476
838.25116,477
838.369385,490
838.487488,479
838.605713,488
838.723877,475
838.84198,449
838.960205,497
839.078308,467
839.196472,476
839.314636,471
839.4328,456
839.550964,476
839.669067,480
839.787231,471
839.905396,464
840.023499,467
840.141602,463
840.259766,478
840.377869,456
840.495972,454
840.614136,454
840.732239,445
840.850342,459
840.968445,448
841.086548,449
841.204651,474
841.322754,469
841.440918,450
841.55896,453
841.677002,465
841.795166,451
841.913208,441
842.031311,475
842.149353,457
842.267456,461
842.385498,468
842.503601,446
842.621643,450
842.739746,444
842.857788,458
842.97583,437
843.093933,457
843.211975,454
843.330017,441
843.44812,469
843.566101,453
843.684204,444
843.802246,438
843.920227,466
844.038269,447
844.156311,440
844.274292,481
844.392395,456
844.510376,436
844.628357,458
844.74646,462
844.864441,470
844.982422,471
845.100403,440
845.218384,445
845.336426,450
845.454468,449
845.572449,461
845.69043,440
845.808411,448
845.926453,438
846.044373,429
846.162354,458
846.280396,429
846.398315,458
846.516296,440
846.634216,467
846.752197,435
846.870178,463
846.988098,454
847.106079,447
847.22406,449
847.34198,443
847.4599,436
847.577881,448
847.695801,455
847.813782,477
847.931641,432
848.049561,454
848.167603,445
848.285461,437
848.403381,446
848.521362,446
848.639221,443
848.75708,436
848.875,449
848.99292,461
849.110901,437
849.22876,438
849.34668,445
849.464539,442
849.582458,445
849.700317,453
849.818176,460
849.936096,455
850.053955,447
850.171875,448
850.289673,467
850.407593,446
850.525452,452
850.643311,443
850.761169,448
850.878967,447
850.996887,452
851.114746,455
851.232544,462
851.350403,436
851.468262,453
851.58606,435
851.703979,477
851.821777,452
851.939636,441
852.057434,465
852.175232,454
852.293091,451
852.410889,428
852.528687,455
852.646545,440
852.764343,461
852.88208,461
852.999939,451
853.117676,457
853.235535,448
853.353271,448
853.471069,448
853.588928,440
853.706604,456
853.824402,439
853.9422,452
854.059998,429
854.177734,466
854.295532,439
854.413269,449
854.531006,452
854.648804,453
854.766541,439
854.884277,471
855.002014,453
855.119751,454
855.237549,438
855.355225,448
855.473022,449
855.590698,463
855.708435,448
855.826172,441
855.943848,476
856.061646,477
856.179321,446
856.296997,467
856.414795,467
856.53241,455
856.650085,436
856.767822,465
856.885559,441
857.003174,440
857.120911,457
857.238586,447
857.356201,455
857.473938,462
857.591614,461
857.709351,463
857.826965,463
857.944641,457
858.062317,446
858.179993,475
858.297668,477
858.415283,460
858.532959,453
858.650574,444
858.768188,456
858.885803,466
859.003479,465
859.121094,460
859.23877,466
859.356384,465
859.473999,448
859.591675,463
859.709229,458
859.826843,440
859.944458,444
860.062012,464
860.179626,448
860.297302,455
860.414856,433
860.532471,453
860.650024,454
860.767639,449
860.885193,450
861.002808,461
861.120361,452
861.237976,464
861.35553,457
861.473022,429
861.590698,449
861.708191,439
861.825745,439
861.943298,441
862.060852,459
862.178406,438
862.295959,449
862.413513,472
862.531006,430
862.64856,471
862.766113,444
862.883667,457
863.00116,432
863.118713,466
863.236206,449
863.353699,454
863.471252,447
863.588745,468
863.706177,468
863.82373,463
863.941162,444
864.058716,462
864.176208,462
864.29364,474
864.411194,448
864.528687,449
864.646118,439
864.763611,459
864.881042,476
864.998535,446
865.116028,450
865.233459,434
865.350891,442
865.468384,453
865.585754,459
865.703308,463
865.820679,447
865.938171,484
866.055542,460
866.173035,447
866.290466,460
866.407837,445
866.52533,439
866.6427,440
866.760071,443
866.877563,472
866.994934,456
867.112305,448
867.229736,451
867.347107,463
867.464539,446
867.58197,448
867.699341,459
867.81665,454
867.934082,458
868.051453,443
868.168823,467
868.286194,463
868.403564,443
868.520935,470
868.638306,459
868.755676,458
868.872986,467
868.990295,460
869.107727,443
869.225037,460
869.342346,447
869.459717,457
869.577026,464
869.694336,449
869.811707,449
869.929016,458
870.046326,445
870.163635,463
870.280945,436
870.398254,455
870.515564,455
870.632812,457
870.750183,460
870.867432,463
870.984741,439
871.102051,466
871.219299,465
871.336609,458
871.453918,468
871.571106,468
871.688416,439
871.805664,454
871.922852,449
872.040222,454
872.157471,466
872.274719,449
872.391968,453
872.509155,447
872.626465,449
872.743652,460
872.860962,460
872.978149,446
873.095337,451
873.212646,457
873.329834,449
873.44696,457
873.564209,442
873.681396,465
873.798645,435
873.915894,440
874.03302,444
874.150208,462
874.267456,452
874.384583,435
874.501831,454
874.618958,443
874.736145,464
874.853333,440
874.970459,446
875.087646,461
875.204834,478
875.32196,449
875.439148,445
875.556274,452
875.673401,444
875.790527,457
875.907715,453
876.024841,456
876.141968,444
876.259094,443
876.376282,455
876.493347,465
876.610474,457
876.7276,475
876.844727,455
876.961853,460
877.078918,453
877.195984,463
877.313171,453
877.430237,425
877.547302,464
877.664368,440
877.781433,435
877.898499,461
878.015625,461
878.13269,438
878.249695,449
878.366821,467
878.483887,448
878.600952,457
878.717957,447
878.834961,465
878.952087,450
879.069092,459
879.186157,453
879.303162,458
879.420227,447
879.537231,465
879.654236,458
879.77124,451
879.888306,450
880.005249,448
880.122314,474
880.239319,443
880.356323,462
880.473328,457
880.590271,441
880.707275,453
880.824341,444
880.941284,438
881.058228,455
881.175232,433
881.292236,466
881.40918,473
881.526123,441
881.643066,451
881.760071,443
881.877014,449
881.993958,451
882.11084,462
882.227783,481
882.344727,444
882.46167,465
882.578613,443
882.695618,433
882.812439,445
882.929382,462
883.046326,438
883.163208,463
883.280151,456
883.397034,447
883.513916,464
883.630798,454
883.747742,444
883.864563,441
883.981506,457
884.098389,450
884.21521,475
884.332153,444
884.448975,451
884.565796,459
884.682678,455
884.7995,451
884.916443,462
885.033264,455
885.150085,440
885.266968,453
885.383789,486
885.500671,462
885.617493,448
885.734314,446
885.851196,437
885.967896,437
886.084717,461
886.201599,437
886.318359,453
886.435181,443
886.552002,450
886.668762,446
886.785645,451
886.902344,476
887.019165,456
887.135925,462
887.252747,460
887.369446,444
887.486267,453
887.603027,437
887.719788,481
887.836548,445
887.953247,470
888.070068,466
888.186829,478
888.303528,453
888.420288,465
888.536987,439
888.653687,458
888.770447,456
888.887146,455
889.003967,468
889.120667,456
889.237305,470
889.354065,459
889.470703,444
889.587463,463
889.704163,465
889.820862,436
889.937561,460
890.054199,451
890.170837,468
890.287598,454
890.404236,462
890.520874,461
890.637634,453
890.754211,484
890.87085,469
890.987549,444
891.104187,449
891.220886,458
891.337463,438
891.454102,481
891.57074,462
891.687378,482
891.804077,458
891.920654,453
892.037231,443
892.15387,458
892.270447,451
892.387085,463
892.503723,470
892.6203,476
892.736877,444
892.853516,455
892.970032,456
893.08667,459
893.203186,457
893.319763,466
893.43634,452
893.552917,457
893.669556,453
893.786011,465
893.902588,468
894.019165,457
894.135681,471
894.252197,471
894.368835,450
894.485291,465
894.601868,453
894.718384,477
894.8349,453
894.951355,450
895.067932,446
895.184448,454
895.300964,445
895.417419,462
895.533936,448
895.650452,466
895.766907,460
895.883423,474
895.999878,461
896.116333,463
896.232849,449
896.349304,463
896.465759,466
896.582214,461
896.698669,449
896.815125,469
896.931641,468
897.048035,482
897.164551,454
897.280884,460
897.397339,445
897.513794,466
897.630249,451
897.746582,469
897.863098,444
897.979431,470
898.095886,447
898.212341,469
898.328674,468
898.445129,459
898.561462,482
898.677795,465
898.794312,455
898.910645,452
899.026978,473
899.143433,478
899.259766,440
899.37616,464
899.492493,464
899.608765,464
899.725159,468
899.841553,466
899.957947,466
900.07428,466
900.190552,458
900.306946,473
900.423157,475
900.53949,451
900.655884,453
900.772156,487
900.888489,479
901.004822,468
901.121033,449
901.237366,458
901.353699,458
901.46991,450
901.586304,455
901.702515,449
901.818787,479
901.93512,484
902.051331,472
902.167603,470
902.283875,470
902.400085,471
902.516418,480
902.632629,443
902.74884,454
902.865112,465
902.981384,481
903.097595,459
903.213867,454
903.330017,455
903.446289,462
903.5625,471
903.67865,474
903.794922,458
903.911072,469
904.027344,460
904.143494,474
904.259705,473
904.375916,464
904.492065,471
904.608215,467
904.724426,461
904.840576,475
904.956726,473
905.072876,449
905.189087,458
905.305176,472
905.421387,482
905.537537,449
905.653687,460
905.769775,488
905.885925,463
906.002014,463
906.118164,455
906.234314,464
906.350403,471
906.466492,478
906.582642,476
906.69873,447
906.814758,477
906.930908,463
907.046936,470
907.163086,463
907.279175,481
907.395264,465
907.511353,482
907.62738,449
907.743408,472
907.859497,465
907.975525,493
908.091553,485
908.207703,485
908.32373,453
908.439758,485
908.555786,465
908.671814,475
908.787842,462
908.90387,469
909.019775,450
909.135864,470
909.251892,483
909.367859,468
909.483826,463
909.599854,466
909.715881,474
909.831848,482
909.947815,470
910.063782,457
910.179749,447
910.295776,470
910.411743,463
910.527649,471
910.643616,465
910.759583,469
910.875488,467
910.991455,473
911.107361,481
911.223267,481
911.339294,479
911.4552,479
911.571106,487
911.687073,481
911.802979,453
911.918823,481
912.034729,476
912.150635,464
912.266602,477
912.382446,453
912.498352,473
912.614197,459
912.730103,471
912.846008,480
792.44574,614
792.56488,655
792.68396,685
792.80304,654
792.92218,606
793.041199,606
793.160339,608
793.279419,618
793.398499,621
793.517578,636
793.636658,609
793.755737,622
793.874817,597
793.993896,596
794.112976,623
794.232056,603
794.351074,589
794.470215,592
794.589233,586
794.708313,610
794.827393,583
794.946411,585
795.065552,579
795.18457,586
795.303589,596
795.422668,616
795.541687,596
795.660767,597
795.779846,560
795.898865,599
796.017883,579
796.136963,606
796.255981,586
796.375061,586
796.49408,588
796.613037,584
796.732117,608
796.851135,557
796.970154,575
797.089233,542
797.208191,546
797.327271,566
797.446228,582
797.565186,611
797.684265,567
797.803223,590
797.922241,589
798.04126,567
798.160278,572
798.279297,579
798.398315,571
798.517273,580
798.636292,559
798.75531,579
798.874268,580
798.993286,567
799.112244,586
799.231323,580
799.350281,578
799.469238,586
799.588257,575
799.707153,554
799.826111,559
799.945129,582
800.064087,567
800.183044,576
800.302063,583
800.421021,576
800.539978,575
800.658936,587
800.777893,573
800.896912,578
801.015747,571
801.134705,585
801.253723,576
801.37262,603
801.491638,592
801.610535,573
801.729492,579
801.84845,566
801.967407,584
802.086243,567
802.205261,585
802.324158,580
802.443115,598
802.562073,609
802.680969,588
802.799927,589
802.918762,592
803.037659,575
803.156677,577
803.275574,569
803.39447,590
803.513428,596
803.632263,616
803.751221,577
803.870117,611
803.989014,587
804.107971,601
804.226746,604
804.345642,605
804.4646,608
804.583496,603
804.702393,590
804.821228,590
804.940125,621
805.059021,586
805.177917,611
805.296814,607
805.415649,603
805.534546,608
805.653442,585
805.772278,621
805.891113,591
806.01001,621
806.128906,605
806.247742,609
806.366577,621
806.485413,606
806.604309,610
806.723145,616
806.84198,611
806.960876,625
807.079712,630
807.198486,601
807.317383,617
807.436218,616
807.554993,594
807.673889,634
807.792725,609
807.91156,602
808.030396,642
808.14917,636
808.268005,611
808.386841,612
808.505676,610
808.624451,618
808.743286,628
808.862122,626
808.980896,602
809.099731,607
809.218506,627
809.337341,626
809.456116,625
809.57489,646
809.693726,624
809.8125,634
809.931274,631
810.050049,634
810.168884,630
810.287659,639
810.406372,618
810.525269,625
810.643982,628
810.762756,662
810.881531,635
811.000305,631
811.11908,621
811.237854,628
811.356567,632
811.475403,641
811.594116,625
811.71283,614
811.831604,615
811.950378,627
812.069153,618
812.187927,633
812.30658,631
812.425415,623
812.544128,619
812.662781,649
812.781616,619
812.900269,622
813.019043,653
813.137756,612
813.256531,619
813.375244,625
813.493896,621
813.612671,616
813.731384,621
813.850037,604
813.96875,638
814.087524,615
814.206238,615
814.324951,630
814.443604,621
814.562256,616
814.68103,615
814.799683,644
814.918335,626
815.037109,629
815.155762,622
815.274475,617
815.393188,630
815.511841,618
815.630554,629
815.749146,603
815.867859,615
815.986572,598
816.105164,607
816.223877,611
816.342529,615
816.461182,626
816.579895,630
816.698486,611
816.817139,608
816.935791,619
817.054504,636
817.173096,594
817.291748,596
817.4104,614
817.529053,631
817.647644,609
817.766235,618
817.884949,580
818.00354,565
818.122192,570
818.240845,554
818.359436,557
818.478088,555
818.59668,541
818.715271,540
818.833923,531
818.952515,511
819.071106,521
819.189758,517
819.30835,505
819.426941,503
819.545532,489
819.664124,520
819.782715,506
819.901306,536
820.019897,484
820.138489,493
820.25708,496
820.375671,488
820.494202,500
820.612732,493
820.731384,497
820.849915,487
820.968506,482
821.087097,484
821.205627,510
821.324158,465
821.442749,472
821.561279,478
821.679871,508
821.798401,483
821.916931,481
822.035461,501
822.154053,487
822.272583,484
822.391174,474
822.509583,494
822.628174,469
822.746704,472
822.865234,480
822.983765,506
823.102295,493
823.220825,488
823.339294,472
823.457825,483
823.576355,508
823.694824,486
823.813354,489
823.931885,479
824.050354,479
824.168884,490
824.287354,459
824.405823,494
824.524353,458
824.642822,485
824.761353,486
824.879822,493
824.998291,488
825.116699,498
825.235291,482
825.353699,488
825.472168,479
825.590637,471
825.709106,464
825.827576,469
825.946045,483
826.064453,482
826.182983,464
826.301392,465
826.4198,447
826.53833,460
826.656738,479
826.775208,456
826.893677,455
827.012024,473
827.130493,489
827.248962,472
827.36731,456
827.485779,472
827.604248,457
827.722595,468
827.841064,458
827.959412,468
828.077942,462
828.196289,484
828.314636,472
828.433105,469
828.551514,469
828.669861,465
828.78833,440
828.906677,458
829.025085,472
829.143433,466
829.261841,446
829.38031,456
829.498657,468
829.617004,472
829.735413,456
829.85376,481
829.972107,474
830.090515,438
830.208862,460
830.327209,461
830.445557,456
830.563904,457
830.682312,452
830.800659,462
830.919006,480
831.037354,452
831.155701,461
831.274048,476
831.392395,474
831.51062,447
831.629028,446
831.747314,462
831.865662,463
831.984009,456
832.102356,452
832.220642,463
832.338928,449
832.457275,464
832.575623,448
832.693909,454
832.812134,458
832.930481,455
833.048828,466
833.167114,443
833.2854,465
833.403687,437
833.521973,468
833.640259,474
833.758545,457
833.876831,460
833.995056,463
834.113281,463
834.231628,467
834.349915,445
834.468201,473
834.586426,443
834.704651,455
834.822998,483
834.941162,452
835.059448,454
835.177673,474
835.295959,462
835.414246,447
835.53241,446
835.650635,465
835.768921,447
835.887146,464
836.005371,479
836.123596,459
836.241821,491
836.360046,465
836.478271,455
836.596497,481
836.714722,479
836.832886,470
836.95105,483
837.069336,474
837.1875,498
837.305725,459
837.423889,483
837.542053,464
837.660339,458
837.778503,469
837.896667,460
838.014832,480
838.132996,461
838.25116,475
838.369385,472
838.487488,477
838.605713,472
838.723877,467
838.84198,475
838.960205,476
839.078308,465
839.196472,481
839.314636,495
839.4328,457
839.550964,471
839.669067,473
839.787231,475
839.905396,470
840.023499,463
840.141602,468
840.259766,467
840.377869,452
840.495972,482
840.614136,472
840.732239,455
840.850342,472
840.968445,457
841.086548,470
841.204651,458
841.322754,453
841.440918,454
841.55896,475
841.677002,458
841.795166,462
841.913208,472
842.031311,451
842.149353,465
842.267456,452
842.385498,446
842.503601,455
842.621643,455
842.739746,457
842.857788,444
842.97583,448
843.093933,455
843.211975,456
843.330017,480
843.44812,446
843.566101,465
843.684204,435
843.802246,436
843.920227,448
844.038269,463
844.156311,438
844.274292,441
844.392395,447
844.510376,441
844.628357,457
844.74646,447
844.864441,446
844.982422,451
845.100403,450
845.218384,448
845.336426,451
845.454468,450
845.572449,443
845.69043,438
845.808411,447
845.926453,448
846.044373,457
846.162354,451
846.280396,455
846.398315,452
846.516296,441
846.634216,456
846.752197,461
846.870178,457
846.988098,457
847.106079,440
847.22406,437
847.34198,433
847.4599,455
847.577881,469
847.695801,455
847.813782,453
847.931641,453
848.049561,453
848.167603,453
848.285461,442
848.403381,455
848.521362,440
848.639221,443
848.75708,446
848.875,433
848.99292,444
849.110901,426
849.22876,455
849.34668,446
849.464539,444
849.582458,431
849.700317,458
849.818176,450
849.936096,458
850.053955,439
850.171875,462
850.289673,448
850.407593,449
850.525452,460
850.643311,448
850.761169,447
850.878967,428
850.996887,460
851.114746,472
851.232544,440
851.350403,445
851.468262,456
851.58606,459
851.703979,457
851.821777,459
851.939636,445
852.057434,442
852.175232,462
852.293091,438
852.410889,460
852.528687,438
852.646545,470
852.764343,449
852.88208,451
852.999939,452
853.117676,470
853.235535,455
853.353271,443
853.471069,456
853.588928,469
853.706604,471
853.824402,449
853.9422,452
854.059998,438
854.177734,451
854.295532,437
854.413269,460
854.531006,439
854.648804,450
854.766541,448
854.884277,457
855.002014,447
855.119751,456
855.237549,450
855.355225,450
855.473022,445
855.590698,455
855.708435,462
855.826172,461
855.943848,446
856.061646,456
856.179321,455
856.296997,470
856.414795,454
856.53241,436
856.650085,445
856.767822,454
856.885559,455
857.003174,462
857.120911,436
857.238586,458
857.356201,444
857.473938,453
857.591614,456
857.709351,460
857.826965,445
857.944641,458
858.062317,457
858.179993,450
858.297668,451
858.415283,466
858.532959,447
858.650574,467
858.768188,452
858.885803,457
859.003479,463
859.121094,444
859.23877,455
859.356384,440
859.473999,446
859.591675,461
859.709229,469
859.826843,438
859.944458,460
860.062012,450
860.179626,464
860.297302,453
860.414856,450
860.532471,441
860.650024,443
860.767639,449
860.885193,438
861.002808,451
861.120361,459
861.237976,462
861.35553,445
861.473022,442
861.590698,432
861.708191,448
861.825745,464
861.943298,440
862.060852,455
862.178406,461
862.295959,441
862.413513,464
862.531006,444
862.64856,449
862.766113,461
862.883667,452
863.00116,464
863.118713,454
863.236206,458
863.353699,443
863.471252,460
863.588745,469
863.706177,439
863.82373,459
863.941162,464
864.058716,448
864.176208,435
864.29364,473
864.411194,440
864.528687,463
864.646118,448
864.763611,460
864.881042,461
864.998535,451
865.116028,449
865.233459,476
865.350891,453
865.468384,437
865.585754,456
865.703308,443
865.820679,459
865.938171,458
866.055542,456
866.173035,462
866.290466,468
866.407837,457
866.52533,454
866.6427,467
866.760071,463
866.877563,454
866.994934,463
867.112305,459
867.229736,456
867.347107,437
867.464539,454
867.58197,462
867.699341,465
867.81665,456
867.934082,446
868.051453,465
868.168823,440
868.286194,440
868.403564,449
868.520935,466
868.638306,441
868.755676,457
868.872986,453
868.990295,458
869.107727,469
869.225037,454
869.342346,476
869.459717,473
869.577026,449
869.694336,460
869.811707,456
869.929016,450
870.046326,470
870.163635,469
870.280945,437
870.398254,465
870.515564,459
870.632812,470
870.750183,456
870.867432,430
870.984741,467
871.102051,438
871.219299,427
871.336609,450
871.453918,467
871.571106,444
871.688416,446
871.805664,444
871.922852,442
872.040222,454
872.157471,451
872.274719,448
872.391968,445
872.509155,446
872.626465,453
872.743652,447
872.860962,449
872.978149,455
873.095337,458
873.212646,464
873.329834,461
873.44696,475
873.564209,443
873.681396,436
873.798645,453
873.915894,454
874.03302,452
874.150208,459
874.267456,462
874.384583,450
874.501831,452
874.618958,448
874.736145,450
874.853333,457
874.970459,438
875.087646,463
875.204834,458
875.32196,435
875.439148,456
875.556274,453
875.673401,455
875.790527,443
875.907715,454
876.024841,443
876.141968,442
876.259094,449
876.376282,444
876.493347,463
876.610474,461
876.7276,432
876.844727,446
876.961853,478
877.078918,444
877.195984,445
877.313171,450
877.430237,442
877.547302,444
877.664368,450
877.781433,443
877.898499,449
878.015625,450
878.13269,466
878.249695,456
878.366821,449
878.483887,454
878.600952,446
878.717957,453
878.834961,470
878.952087,428
879.069092,454
879.186157,459
879.303162,475
879.420227,446
879.537231,446
879.654236,456
879.77124,462
879.888306,466
880.005249,451
880.122314,446
880.239319,455
880.356323,448
880.473328,434
880.590271,448
880.707275,466
880.824341,421
880.941284,434
881.058228,460
881.175232,457
881.292236,450
881.40918,449
881.526123,460
881.643066,451
881.760071,446
881.877014,468
881.993958,439
882.11084,459
882.227783,468
882.344727,460
882.46167,451
882.578613,458
882.695618,450
882.812439,440
882.929382,463
883.046326,433
883.163208,441
883.280151,461
883.397034,449
883.513916,461
883.630798,460
883.747742,480
883.864563,453
883.981506,453
884.098389,459
884.21521,453
884.332153,470
884.448975,457
884.565796,441
884.682678,455
884.7995,472
884.916443,448
885.033264,466
885.150085,461
885.266968,457
885.383789,474
885.500671,469
885.617493,466
885.734314,467
885.851196,471
885.967896,448
886.084717,464
886.201599,469
886.318359,454
886.435181,445
886.552002,453
886.668762,464
886.785645,451
886.902344,457
887.019165,453
887.135925,448
887.252747,461
887.369446,444
887.486267,455
887.603027,447
887.719788,453
887.836548,449
887.953247,457
888.070068,455
888.186829,474
888.303528,477
888.420288,464
888.536987,452
888.653687,462
888.770447,462
888.887146,461
889.003967,459
889.120667,459
889.237305,451
889.354065,472
889.470703,452
889.587463,468
889.704163,467
889.820862,459
889.937561,458
890.054199,467
890.170837,455
890.287598,455
890.404236,458
890.520874,452
890.637634,453
890.754211,470
890.87085,475
890.987549,460
891.104187,454
891.220886,470
891.337463,441
891.454102,469
891.57074,449
891.687378,461
891.804077,465
891.920654,453
892.037231,449
892.15387,471
892.270447,461
892.387085,465
892.503723,456
892.6203,459
892.736877,464
892.853516,457
892.970032,445
893.08667,467
893.203186,483
893.319763,467
893.43634,464
893.552917,465
893.669556,458
893.786011,449
893.902588,463
894.019165,445
894.135681,474
894.252197,453
894.368835,459
894.485291,459
894.601868,464
894.718384,477
894.8349,471
894.951355,452
895.067932,469
895.184448,455
895.300964,442
895.417419,450
895.533936,452
895.650452,464
895.766907,455
895.883423,450
895.999878,473
896.116333,471
896.232849,459
896.349304,477
896.465759,462
896.582214,453
896.698669,455
896.815125,473
896.931641,478
897.048035,466
897.164551,469
897.280884,471
897.397339,457
897.513794,466
897.630249,457
897.746582,464
897.863098,459
897.979431,470
898.095886,439
898.212341,480
898.328674,485
898.445129,465
898.561462,479
898.677795,459
898.794312,458
898.910645,469
899.026978,470
899.143433,478
899.259766,461
899.37616,467
899.492493,458
899.608765,453
899.725159,461
899.841553,473
899.957947,480
900.07428,477
900.190552,479
900.306946,450
900.423157,467
900.53949,476
900.655884,452
900.772156,489
900.888489,458
901.004822,475
901.121033,462
901.237366,451
901.353699,470
901.46991,485
901.586304,456
901.702515,452
901.818787,465
901.93512,451
902.051331,460
902.167603,462
902.283875,474
902.400085,491
902.516418,464
902.632629,480
902.74884,462
902.865112,462
902.981384,444
903.097595,469
903.213867,482
903.330017,484
903.446289,459
903.5625,469
903.67865,470
903.794922,481
903.911072,472
904.027344,481
904.143494,456
904.259705,480
904.375916,477
904.492065,464
904.608215,483
904.724426,463
904.840576,486
904.956726,464
905.072876,475
905.189087,479
905.305176,469
905.421387,469
905.537537,472
905.653687,480
905.769775,458
905.885925,477
906.002014,470
906.118164,466
906.234314,478
906.350403,466
906.466492,437
906.582642,480
906.69873,459
906.814758,460
906.930908,474
907.046936,478
907.163086,466
907.279175,467
907.395264,469
907.511353,469
907.62738,456
907.743408,476
907.859497,463
907.975525,471
908.091553,457
908.207703,464
908.32373,460
908.439758,475
908.555786,460
908.671814,487
908.787842,465
908.90387,493
909.019775,460
909.135864,464
909.251892,476
909.367859,458
909.483826,492
909.599854,466
909.715881,459
909.831848,466
909.947815,475
910.063782,452
910.179749,484
910.295776,480
910.411743,465
910.527649,469
910.643616,450
910.759583,476
910.875488,482
910.991455,468
911.107361,461
911.223267,469
911.339294,483
911.4552,492
911.571106,480
911.687073,475
911.802979,490
911.918823,476
912.034729,483
912.150635,481
912.266602,475
912.382446,496
912.498352,448
912.614197,478
912.730103,466
912.846008,480
