792.44574,641
792.56488,678
792.68396,726
792.80304,706
792.92218,625
793.041199,623
793.160339,626
793.279419,642
793.398499,616
793.517578,621
793.636658,592
793.755737,635
793.874817,640
793.993896,633
794.112976,617
794.232056,596
794.351074,603
794.470215,595
794.589233,592
794.708313,604
794.827393,599
794.946411,619
795.065552,604
795.18457,601
795.303589,607
795.422668,604
795.541687,644
795.660767,603
795.779846,616
795.898865,607
796.017883,575
796.136963,618
796.255981,596
796.375061,608
796.49408,611
796.613037,588
796.732117,618
796.851135,578
796.970154,610
797.089233,583
797.208191,608
797.327271,580
797.446228,574
797.565186,596
797.684265,590
797.803223,584
797.922241,582
798.04126,603
798.160278,580
798.279297,582
798.398315,580
798.517273,593
798.636292,583
798.75531,597
798.874268,587
798.993286,588
799.112244,592
799.231323,589
799.350281,598
799.469238,582
799.588257,598
799.707153,566
799.826111,595
799.945129,604
800.064087,590
800.183044,584
800.302063,581
800.421021,601
800.539978,593
800.658936,579
800.777893,571
800.896912,576
801.015747,590
801.134705,582
801.253723,610
801.37262,590
801.491638,592
801.610535,596
801.729492,600
801.84845,588
801.967407,583
802.086243,606
802.205261,595
802.324158,590
802.443115,619
802.562073,602
802.680969,609
802.799927,596
802.918762,609
803.037659,574
803.156677,625
803.275574,584
803.39447,603
803.513428,617
803.632263,618
803.751221,614
803.870117,602
803.989014,609
804.107971,582
804.226746,596
804.345642,645
804.4646,602
804.583496,621
804.702393,604
804.821228,622
804.940125,597
805.059021,602
805.177917,614
805.296814,623
805.415649,627
805.534546,623
805.653442,605
805.772278,584
805.891113,626
806.01001,623
806.128906,623
806.247742,637
806.366577,622
806.485413,612
806.604309,630
806.723145,602
806.84198,629
806.960876,634
807.079712,616
807.198486,620
807.317383,621
807.436218,615
807.554993,622
807.673889,637
807.792725,622
807.91156,639
808.030396,632
808.14917,608
808.268005,604
808.386841,638
808.505676,629
808.624451,636
808.743286,627
808.862122,633
808.980896,616
809.099731,643
809.218506,626
809.337341,665
809.456116,617
809.57489,642
809.693726,634
809.8125,642
809.931274,653
810.050049,614
810.168884,626
810.287659,631
810.406372,631
810.525269,650
810.643982,638
810.762756,667
810.881531,658
811.000305,643
811.11908,630
811.237854,627
811.356567,637
811.475403,641
811.594116,631
811.71283,653
811.831604,637
811.950378,666
812.069153,629
812.187927,627
812.30658,637
812.425415,620
812.544128,645
812.662781,638
812.781616,653
812.900269,636
813.019043,617
813.137756,641
813.256531,639
813.375244,658
813.493896,659
813.612671,637
813.731384,618
813.850037,662
813.96875,626
814.087524,631
814.206238,605
814.324951,644
814.443604,628
814.562256,638
814.68103,642
814.799683,604
814.918335,625
815.037109,629
815.155762,633
815.274475,640
815.393188,634
815.511841,621
815.630554,621
815.749146,624
815.867859,666
815.986572,641
816.105164,605
816.223877,639
816.342529,584
816.461182,656
816.579895,618
816.698486,642
816.817139,632
816.935791,636
817.054504,643
817.173096,627
817.291748,626
817.4104,617
817.529053,583
817.647644,608
817.766235,594
817.884949,592
818.00354,587
818.122192,594
818.240845,588
818.359436,560
818.478088,581
818.59668,546
818.715271,540
818.833923,557
818.952515,532
819.071106,534
819.189758,517
819.30835,502
819.426941,505
819.545532,506
819.664124,493
819.782715,527
819.901306,527
820.019897,520
820.138489,524
820.25708,530
820.375671,506
820.494202,496
820.612732,517
820.731384,499
820.849915,485
820.968506,490
821.087097,493
821.205627,498
821.324158,484
821.442749,500
821.561279,502
821.679871,491
821.798401,484
821.916931,479
822.035461,509
822.154053,480
822.272583,477
822.391174,479
822.509583,497
822.628174,505
822.746704,483
822.865234,483
822.983765,498
823.102295,479
823.220825,478
823.339294,489
823.457825,482
823.576355,481
823.694824,477
823.813354,511
823.931885,500
824.050354,485
824.168884,489
824.287354,497
824.405823,523
824.524353,514
824.642822,504
824.761353,511
824.879822,485
824.998291,502
825.116699,491
825.235291,501
825.353699,509
825.472168,484
825.590637,467
825.709106,487
825.827576,479
825.946045,492
826.064453,478
826.182983,515
826.301392,481
826.4198,467
826.53833,475
826.656738,481
826.775208,463
826.893677,469
827.012024,476
827.130493,467
827.248962,475
827.36731,476
827.485779,459
827.604248,459
827.722595,482
827.841064,437
827.959412,478
828.077942,477
828.196289,467
828.314636,447
828.433105,461
828.551514,471
828.669861,472
828.78833,456
828.906677,458
829.025085,474
829.143433,470
829.261841,477
829.38031,445
829.498657,467
829.617004,478
829.735413,475
829.85376,458
829.972107,475
830.090515,465
830.208862,477
830.327209,474
830.445557,470
830.563904,463
830.682312,456
830.800659,467
830.919006,459
831.037354,437
831.155701,459
831.274048,441
831.392395,464
831.51062,474
831.629028,475
831.747314,459
831.865662,459
831.984009,442
832.102356,478
832.220642,454
832.338928,460
832.457275,451
832.575623,472
832.693909,463
832.812134,476
832.930481,481
833.048828,451
833.167114,481
833.2854,451
833.403687,451
833.521973,471
833.640259,454
833.758545,472
833.876831,443
833.995056,466
834.113281,455
834.231628,470
834.349915,473
834.468201,484
834.586426,461
834.704651,460
834.822998,458
834.941162,473
835.059448,459
835.177673,477
835.295959,456
835.414246,462
835.53241,464
835.650635,479
835.768921,468
835.887146,468
836.005371,463
836.123596,480
836.241821,471
836.360046,481
836.478271,465
836.596497,492
836.714722,489
836.832886,488
836.95105,489
837.069336,483
837.1875,474
837.305725,494
837.423889,470
837.542053,478
837.660339,488
837.778503,479
837.896667,485
838.014832,473
838.132996,460
838.25116,493
838.369385,484
838.487488,477
838.605713,475
838.723877,487
838.84198,470
838.960205,497
839.078308,468
839.196472,474
839.314636,452
839.4328,468
839.550964,488
839.669067,474
839.787231,494
839.905396,499
840.023499,485
840.141602,479
840.259766,468
840.377869,468
840.495972,460
840.614136,459
840.732239,473
840.850342,466
840.968445,470
841.086548,476
841.204651,452
841.322754,462
841.440918,467
841.55896,471
841.677002,483
841.795166,488
841.913208,456
842.031311,453
842.149353,473
842.267456,465
842.385498,483
842.503601,484
842.621643,452
842.739746,455
842.857788,458
842.97583,460
843.093933,470
843.211975,447
843.330017,470
843.44812,465
843.566101,450
843.684204,463
843.802246,451
843.920227,474
844.038269,453
844.156311,451
844.274292,461
844.392395,456
844.510376,465
844.628357,457
844.74646,450
844.864441,460
844.982422,459
845.100403,459
845.218384,456
845.336426,449
845.454468,445
845.572449,463
845.69043,433
845.808411,465
845.926453,453
846.044373,452
846.162354,458
846.280396,451
846.398315,448
846.516296,446
846.634216,451
846.752197,451
846.870178,464
846.988098,449
847.106079,454
847.22406,478
847.34198,434
847.4599,482
847.577881,463
847.695801,464
847.813782,446
847.931641,456
848.049561,449
848.167603,468
848.285461,445
848.403381,453
848.521362,462
848.639221,439
848.75708,445
848.875,454
848.99292,461
849.110901,449
849.22876,446
849.34668,466
849.464539,467
849.582458,453
849.700317,459
849.818176,443
849.936096,476
850.053955,448
850.171875,445
850.289673,447
850.407593,451
850.525452,458
850.643311,455
850.761169,461
850.878967,430
850.996887,452
851.114746,456
851.232544,453
851.350403,458
851.468262,450
851.58606,460
851.703979,458
851.821777,444
851.939636,459
852.057434,456
852.175232,448
852.293091,448
852.410889,453
852.528687,460
852.646545,461
852.764343,479
852.88208,443
852.999939,458
853.117676,450
853.235535,459
853.353271,464
853.471069,467
853.588928,446
853.706604,465
853.824402,451
853.9422,443
854.059998,461
854.177734,449
854.295532,471
854.413269,464
854.531006,455
854.648804,469
854.766541,444
854.884277,441
855.002014,453
855.119751,472
855.237549,460
855.355225,458
855.473022,469
855.590698,454
855.708435,462
855.826172,469
855.943848,476
856.061646,478
856.179321,474
856.296997,463
856.414795,447
856.53241,460
856.650085,468
856.767822,463
856.885559,474
857.003174,464
857.120911,440
857.238586,470
857.356201,467
857.473938,457
857.591614,457
857.709351,453
857.826965,457
857.944641,469
858.062317,474
858.179993,449
858.297668,470
858.415283,459
858.532959,459
858.650574,452
858.768188,467
858.885803,459
859.003479,460
859.121094,447
859.23877,451
859.356384,452
859.473999,465
859.591675,459
859.709229,449
859.826843,455
859.944458,463
860.062012,434
860.179626,454
860.297302,445
860.414856,475
860.532471,453
860.650024,472
860.767639,457
860.885193,456
861.002808,448
861.120361,448
861.237976,443
861.35553,466
861.473022,444
861.590698,471
861.708191,451
861.825745,456
861.943298,458
862.060852,467
862.178406,454
862.295959,461
862.413513,452
862.531006,447
862.64856,460
862.766113,445
862.883667,474
863.00116,464
863.118713,454
863.236206,445
863.353699,455
863.471252,458
863.588745,451
863.706177,461
863.82373,440
863.941162,454
864.058716,472
864.176208,466
864.29364,463
864.411194,457
864.528687,464
864.646118,465
864.763611,465
864.881042,463
864.998535,451
865.116028,463
865.233459,455
865.350891,461
865.468384,455
865.585754,468
865.703308,474
865.820679,464
865.938171,468
866.055542,452
866.173035,470
866.290466,468
866.407837,443
866.52533,468
866.6427,469
866.760071,458
866.877563,461
866.994934,467
867.112305,455
867.229736,455
867.347107,450
867.464539,465
867.58197,472
867.699341,461
867.81665,441
867.934082,449
868.051453,463
868.168823,457
868.286194,471
868.403564,457
868.520935,457
868.638306,476
868.755676,470
868.872986,457
868.990295,461
869.107727,455
869.225037,449
869.342346,470
869.459717,460
869.577026,472
869.694336,448
869.811707,452
869.929016,427
870.046326,448
870.163635,459
870.280945,461
870.398254,462
870.515564,472
870.632812,448
870.750183,467
870.867432,459
870.984741,445
871.102051,456
871.219299,456
871.336609,440
871.453918,451
871.571106,440
871.688416,478
871.805664,464
871.922852,452
872.040222,474
872.157471,435
872.274719,431
872.391968,474
872.509155,449
872.626465,455
872.743652,448
872.860962,448
872.978149,460
873.095337,462
873.212646,448
873.329834,479
873.44696,471
873.564209,443
873.681396,447
873.798645,462
873.915894,458
874.03302,473
874.150208,452
874.267456,448
874.384583,450
874.501831,462
874.618958,430
874.736145,465
874.853333,463
874.970459,488
875.087646,469
875.204834,447
875.32196,445
875.439148,462
875.556274,459
875.673401,463
875.790527,443
875.907715,448
876.024841,448
876.141968,450
876.259094,456
876.376282,467
876.493347,463
876.610474,479
876.7276,456
876.844727,451
876.961853,453
877.078918,438
877.195984,471
877.313171,448
877.430237,476
877.547302,453
877.664368,437
877.781433,446
877.898499,445
878.015625,478
878.13269,454
878.249695,475
878.366821,464
878.483887,458
878.600952,452
878.717957,454
878.834961,450
878.952087,451
879.069092,456
879.186157,442
879.303162,455
879.420227,466
879.537231,477
879.654236,462
879.77124,470
879.888306,482
880.005249,444
880.122314,454
880.239319,456
880.356323,469
880.473328,457
880.590271,469
880.707275,432
880.824341,467
880.941284,445
881.058228,465
881.175232,442
881.292236,441
881.40918,457
881.526123,468
881.643066,481
881.760071,449
881.877014,460
881.993958,445
882.11084,462
882.227783,457
882.344727,463
882.46167,462
882.578613,454
882.695618,468
882.812439,470
882.929382,459
883.046326,445
883.163208,453
883.280151,463
883.397034,465
883.513916,448
883.630798,462
883.747742,463
883.864563,485
883.981506,457
884.098389,464
884.21521,472
884.332153,465
884.448975,449
884.565796,464
884.682678,469
884.7995,466
884.916443,459
885.033264,468
885.150085,480
885.266968,466
885.383789,453
885.500671,473
885.617493,458
885.734314,462
885.851196,457
885.967896,454
886.084717,447
886.201599,463
886.318359,468
886.435181,446
886.552002,457
886.668762,471
886.785645,474
886.902344,473
887.019165,453
887.135925,463
887.252747,453
887.369446,480
887.486267,475
887.603027,476
887.719788,456
887.836548,507
887.953247,467
888.070068,457
888.186829,468
888.303528,468
888.420288,462
888.536987,456
888.653687,464
888.770447,455
888.887146,463
889.003967,456
889.120667,483
889.237305,468
889.354065,459
889.470703,477
889.587463,464
889.704163,459
889.820862,465
889.937561,464
890.054199,456
890.170837,449
890.287598,458
890.404236,482
890.520874,476
890.637634,480
890.754211,455
890.87085,472
890.987549,480
891.104187,463
891.220886,471
891.337463,482
891.454102,486
891.57074,482
891.687378,468
891.804077,492
891.920654,465
892.037231,459
892.15387,482
892.270447,465
892.387085,472
892.503723,464
892.6203,463
892.736877,479
892.853516,450
892.970032,474
893.08667,468
893.203186,466
893.319763,451
893.43634,467
893.552917,450
893.669556,490
893.786011,454
893.902588,476
894.019165,441
894.135681,483
894.252197,482
894.368835,468
894.485291,470
894.601868,484
894.718384,458
894.8349,469
894.951355,469
895.067932,480
895.184448,479
895.300964,467
895.417419,452
895.533936,462
895.650452,473
895.766907,465
895.883423,450
895.999878,477
896.116333,463
896.232849,480
896.349304,470
896.465759,490
896.582214,451
896.698669,464
896.815125,469
896.931641,470
897.048035,460
897.164551,460
897.280884,468
897.397339,481
897.513794,466
897.630249,469
897.746582,494
897.863098,480
897.979431,453
898.095886,477
898.212341,471
898.328674,504
898.445129,470
898.561462,472
898.677795,447
898.794312,493
898.910645,459
899.026978,493
899.143433,455
899.259766,457
899.37616,456
899.492493,472
899.608765,468
899.725159,473
899.841553,458
899.957947,464
900.07428,451
900.190552,453
900.306946,470
900.423157,461
900.53949,466
900.655884,469
900.772156,465
900.888489,484
901.004822,451
901.121033,453
901.237366,457
901.353699,488
901.46991,466
901.586304,477
901.702515,450
901.818787,492
901.93512,478
902.051331,485
902.167603,465
902.283875,488
902.400085,476
902.516418,484
902.632629,460
902.74884,488
902.865112,487
902.981384,482
903.097595,476
903.213867,487
903.330017,475
903.446289,500
903.5625,475
903.67865,471
903.794922,467
903.911072,488
904.027344,483
904.143494,496
904.259705,484
904.375916,467
904.492065,456
904.608215,473
904.724426,468
904.840576,468
904.956726,482
905.072876,460
905.189087,486
905.305176,488
905.421387,468
905.537537,479
905.653687,454
905.769775,482
905.885925,456
906.002014,479
906.118164,465
906.234314,483
906.350403,468
906.466492,454
906.582642,469
906.69873,474
906.814758,479
906.930908,491
907.046936,460
907.163086,478
907.279175,475
907.395264,483
907.511353,482
907.62738,468
907.743408,477
907.859497,482
907.975525,468
908.091553,464
908.207703,458
908.32373,465
908.439758,490
908.555786,483
908.671814,478
908.787842,486
908.90387,463
909.019775,493
909.135864,481
909.251892,491
909.367859,474
909.483826,478
909.599854,494
909.715881,476
909.831848,500
909.947815,484
910.063782,471
910.179749,488
910.295776,480
910.411743,486
910.527649,470
910.643616,480
910.759583,476
910.875488,480
910.991455,459
911.107361,484
911.223267,480
911.339294,480
911.4552,477
911.571106,473
911.687073,461
911.802979,473
911.918823,477
912.034729,488
912.150635,487
912.266602,468
912.382446,471
912.498352,469
912.614197,484
912.730103,465
912.846008,478
792.44574,639
792.56488,674
792.68396,690
792.80304,668
792.92218,622
793.041199,601
793.160339,609
793.279419,629
793.398499,615
793.517578,603
793.636658,611
793.755737,642
793.874817,632
793.993896,654
794.112976,627
794.232056,620
794.351074,595
794.470215,618
794.589233,605
794.708313,600
794.827393,599
794.946411,600
795.065552,590
795.18457,615
795.303589,603
795.422668,614
795.541687,605
795.660767,624
795.779846,608
795.898865,619
796.017883,595
796.136963,605
796.255981,586
796.375061,592
796.49408,588
796.613037,585
796.732117,577
796.851135,596
796.970154,603
797.089233,592
797.208191,599
797.327271,613
797.446228,598
797.565186,601
797.684265,618
797.803223,579
797.922241,581
798.04126,622
798.160278,570
798.279297,593
798.398315,602
798.517273,583
798.636292,581
798.75531,595
798.874268,580
798.993286,599
799.112244,574
799.231323,599
799.350281,589
799.469238,578
799.588257,586
799.707153,593
799.826111,604
799.945129,590
800.064087,568
800.183044,599
800.302063,587
800.421021,595
800.539978,593
800.658936,564
800.777893,590
800.896912,598
801.015747,584
801.134705,600
801.253723,582
801.37262,579
801.491638,596
801.610535,595
801.729492,615
801.84845,597
801.967407,599
802.086243,648
802.205261,590
802.324158,622
802.443115,585
802.562073,609
802.680969,589
802.799927,617
802.918762,610
803.037659,600
803.156677,589
803.275574,594
803.39447,624
803.513428,617
803.632263,626
803.751221,624
803.870117,595
803.989014,620
804.107971,615
804.226746,608
804.345642,607
804.4646,619
804.583496,610
804.702393,620
804.821228,634
804.940125,633
805.059021,618
805.177917,622
805.296814,606
805.415649,617
805.534546,614
805.653442,604
805.772278,609
805.891113,648
806.01001,617
806.128906,628
806.247742,641
806.366577,639
806.485413,627
806.604309,612
806.723145,647
806.84198,613
806.960876,614
807.079712,624
807.198486,640
807.317383,605
807.436218,605
807.554993,620
807.673889,617
807.792725,609
807.91156,651
808.030396,637
808.14917,627
808.268005,611
808.386841,654
808.505676,637
808.624451,629
808.743286,638
808.862122,634
808.980896,663
809.099731,616
809.218506,641
809.337341,642
809.456116,626
809.57489,640
809.693726,653
809.8125,627
809.931274,673
810.050049,656
810.168884,660
810.287659,627
810.406372,640
810.525269,623
810.643982,648
810.762756,617
810.881531,648
811.000305,620
811.11908,641
811.237854,646
811.356567,651
811.475403,644
811.594116,656
811.71283,682
811.831604,620
811.950378,670
812.069153,655
812.187927,639
812.30658,674
812.425415,634
812.544128,660
812.662781,637
812.781616,650
812.900269,627
813.019043,637
813.137756,649
813.256531,655
813.375244,645
813.493896,625
813.612671,644
813.731384,639
813.850037,638
813.96875,619
814.087524,653
814.206238,661
814.324951,655
814.443604,672
814.562256,639
814.68103,648
814.799683,623
814.918335,633
815.037109,648
815.155762,620
815.274475,625
815.393188,616
815.511841,631
815.630554,627
815.749146,616
815.867859,650
815.986572,625
816.105164,636
816.223877,646
816.342529,620
816.461182,628
816.579895,621
816.698486,619
816.817139,620
816.935791,628
817.054504,637
817.173096,612
817.291748,634
817.4104,640
817.529053,636
817.647644,556
817.766235,597
817.884949,586
818.00354,578
818.122192,561
818.240845,569
818.359436,575
818.478088,566
818.59668,567
818.715271,567
818.833923,545
818.952515,524
819.071106,535
819.189758,527
819.30835,521
819.426941,539
819.545532,515
819.664124,517
819.782715,512
819.901306,500
820.019897,497
820.138489,512
820.25708,526
820.375671,493
820.494202,508
820.612732,522
820.731384,505
820.849915,519
820.968506,488
821.087097,512
821.205627,503
821.324158,511
821.442749,489
821.561279,477
821.679871,502
821.798401,491
821.916931,492
822.035461,492
822.154053,490
822.272583,486
822.391174,495
822.509583,478
822.628174,504
822.746704,490
822.865234,478
822.983765,494
823.102295,488
823.220825,485
823.339294,491
823.457825,504
823.576355,502
823.694824,480
823.813354,484
823.931885,483
824.050354,487
824.168884,497
824.287354,501
824.405823,508
824.524353,513
824.642822,521
824.761353,484
824.879822,505
824.998291,518
825.116699,497
825.235291,480
825.353699,475
825.472168,495
825.590637,507
825.709106,474
825.827576,491
825.946045,497
826.064453,497
826.182983,501
826.301392,494
826.4198,483
826.53833,483
826.656738,482
826.775208,488
826.893677,485
827.012024,481
827.130493,483
827.248962,485
827.36731,474
827.485779,487
827.604248,467
827.722595,468
827.841064,481
827.959412,482
828.077942,474
828.196289,472
828.314636,483
828.433105,470
828.551514,472
828.669861,455
828.78833,466
828.906677,460
829.025085,485
829.143433,492
829.261841,466
829.38031,464
829.498657,464
829.617004,465
829.735413,464
829.85376,469
829.972107,488
830.090515,457
830.208862,475
830.327209,483
830.445557,480
830.563904,477
830.682312,454
830.800659,474
830.919006,481
831.037354,468
831.155701,458
831.274048,475
831.392395,459
831.51062,455
831.629028,471
831.747314,457
831.865662,476
831.984009,481
832.102356,468
832.220642,465
832.338928,445
832.457275,469
832.575623,467
832.693909,473
832.812134,465
832.930481,474
833.048828,456
833.167114,466
833.2854,483
833.403687,477
833.521973,450
833.640259,456
833.758545,456
833.876831,484
833.995056,485
834.113281,460
834.231628,485
834.349915,471
834.468201,457
834.586426,480
834.704651,477
834.822998,447
834.941162,473
835.059448,481
835.177673,462
835.295959,467
835.414246,455
835.53241,485
835.650635,480
835.768921,486
835.887146,467
836.005371,477
836.123596,473
836.241821,478
836.360046,471
836.478271,474
836.596497,487
836.714722,459
836.832886,480
836.95105,471
837.069336,486
837.1875,491
837.305725,471
837.423889,482
837.542053,485
837.660339,491
837.778503,490
837.896667,487
838.014832,458
838.132996,478
838.25116,489
838.369385,493
838.487488,487
838.605713,472
838.723877,494
838.84198,473
838.960205,479
839.078308,490
839.196472,464
839.314636,482
839.4328,480
839.550964,469
839.669067,492
839.787231,480
839.905396,490
840.023499,470
840.141602,492
840.259766,480
840.377869,468
840.495972,479
840.614136,465
840.732239,496
840.850342,482
840.968445,483
841.086548,473
841.204651,495
841.322754,482
841.440918,482
841.55896,494
841.677002,466
841.795166,466
841.913208,454
842.031311,452
842.149353,467
842.267456,454
842.385498,468
842.503601,472
842.621643,467
842.739746,458
842.857788,444
842.97583,472
843.093933,441
843.211975,473
843.330017,468
843.44812,446
843.566101,463
843.684204,468
843.802246,466
843.920227,426
844.038269,460
844.156311,464
844.274292,474
844.392395,467
844.510376,456
844.628357,440
844.74646,462
844.864441,455
844.982422,456
845.100403,454
845.218384,468
845.336426,449
845.454468,470
845.572449,455
845.69043,470
845.808411,449
845.926453,463
846.044373,461
846.162354,452
846.280396,464
846.398315,455
846.516296,464
846.634216,475
846.752197,440
846.870178,465
846.988098,445
847.106079,455
847.22406,440
847.34198,458
847.4599,441
847.577881,475
847.695801,459
847.813782,453
847.931641,456
848.049561,462
848.167603,463
848.285461,473
848.403381,457
848.521362,478
848.639221,439
848.75708,453
848.875,454
848.99292,476
849.110901,453
849.22876,456
849.34668,434
849.464539,473
849.582458,435
849.700317,465
849.818176,461
849.936096,437
850.053955,454
850.171875,446
850.289673,448
850.407593,454
850.525452,463
850.643311,466
850.761169,460
850.878967,442
850.996887,449
851.114746,467
851.232544,445
851.350403,443
851.468262,459
851.58606,472
851.703979,445
851.821777,465
851.939636,466
852.057434,458
852.175232,459
852.293091,451
852.410889,462
852.528687,475
852.646545,453
852.764343,471
852.88208,467
852.999939,453
853.117676,445
853.235535,464
853.353271,464
853.471069,470
853.588928,449
853.706604,455
853.824402,452
853.9422,466
854.059998,457
854.177734,474
854.295532,457
854.413269,459
854.531006,475
854.648804,464
854.766541,453
854.884277,451
855.002014,471
855.119751,470
855.237549,472
855.355225,470
855.473022,464
855.590698,448
855.708435,432
855.826172,482
855.943848,443
856.061646,476
856.179321,477
856.296997,468
856.414795,454
856.53241,440
856.650085,475
856.767822,466
856.885559,468
857.003174,463
857.120911,481
857.238586,509
857.356201,468
857.473938,467
857.591614,475
857.709351,464
857.826965,483
857.944641,451
858.062317,451
858.179993,467
858.297668,467
858.415283,477
858.532959,458
858.650574,471
858.768188,462
858.885803,472
859.003479,474
859.121094,461
859.23877,465
859.356384,459
859.473999,460
859.591675,454
859.709229,466
859.826843,475
859.944458,467
860.062012,465
860.179626,457
860.297302,465
860.414856,444
860.532471,442
860.650024,459
860.767639,449
860.885193,461
861.002808,447
861.120361,444
861.237976,464
861.35553,477
861.473022,450
861.590698,468
861.708191,457
861.825745,463
861.943298,460
862.060852,462
862.178406,443
862.295959,446
862.413513,486
862.531006,436
862.64856,454
862.766113,451
862.883667,468
863.00116,472
863.118713,468
863.236206,461
863.353699,450
863.471252,448
863.588745,466
863.706177,456
863.82373,466
863.941162,453
864.058716,465
864.176208,440
864.29364,455
864.411194,457
864.528687,472
864.646118,456
864.763611,431
864.881042,450
864.998535,448
865.116028,472
865.233459,465
865.350891,460
865.468384,459
865.585754,477
865.703308,487
865.820679,477
865.938171,459
866.055542,466
866.173035,471
866.290466,456
866.407837,465
866.52533,458
866.6427,452
866.760071,450
866.877563,460
866.994934,459
867.112305,463
867.229736,477
867.347107,455
867.464539,462
867.58197,474
867.699341,440
867.81665,461
867.934082,431
868.051453,463
868.168823,457
868.286194,441
868.403564,448
868.520935,450
868.638306,469
868.755676,459
868.872986,453
868.990295,459
869.107727,463
869.225037,475
869.342346,470
869.459717,457
869.577026,462
869.694336,456
869.811707,466
869.929016,469
870.046326,472
870.163635,436
870.280945,452
870.398254,449
870.515564,453
870.632812,468
870.750183,447
870.867432,466
870.984741,444
871.102051,464
871.219299,467
871.336609,463
871.453918,475
871.571106,457
871.688416,453
871.805664,453
871.922852,452
872.040222,434
872.157471,442
872.274719,442
872.391968,476
872.509155,474
872.626465,470
872.743652,462
872.860962,467
872.978149,468
873.095337,457
873.212646,471
873.329834,450
873.44696,460
873.564209,440
873.681396,474
873.798645,458
873.915894,473
874.03302,458
874.150208,476
874.267456,452
874.384583,451
874.501831,459
874.618958,464
874.736145,458
874.853333,462
874.970459,467
875.087646,484
875.204834,468
875.32196,451
875.439148,457
875.556274,462
875.673401,465
875.790527,439
875.907715,452
876.024841,470
876.141968,465
876.259094,465
876.376282,474
876.493347,457
876.610474,434
876.7276,471
876.844727,470
876.961853,446
877.078918,469
877.195984,456
877.313171,424
877.430237,479
877.547302,459
877.664368,465
877.781433,442
877.898499,478
878.015625,457
878.13269,449
878.249695,460
878.366821,466
878.483887,454
878.600952,466
878.717957,450
878.834961,454
878.952087,462
879.069092,447
879.186157,464
879.303162,456
879.420227,445
879.537231,467
879.654236,452
879.77124,468
879.888306,451
880.005249,499
880.122314,456
880.239319,441
880.356323,456
880.473328,473
880.590271,460
880.707275,466
880.824341,464
880.941284,478
881.058228,466
881.175232,463
881.292236,445
881.40918,464
881.526123,461
881.643066,463
881.760071,457
881.877014,467
881.993958,470
882.11084,463
882.227783,455
882.344727,472
882.46167,471
882.578613,454
882.695618,455
882.812439,468
882.929382,459
883.046326,463
883.163208,459
883.280151,463
883.397034,470
883.513916,451
883.630798,470
883.747742,471
883.864563,457
883.981506,460
884.098389,475
884.21521,473
884.332153,459
884.448975,462
884.565796,453
884.682678,442
884.7995,459
884.916443,462
885.033264,469
885.150085,470
885.266968,466
885.383789,458
885.500671,461
885.617493,453
885.734314,466
885.851196,482
885.967896,455
886.084717,450
886.201599,462
886.318359,475
886.435181,451
886.552002,482
886.668762,482
886.785645,463
886.902344,470
887.019165,487
887.135925,476
887.252747,484
887.369446,462
887.486267,481
887.603027,464
887.719788,484
887.836548,471
887.953247,471
888.070068,476
888.186829,475
888.303528,455
888.420288,480
888.536987,462
888.653687,465
888.770447,474
888.887146,460
889.003967,470
889.120667,479
889.237305,458
889.354065,472
889.470703,475
889.587463,457
889.704163,466
889.820862,448
889.937561,476
890.054199,477
890.170837,471
890.287598,464
890.404236,471
890.520874,477
890.637634,462
890.754211,457
890.87085,473
890.987549,483
891.104187,484
891.220886,465
891.337463,478
891.454102,481
891.57074,457
891.687378,461
891.804077,479
891.920654,456
892.037231,480
892.15387,469
892.270447,458
892.387085,469
892.503723,484
892.6203,461
892.736877,467
892.853516,481
892.970032,489
893.08667,454
893.203186,460
893.319763,466
893.43634,456
893.552917,448
893.669556,492
893.786011,481
893.902588,472
894.019165,454
894.135681,492
894.252197,484
894.368835,483
894.485291,481
894.601868,476
894.718384,488
894.8349,457
894.951355,486
895.067932,469
895.184448,466
895.300964,449
895.417419,469
895.533936,473
895.650452,457
895.766907,473
895.883423,484
895.999878,478
896.116333,468
896.232849,471
896.349304,471
896.465759,458
896.582214,475
896.698669,484
896.815125,478
896.931641,466
897.048035,467
897.164551,467
897.280884,471
897.397339,455
897.513794,476
897.630249,484
897.746582,487
897.863098,484
897.979431,463
898.095886,484
898.212341,458
898.328674,464
898.445129,479
898.561462,460
898.677795,459
898.794312,455
898.910645,452
899.026978,492
899.143433,480
899.259766,470
899.37616,487
899.492493,481
899.608765,490
899.725159,464
899.841553,473
899.957947,484
900.07428,473
900.190552,481
900.306946,455
900.423157,484
900.53949,474
900.655884,476
900.772156,479
900.888489,481
901.004822,493
901.121033,471
901.237366,492
901.353699,488
901.46991,479
901.586304,454
901.702515,468
901.818787,476
901.93512,479
902.051331,496
902.167603,479
902.283875,482
902.400085,476
902.516418,505
902.632629,484
902.74884,471
902.865112,467
902.981384,468
903.097595,495
903.213867,468
903.330017,476
903.446289,487
903.5625,492
903.67865,487
903.794922,477
903.911072,492
904.027344,480
904.143494,466
904.259705,480
904.375916,464
904.492065,476
904.608215,477
904.724426,462
904.840576,459
904.956726,485
905.072876,464
905.189087,473
905.305176,474
905.421387,496
905.537537,473
905.653687,474
905.769775,478
905.885925,494
906.002014,486
906.118164,466
906.234314,469
906.350403,485
906.466492,469
906.582642,481
906.69873,477
906.814758,482
906.930908,467
907.046936,472
907.163086,489
907.279175,491
907.395264,461
907.511353,460
907.62738,465
907.743408,479
907.859497,517
907.975525,475
908.091553,486
908.207703,476
908.32373,474
908.439758,496
908.555786,455
908.671814,477
908.787842,469
908.90387,491
909.019775,476
909.135864,479
909.251892,471
909.367859,474
909.483826,470
909.599854,478
909.715881,480
909.831848,477
909.947815,486
910.063782,495
910.179749,485
910.295776,499
910.411743,472
910.527649,487
910.643616,475
910.759583,478
910.875488,497
910.991455,485
911.107361,472
911.223267,478
911.339294,474
911.4552,492
911.571106,481
911.687073,475
911.802979,473
911.918823,486
912.034729,477
912.150635,476
912.266602,485
912.382446,487
912.498352,481
912.614197,486
912.730103,472
912.846008,496
792.44574,624
792.56488,681
792.68396,707
792.80304,683
792.92218,631
793.041199,613
793.160339,632
793.279419,642
793.398499,616
793.517578,635
793.636658,615
793.755737,619
793.874817,646
793.993896,623
794.112976,631
794.232056,624
794.351074,610
794.470215,619
794.589233,609
794.708313,603
794.827393,597
794.946411,608
795.065552,630
795.18457,606
795.303589,595
795.422668,597
795.541687,624
795.660767,612
795.779846,609
795.898865,610
796.017883,596
796.136963,597
796.255981,613
796.375061,606
796.49408,601
796.613037,602
796.732117,620
796.851135,592
796.970154,585
797.089233,590
797.208191,603
797.327271,589
797.446228,577
797.565186,591
797.684265,604
797.803223,570
797.922241,594
798.04126,597
798.160278,597
798.279297,580
798.398315,578
798.517273,600
798.636292,584
798.75531,589
798.874268,564
798.993286,584
799.112244,602
799.231323,577
799.350281,568
799.469238,589
799.588257,621
799.707153,601
799.826111,586
799.945129,587
800.064087,597
800.183044,603
800.302063,610
800.421021,597
800.539978,624
800.658936,577
800.777893,570
800.896912,581
801.015747,599
801.134705,569
801.253723,599
801.37262,611
801.491638,588
801.610535,612
801.729492,598
801.84845,609
801.967407,593
802.086243,590
802.205261,622
802.324158,604
802.443115,614
802.562073,615
802.680969,596
802.799927,626
802.918762,606
803.037659,606
803.156677,593
803.275574,626
803.39447,585
803.513428,595
803.632263,593
803.751221,610
803.870117,603
803.989014,598
804.107971,610
804.226746,592
804.345642,619
804.4646,636
804.583496,612
804.702393,620
804.821228,611
804.940125,598
805.059021,632
805.177917,626
805.296814,619
805.415649,641
805.534546,626
805.653442,620
805.772278,618
805.891113,635
806.01001,618
806.128906,623
806.247742,646
806.366577,643
806.485413,646
806.604309,618
806.723145,639
806.84198,621
806.960876,622
807.079712,614
807.198486,622
807.317383,631
807.436218,637
807.554993,608
807.673889,612
807.792725,621
807.91156,635
808.030396,619
808.14917,633
808.268005,635
808.386841,607
808.505676,611
808.624451,644
808.743286,617
808.862122,670
808.980896,645
809.099731,650
809.218506,645
809.337341,627
809.456116,664
809.57489,624
809.693726,647
809.8125,622
809.931274,654
810.050049,621
810.168884,640
810.287659,623
810.406372,634
810.525269,635
810.643982,630
810.762756,638
810.881531,641
811.000305,644
811.11908,628
811.237854,653
811.356567,633
811.475403,656
811.594116,627
811.71283,636
811.831604,616
811.950378,662
812.069153,634
812.187927,647
812.30658,644
812.425415,638
812.544128,641
812.662781,655
812.781616,655
812.900269,661
813.019043,640
813.137756,652
813.256531,597
813.375244,629
813.493896,645
813.612671,654
813.731384,659
813.850037,634
813.96875,622
814.087524,625
814.206238,640
814.324951,648
814.443604,627
814.562256,646
814.68103,614
814.799683,649
814.918335,642
815.037109,669
815.155762,638
815.274475,625
815.393188,627
815.511841,640
815.630554,625
815.749146,617
815.867859,616
815.986572,642
816.105164,613
816.223877,606
816.342529,615
816.461182,634
816.579895,635
816.698486,616
816.817139,630
816.935791,635
817.054504,613
817.173096,620
817.291748,643
817.4104,634
817.529053,634
817.647644,615
817.766235,600
817.884949,592
818.00354,582
818.122192,589
818.240845,560
818.359436,548
818.478088,558
818.59668,542
818.715271,558
818.833923,557
818.952515,553
819.071106,543
819.189758,511
819.30835,518
819.426941,513
819.545532,538
819.664124,537
819.782715,520
819.901306,507
820.019897,509
820.138489,478
820.25708,519
820.375671,511
820.494202,504
820.612732,530
820.731384,495
820.849915,511
820.968506,507
821.087097,499
821.205627,522
821.324158,509
821.442749,491
821.561279,494
821.679871,492
821.798401,477
821.916931,497
822.035461,485
822.154053,480
822.272583,505
822.391174,508
822.509583,503
822.628174,474
822.746704,487
822.865234,506
822.983765,457
823.102295,490
823.220825,497
823.339294,510
823.457825,466
823.576355,491
823.694824,494
823.813354,487
823.931885,516
824.050354,496
824.168884,500
824.287354,512
824.405823,523
824.524353,501
824.642822,513
824.761353,500
824.879822,495
824.998291,526
825.116699,497
825.235291,510
825.353699,480
825.472168,488
825.590637,484
825.709106,491
825.827576,495
825.946045,503
826.064453,470
826.182983,483
826.301392,487
826.4198,502
826.53833,480
826.656738,483
826.775208,492
826.893677,483
827.012024,479
827.130493,486
827.248962,458
827.36731,480
827.485779,457
827.604248,473
827.722595,477
827.841064,456
827.959412,465
828.077942,476
828.196289,455
828.314636,487
828.433105,463
828.551514,465
828.669861,459
828.78833,464
828.906677,482
829.025085,458
829.143433,496
829.261841,474
829.38031,443
829.498657,464
829.617004,464
829.735413,469
829.85376,478
829.972107,471
830.090515,455
830.208862,482
830.327209,480
830.445557,467
830.563904,451
830.682312,480
830.800659,462
830.919006,475
831.037354,471
831.155701,464
831.274048,474
831.392395,475
831.51062,465
831.629028,462
831.747314,456
831.865662,473
831.984009,479
832.102356,472
832.220642,459
832.338928,459
832.457275,475
832.575623,469
832.693909,469
832.812134,466
832.930481,478
833.048828,461
833.167114,475
833.2854,460
833.403687,466
833.521973,462
833.640259,468
833.758545,489
833.876831,476
833.995056,468
834.113281,489
834.231628,483
834.349915,462
834.468201,463
834.586426,459
834.704651,465
834.822998,469
834.941162,461
835.059448,470
835.177673,473
835.295959,456
835.414246,471
835.53241,474
835.650635,467
835.768921,466
835.887146,470
836.005371,473
836.123596,477
836.241821,465
836.360046,476
836.478271,473
836.596497,469
836.714722,476
836.832886,471
836.95105,489
837.069336,492
837.1875,473
837.305725,471
837.423889,466
837.542053,473
837.660339,487
837.778503,494
837.896667,471
838.014832,481
838.132996,479
838.25116,498
838.369385,498
838.487488,470
838.605713,484
838.723877,481
838.84198,462
838.960205,507
839.078308,486
839.196472,473
839.314636,483
839.4328,488
839.550964,453
839.669067,474
839.787231,488
839.905396,493
840.023499,487
840.141602,479
840.259766,485
840.377869,488
840.495972,473
840.614136,481
840.732239,454
840.850342,488
840.968445,478
841.086548,495
841.204651,480
841.322754,471
841.440918,468
841.55896,478
841.677002,470
841.795166,464
841.913208,475
842.031311,466
842.149353,467
842.267456,472
842.385498,467
842.503601,456
842.621643,475
842.739746,474
842.857788,478
842.97583,451
843.093933,449
843.211975,472
843.330017,462
843.44812,490
843.566101,461
843.684204,491
843.802246,449
843.920227,457
844.038269,454
844.156311,457
844.274292,445
844.392395,483
844.510376,462
844.628357,454
844.74646,456
844.864441,458
844.982422,452
845.100403,470
845.218384,447
845.336426,456
845.454468,450
845.572449,460
845.69043,453
845.808411,461
845.926453,446
846.044373,461
846.162354,464
846.280396,464
846.398315,445
846.516296,474
846.634216,469
846.752197,454
846.870178,445
846.988098,458
847.106079,439
847.22406,460
847.34198,446
847.4599,458
847.577881,453
847.695801,458
847.813782,458
847.931641,435
848.049561,453
848.167603,455
848.285461,455
848.403381,473
848.521362,437
848.639221,450
848.75708,453
848.875,459
848.99292,480
849.110901,461
849.22876,436
849.34668,452
849.464539,459
849.582458,471
849.700317,461
849.818176,461
849.936096,462
850.053955,472
850.171875,468
850.289673,467
850.407593,477
850.525452,444
850.643311,448
850.761169,463
850.878967,463
850.996887,462
851.114746,449
851.232544,469
851.350403,428
851.468262,430
851.58606,442
851.703979,457
851.821777,446
851.939636,442
852.057434,486
852.175232,462
852.293091,464
852.410889,458
852.528687,465
852.646545,459
852.764343,463
852.88208,480
852.999939,438
853.117676,467
853.235535,452
853.353271,452
853.471069,460
853.588928,444
853.706604,472
853.824402,474
853.9422,449
854.059998,455
854.177734,457
854.295532,460
854.413269,463
854.531006,463
854.648804,460
854.766541,452
854.884277,459
855.002014,474
855.119751,463
855.237549,478
855.355225,456
855.473022,468
855.590698,493
855.708435,451
855.826172,448
855.943848,475
856.061646,464
856.179321,488
856.296997,449
856.414795,487
856.53241,458
856.650085,475
856.767822,473
856.885559,459
857.003174,474
857.120911,459
857.238586,473
857.356201,472
857.473938,458
857.591614,456
857.709351,471
857.826965,466
857.944641,465
858.062317,447
858.179993,466
858.297668,464
858.415283,463
858.532959,462
858.650574,459
858.768188,463
858.885803,466
859.003479,470
859.121094,454
859.23877,478
859.356384,445
859.473999,475
859.591675,463
859.709229,431
859.826843,457
859.944458,455
860.062012,460
860.179626,461
860.297302,466
860.414856,452
860.532471,460
860.650024,459
860.767639,442
860.885193,456
861.002808,458
861.120361,468
861.237976,468
861.35553,453
861.473022,469
861.590698,469
861.708191,439
861.825745,448
861.943298,473
862.060852,451
862.178406,462
862.295959,467
862.413513,475
862.531006,456
862.64856,432
862.766113,455
862.883667,470
863.00116,453
863.118713,474
863.236206,442
863.353699,447
863.471252,464
863.588745,463
863.706177,474
863.82373,452
863.941162,457
864.058716,468
864.176208,451
864.29364,470
864.411194,461
864.528687,459
864.646118,461
864.763611,471
864.881042,457
864.998535,468
865.116028,443
865.233459,457
865.350891,463
865.468384,484
865.585754,477
865.703308,460
865.820679,471
865.938171,464
866.055542,473
866.173035,458
866.290466,464
866.407837,448
866.52533,463
866.6427,466
866.760071,452
866.877563,448
866.994934,486
867.112305,461
867.229736,460
867.347107,455
867.464539,466
867.58197,451
867.699341,474
867.81665,461
867.934082,463
868.051453,456
868.168823,462
868.286194,456
868.403564,469
868.520935,465
868.638306,476
868.755676,443
868.872986,470
868.990295,470
869.107727,452
869.225037,459
869.342346,475
869.459717,471
869.577026,452
869.694336,459
869.811707,470
869.929016,463
870.046326,470
870.163635,455
870.280945,468
870.398254,471
870.515564,455
870.632812,449
870.750183,478
870.867432,483
870.984741,459
871.102051,464
871.219299,454
871.336609,468
871.453918,472
871.571106,462
871.688416,451
871.805664,456
871.922852,459
872.040222,451
872.157471,462
872.274719,473
872.391968,472
872.509155,466
872.626465,448
872.743652,458
872.860962,481
872.978149,475
873.095337,473
873.212646,455
873.329834,475
873.44696,464
873.564209,452
873.681396,463
873.798645,472
873.915894,470
874.03302,470
874.150208,458
874.267456,475
874.384583,461
874.501831,493
874.618958,455
874.736145,466
874.853333,466
874.970459,431
875.087646,454
875.204834,469
875.32196,471
875.439148,464
875.556274,451
875.673401,452
875.790527,438
875.907715,475
876.024841,447
876.141968,447
876.259094,469
876.376282,469
876.493347,428
876.610474,491
876.7276,451
876.844727,468
876.961853,464
877.078918,450
877.195984,484
877.313171,467
877.430237,445
877.547302,452
877.664368,461
877.781433,454
877.898499,469
878.015625,467
878.13269,451
878.249695,450
878.366821,457
878.483887,451
878.600952,463
878.717957,460
878.834961,449
878.952087,465
879.069092,457
879.186157,459
879.303162,462
879.420227,460
879.537231,478
879.654236,461
879.77124,460
879.888306,437
880.005249,473
880.122314,465
880.239319,469
880.356323,465
880.473328,461
880.590271,467
880.707275,454
880.824341,470
880.941284,457
881.058228,466
881.175232,458
881.292236,454
881.40918,474
881.526123,472
881.643066,451
881.760071,464
881.877014,458
881.993958,455
882.11084,458
882.227783,468
882.344727,464
882.46167,494
882.578613,460
882.695618,474
882.812439,446
882.929382,461
883.046326,463
883.163208,472
883.280151,477
883.397034,459
883.513916,478
883.630798,453
883.747742,461
883.864563,452
883.981506,463
884.098389,456
884.21521,442
884.332153,465
884.448975,462
884.565796,469
884.682678,472
884.7995,456
884.916443,458
885.033264,466
885.150085,453
885.266968,447
885.383789,472
885.500671,478
885.617493,472
885.734314,470
885.851196,477
885.967896,470
886.084717,446
886.201599,436
886.318359,449
886.435181,474
886.552002,470
886.668762,469
886.785645,453
886.902344,466
887.019165,445
887.135925,486
887.252747,468
887.369446,470
887.486267,451
887.603027,473
887.719788,467
887.836548,462
887.953247,466
888.070068,454
888.186829,460
888.303528,468
888.420288,469
888.536987,477
888.653687,493
888.770447,488
888.887146,463
889.003967,471
889.120667,471
889.237305,479
889.354065,468
889.470703,465
889.587463,455
889.704163,474
889.820862,462
889.937561,475
890.054199,490
890.170837,465
890.287598,454
890.404236,462
890.520874,487
890.637634,452
890.754211,462
890.87085,462
890.987549,459
891.104187,464
891.220886,467
891.337463,453
891.454102,451
891.57074,484
891.687378,469
891.804077,470
891.920654,456
892.037231,480
892.15387,448
892.270447,465
892.387085,492
892.503723,474
892.6203,477
892.736877,481
892.853516,448
892.970032,470
893.08667,457
893.203186,478
893.319763,461
893.43634,460
893.552917,453
893.669556,452
893.786011,463
893.902588,477
894.019165,455
894.135681,473
894.252197,477
894.368835,476
894.485291,481
894.601868,482
894.718384,481
894.8349,470
894.951355,433
895.067932,465
895.184448,486
895.300964,460
895.417419,475
895.533936,456
895.650452,453
895.766907,485
895.883423,471
895.999878,488
896.116333,481
896.232849,494
896.349304,472
896.465759,464
896.582214,465
896.698669,482
896.815125,488
896.931641,486
897.048035,468
897.164551,483
897.280884,474
897.397339,485
897.513794,451
897.630249,498
897.746582,473
897.863098,472
897.979431,459
898.095886,473
898.212341,463
898.328674,482
898.445129,473
898.561462,475
898.677795,483
898.794312,472
898.910645,458
899.026978,493
899.143433,470
899.259766,465
899.37616,456
899.492493,483
899.608765,472
899.725159,461
899.841553,475
899.957947,486
900.07428,474
900.190552,467
900.306946,462
900.423157,476
900.53949,468
900.655884,477
900.772156,475
900.888489,478
901.004822,497
901.121033,482
901.237366,481
901.353699,475
901.46991,467
901.586304,472
901.702515,472
901.818787,477
901.93512,485
902.051331,476
902.167603,474
902.283875,480
902.400085,465
902.516418,469
902.632629,466
902.74884,466
902.865112,477
902.981384,467
903.097595,467
903.213867,462
903.330017,460
903.446289,464
903.5625,470
903.67865,469
903.794922,464
903.911072,495
904.027344,480
904.143494,498
904.259705,467
904.375916,502
904.492065,463
904.608215,458
904.724426,465
904.840576,474
904.956726,470
905.072876,492
905.189087,476
905.305176,485
905.421387,477
905.537537,474
905.653687,487
905.769775,483
905.885925,492
906.002014,478
906.118164,474
906.234314,480
906.350403,475
906.466492,474
906.582642,478
906.69873,472
906.814758,479
906.930908,465
907.046936,474
907.163086,493
907.279175,482
907.395264,485
907.511353,482
907.62738,476
907.743408,485
907.859497,483
907.975525,481
908.091553,503
908.207703,473
908.32373,479
908.439758,480
908.555786,499
908.671814,460
908.787842,479
908.90387,475
909.019775,491
909.135864,468
909.251892,476
909.367859,477
909.483826,471
909.599854,482
909.715881,480
909.831848,476
909.947815,471
910.063782,471
910.179749,479
910.295776,483
910.411743,489
910.527649,475
910.643616,496
910.759583,466
910.875488,490
910.991455,458
911.107361,463
911.223267,477
911.339294,499
911.4552,462
911.571106,485
911.687073,468
911.802979,512
911.918823,474
912.034729,518
912.150635,499
912.266602,487
912.382446,486
912.498352,486
912.614197,476
912.730103,491
912.846008,456
