792.44574,677
792.56488,671
792.68396,712
792.80304,691
792.92218,659
793.041199,634
793.160339,629
793.279419,639
793.398499,650
793.517578,611
793.636658,643
793.755737,634
793.874817,630
793.993896,633
794.112976,607
794.232056,627
794.351074,608
794.470215,625
794.589233,607
794.708313,591
794.827393,622
794.946411,601
795.065552,610
795.18457,634
795.303589,586
795.422668,627
795.541687,595
795.660767,591
795.779846,588
795.898865,613
796.017883,594
796.136963,583
796.255981,605
796.375061,578
796.49408,593
796.613037,615
796.732117,588
796.851135,610
796.970154,584
797.089233,581
797.208191,589
797.327271,591
797.446228,591
797.565186,594
797.684265,594
797.803223,598
797.922241,607
798.04126,580
798.160278,591
798.279297,595
798.398315,574
798.517273,585
798.636292,581
798.75531,598
798.874268,564
798.993286,577
799.112244,582
799.231323,577
799.350281,594
799.469238,600
799.588257,578
799.707153,583
799.826111,587
799.945129,586
800.064087,575
800.183044,602
800.302063,591
800.421021,589
800.539978,589
800.658936,557
800.777893,595
800.896912,583
801.015747,587
801.134705,568
801.253723,547
801.37262,562
801.491638,577
801.610535,594
801.729492,570
801.84845,590
801.967407,588
802.086243,595
802.205261,592
802.324158,564
802.443115,562
802.562073,598
802.680969,588
802.799927,590
802.918762,611
803.037659,593
803.156677,617
803.275574,561
803.39447,607
803.513428,587
803.632263,557
803.751221,593
803.870117,598
803.989014,610
804.107971,601
804.226746,593
804.345642,601
804.4646,608
804.583496,576
804.702393,591
804.821228,588
804.940125,649
805.059021,598
805.177917,596
805.296814,587
805.415649,611
805.534546,607
805.653442,603
805.772278,611
805.891113,602
806.01001,613
806.128906,599
806.247742,590
806.366577,620
806.485413,598
806.604309,605
806.723145,584
806.84198,616
806.960876,588
807.079712,612
807.198486,626
807.317383,633
807.436218,622
807.554993,606
807.673889,625
807.792725,586
807.91156,629
808.030396,629
808.14917,615
808.268005,614
808.386841,618
808.505676,631
808.624451,614
808.743286,601
808.862122,610
808.980896,634
809.099731,600
809.218506,613
809.337341,624
809.456116,609
809.57489,621
809.693726,631
809.8125,617
809.931274,612
810.050049,637
810.168884,617
810.287659,630
810.406372,629
810.525269,597
810.643982,623
810.762756,600
810.881531,622
811.000305,632
811.11908,626
811.237854,605
811.356567,626
811.475403,608
811.594116,623
811.71283,639
811.831604,616
811.950378,614
812.069153,613
812.187927,610
812.30658,636
812.425415,632
812.544128,627
812.662781,619
812.781616,595
812.900269,601
813.019043,614
813.137756,633
813.256531,649
813.375244,600
813.493896,620
813.612671,643
813.731384,630
813.850037,614
813.96875,630
814.087524,617
814.206238,606
814.324951,613
814.443604,625
814.562256,642
814.68103,596
814.799683,622
814.918335,614
815.037109,624
815.155762,611
815.274475,621
815.393188,621
815.511841,609
815.630554,612
815.749146,616
815.867859,600
815.986572,604
816.105164,602
816.223877,620
816.342529,590
816.461182,641
816.579895,615
816.698486,615
816.817139,607
816.935791,597
817.054504,592
817.173096,614
817.291748,611
817.4104,617
817.529053,607
817.647644,574
817.766235,584
817.884949,578
818.00354,561
818.122192,553
818.240845,564
818.359436,551
818.478088,540
818.59668,519
818.715271,527
818.833923,525
818.952515,538
819.071106,523
819.189758,513
819.30835,511
819.426941,524
819.545532,497
819.664124,511
819.782715,498
819.901306,495
820.019897,507
820.138489,524
820.25708,499
820.375671,491
820.494202,493
820.612732,503
820.731384,490
820.849915,467
820.968506,509
821.087097,486
821.205627,488
821.324158,498
821.442749,468
821.561279,516
821.679871,500
821.798401,509
821.916931,502
822.035461,502
822.154053,490
822.272583,486
822.391174,495
822.509583,498
822.628174,472
822.746704,488
822.865234,467
822.983765,472
823.102295,475
823.220825,496
823.339294,504
823.457825,464
823.576355,515
823.694824,481
823.813354,495
823.931885,489
824.050354,478
824.168884,483
824.287354,494
824.405823,500
824.524353,495
824.642822,483
824.761353,481
824.879822,474
824.998291,503
825.116699,471
825.235291,460
825.353699,478
825.472168,492
825.590637,467
825.709106,492
825.827576,488
825.946045,490
826.064453,475
826.182983,478
826.301392,493
826.4198,488
826.53833,467
826.656738,443
826.775208,466
826.893677,475
827.012024,467
827.130493,461
827.248962,476
827.36731,458
827.485779,487
827.604248,457
827.722595,496
827.841064,442
827.959412,472
828.077942,468
828.196289,463
828.314636,475
828.433105,478
828.551514,475
828.669861,466
828.78833,462
828.906677,464
829.025085,463
829.143433,459
829.261841,472
829.38031,450
829.498657,453
829.617004,469
829.735413,449
829.85376,466
829.972107,463
830.090515,458
830.208862,464
830.327209,475
830.445557,470
830.563904,467
830.682312,484
830.800659,465
830.919006,465
831.037354,457
831.155701,500
831.274048,445
831.392395,443
831.51062,449
831.629028,458
831.747314,467
831.865662,453
831.984009,458
832.102356,440
832.220642,453
832.338928,452
832.457275,461
832.575623,462
832.693909,463
832.812134,452
832.930481,473
833.048828,494
833.167114,453
833.2854,453
833.403687,461
833.521973,471
833.640259,451
833.758545,458
833.876831,457
833.995056,469
834.113281,469
834.231628,471
834.349915,467
834.468201,451
834.586426,471
834.704651,466
834.822998,473
834.941162,452
835.059448,459
835.177673,446
835.295959,456
835.414246,470
835.53241,464
835.650635,456
835.768921,469
835.887146,461
836.005371,458
836.123596,440
836.241821,467
836.360046,477
836.478271,477
836.596497,460
836.714722,459
836.832886,463
836.95105,455
837.069336,470
837.1875,471
837.305725,486
837.423889,463
837.542053,484
837.660339,470
837.778503,472
837.896667,494
838.014832,477
838.132996,485
838.25116,474
838.369385,481
838.487488,474
838.605713,472
838.723877,478
838.84198,476
838.960205,462
839.078308,452
839.196472,473
839.314636,463
839.4328,469
839.550964,451
839.669067,476
839.787231,503
839.905396,490
840.023499,476
840.141602,464
840.259766,472
840.377869,478
840.495972,482
840.614136,465
840.732239,467
840.850342,470
840.968445,457
841.086548,461
841.204651,486
841.322754,464
841.440918,469
841.55896,437
841.677002,458
841.795166,467
841.913208,448
842.031311,454
842.149353,444
842.267456,449
842.385498,454
842.503601,461
842.621643,453
842.739746,458
842.857788,459
842.97583,464
843.093933,450
843.211975,461
843.330017,470
843.44812,451
843.566101,465
843.684204,447
843.802246,464
843.920227,444
844.038269,434
844.156311,460
844.274292,457
844.392395,465
844.510376,435
844.628357,465
844.74646,461
844.864441,461
844.982422,439
845.100403,455
845.218384,473
845.336426,449
845.454468,477
845.572449,442
845.69043,457
845.808411,443
845.926453,467
846.044373,455
846.162354,441
846.280396,470
846.398315,451
846.516296,447
846.634216,458
846.752197,453
846.870178,456
846.988098,427
847.106079,461
847.22406,436
847.34198,458
847.4599,453
847.577881,458
847.695801,471
847.813782,458
847.931641,468
848.049561,451
848.167603,448
848.285461,456
848.403381,452
848.521362,471
848.639221,453
848.75708,462
848.875,462
848.99292,448
849.110901,451
849.22876,450
849.34668,458
849.464539,455
849.582458,444
849.700317,447
849.818176,435
849.936096,474
850.053955,441
850.171875,467
850.289673,458
850.407593,444
850.525452,477
850.643311,449
850.761169,437
850.878967,451
850.996887,451
851.114746,462
851.232544,456
851.350403,453
851.468262,458
851.58606,444
851.703979,442
851.821777,470
851.939636,456
852.057434,443
852.175232,446
852.293091,447
852.410889,457
852.528687,444
852.646545,452
852.764343,454
852.88208,439
852.999939,456
853.117676,453
853.235535,452
853.353271,462
853.471069,464
853.588928,438
853.706604,465
853.824402,477
853.9422,463
854.059998,463
854.177734,438
854.295532,453
854.413269,453
854.531006,466
854.648804,453
854.766541,430
854.884277,469
855.002014,452
855.119751,442
855.237549,472
855.355225,462
855.473022,449
855.590698,474
855.708435,453
855.826172,489
855.943848,474
856.061646,468
856.179321,449
856.296997,474
856.414795,474
856.53241,473
856.650085,451
856.767822,455
856.885559,458
857.003174,482
857.120911,482
857.238586,463
857.356201,469
857.473938,455
857.591614,459
857.709351,469
857.826965,448
857.944641,476
858.062317,448
858.179993,457
858.297668,465
858.415283,464
858.532959,448
858.650574,457
858.768188,466
858.885803,482
859.003479,449
859.121094,455
859.23877,443
859.356384,472
859.473999,455
859.591675,485
859.709229,464
859.826843,464
859.944458,454
860.062012,448
860.179626,457
860.297302,447
860.414856,429
860.532471,461
860.650024,439
860.767639,465
860.885193,451
861.002808,463
861.120361,467
861.237976,446
861.35553,432
861.473022,455
861.590698,445
861.708191,455
861.825745,477
861.943298,453
862.060852,452
862.178406,465
862.295959,461
862.413513,471
862.531006,438
862.64856,448
862.766113,439
862.883667,453
863.00116,448
863.118713,469
863.236206,459
863.353699,458
863.471252,432
863.588745,451
863.706177,437
863.82373,459
863.941162,455
864.058716,464
864.176208,461
864.29364,452
864.411194,471
864.528687,450
864.646118,449
864.763611,463
864.881042,435
864.998535,458
865.116028,446
865.233459,467
865.350891,443
865.468384,461
865.585754,464
865.703308,464
865.820679,455
865.938171,459
866.055542,470
866.173035,451
866.290466,462
866.407837,445
866.52533,459
866.6427,439
866.760071,451
866.877563,463
866.994934,449
867.112305,449
867.229736,465
867.347107,465
867.464539,445
867.58197,445
867.699341,469
867.81665,463
867.934082,444
868.051453,470
868.168823,448
868.286194,457
868.403564,444
868.520935,482
868.638306,459
868.755676,450
868.872986,450
868.990295,462
869.107727,449
869.225037,453
869.342346,463
869.459717,461
869.577026,460
869.694336,453
869.811707,459
869.929016,460
870.046326,461
870.163635,457
870.280945,455
870.398254,449
870.515564,441
870.632812,459
870.750183,455
870.867432,452
870.984741,469
871.102051,448
871.219299,450
871.336609,449
871.453918,450
871.571106,458
871.688416,462
871.805664,455
871.922852,467
872.040222,457
872.157471,458
872.274719,450
872.391968,467
872.509155,471
872.626465,459
872.743652,449
872.860962,461
872.978149,466
873.095337,446
873.212646,482
873.329834,459
873.44696,467
873.564209,456
873.681396,436
873.798645,432
873.915894,463
874.03302,452
874.150208,467
874.267456,433
874.384583,466
874.501831,437
874.618958,458
874.736145,451
874.853333,454
874.970459,453
875.087646,462
875.204834,448
875.32196,457
875.439148,460
875.556274,456
875.673401,446
875.790527,465
875.907715,448
876.024841,465
876.141968,452
876.259094,451
876.376282,463
876.493347,469
876.610474,444
876.7276,464
876.844727,443
876.961853,463
877.078918,449
877.195984,457
877.313171,450
877.430237,451
877.547302,469
877.664368,454
877.781433,435
877.898499,440
878.015625,434
878.13269,462
878.249695,444
878.366821,477
878.483887,442
878.600952,455
878.717957,460
878.834961,455
878.952087,463
879.069092,461
879.186157,445
879.303162,449
879.420227,466
879.537231,444
879.654236,463
879.77124,466
879.888306,441
880.005249,449
880.122314,462
880.239319,470
880.356323,458
880.473328,441
880.590271,456
880.707275,456
880.824341,442
880.941284,461
881.058228,445
881.175232,452
881.292236,451
881.40918,458
881.526123,436
881.643066,452
881.760071,484
881.877014,454
881.993958,443
882.11084,454
882.227783,455
882.344727,461
882.46167,463
882.578613,457
882.695618,444
882.812439,454
882.929382,449
883.046326,456
883.163208,444
883.280151,442
883.397034,439
883.513916,453
883.630798,461
883.747742,460
883.864563,453
883.981506,447
884.098389,477
884.21521,450
884.332153,467
884.448975,446
884.565796,464
884.682678,482
884.7995,457
884.916443,457
885.033264,450
885.150085,456
885.266968,474
885.383789,474
885.500671,469
885.617493,477
885.734314,464
885.851196,497
885.967896,461
886.084717,475
886.201599,467
886.318359,465
886.435181,462
886.552002,470
886.668762,475
886.785645,456
886.902344,463
887.019165,484
887.135925,466
887.252747,470
887.369446,463
887.486267,462
887.603027,459
887.719788,458
887.836548,465
887.953247,463
888.070068,463
888.186829,468
888.303528,463
888.420288,464
888.536987,447
888.653687,454
888.770447,454
888.887146,449
889.003967,449
889.120667,461
889.237305,468
889.354065,453
889.470703,458
889.587463,459
889.704163,466
889.820862,465
889.937561,454
890.054199,457
890.170837,461
890.287598,446
890.404236,458
890.520874,460
890.637634,464
890.754211,463
890.87085,437
890.987549,458
891.104187,458
891.220886,473
891.337463,445
891.454102,442
891.57074,471
891.687378,456
891.804077,455
891.920654,451
892.037231,461
892.15387,462
892.270447,446
892.387085,456
892.503723,467
892.6203,457
892.736877,458
892.853516,463
892.970032,455
893.08667,458
893.203186,443
893.319763,471
893.43634,454
893.552917,465
893.669556,458
893.786011,458
893.902588,470
894.019165,456
894.135681,439
894.252197,464
894.368835,464
894.485291,479
894.601868,443
894.718384,466
894.8349,459
894.951355,476
895.067932,457
895.184448,453
895.300964,451
895.417419,468
895.533936,455
895.650452,443
895.766907,437
895.883423,463
895.999878,459
896.116333,448
896.232849,467
896.349304,450
896.465759,461
896.582214,472
896.698669,458
896.815125,472
896.931641,463
897.048035,445
897.164551,438
897.280884,472
897.397339,472
897.513794,463
897.630249,453
897.746582,469
897.863098,440
897.979431,469
898.095886,471
898.212341,462
898.328674,453
898.445129,450
898.561462,460
898.677795,472
898.794312,461
898.910645,458
899.026978,450
899.143433,456
899.259766,430
899.37616,468
899.492493,465
899.608765,468
899.725159,471
899.841553,469
899.957947,438
900.07428,451
900.190552,473
900.306946,466
900.423157,463
900.53949,469
900.655884,453
900.772156,456
900.888489,472
901.004822,464
901.121033,462
901.237366,462
901.353699,472
901.46991,477
901.586304,473
901.702515,448
901.818787,469
901.93512,455
902.051331,467
902.167603,468
902.283875,450
902.400085,474
902.516418,472
902.632629,471
902.74884,471
902.865112,477
902.981384,472
903.097595,486
903.213867,468
903.330017,492
903.446289,475
903.5625,457
903.67865,469
903.794922,478
903.911072,452
904.027344,450
904.143494,459
904.259705,463
904.375916,468
904.492065,457
904.608215,462
904.724426,466
904.840576,454
904.956726,465
905.072876,462
905.189087,484
905.305176,453
905.421387,460
905.537537,460
905.653687,471
905.769775,454
905.885925,477
906.002014,457
906.118164,474
906.234314,464
906.350403,473
906.466492,470
906.582642,476
906.69873,466
906.814758,497
906.930908,454
907.046936,483
907.163086,481
907.279175,459
907.395264,447
907.511353,465
907.62738,479
907.743408,472
907.859497,460
907.975525,459
908.091553,473
908.207703,470
908.32373,456
908.439758,482
908.555786,456
908.671814,459
908.787842,478
908.90387,466
909.019775,465
909.135864,454
909.251892,454
909.367859,453
909.483826,460
909.599854,484
909.715881,477
909.831848,477
909.947815,467
910.063782,460
910.179749,463
910.295776,470
910.411743,470
910.527649,458
910.643616,464
910.759583,479
910.875488,472
910.991455,467
911.107361,469
911.223267,457
911.339294,478
911.4552,467
911.571106,456
911.687073,460
911.802979,472
911.918823,463
912.034729,468
912.150635,447
912.266602,458
912.382446,456
912.498352,460
912.614197,446
912.730103,459
912.846008,477
792.44574,666
792.56488,684
792.68396,713
792.80304,694
792.92218,644
793.041199,652
793.160339,653
793.279419,643
793.398499,637
793.517578,625
793.636658,619
793.755737,641
793.874817,658
793.993896,645
794.112976,607
794.232056,631
794.351074,578
794.470215,607
794.589233,599
794.708313,623
794.827393,592
794.946411,622
795.065552,607
795.18457,603
795.303589,625
795.422668,557
795.541687,614
795.660767,595
795.779846,603
795.898865,592
796.017883,604
796.136963,584
796.255981,585
796.375061,605
796.49408,607
796.613037,602
796.732117,601
796.851135,604
796.970154,610
797.089233,601
797.208191,592
797.327271,586
797.446228,586
797.565186,594
797.684265,604
797.803223,601
797.922241,585
798.04126,591
798.160278,568
798.279297,594
798.398315,594
798.517273,571
798.636292,583
798.75531,598
798.874268,589
798.993286,581
799.112244,588
799.231323,604
799.350281,591
799.469238,599
799.588257,586
799.707153,610
799.826111,590
799.945129,584
800.064087,587
800.183044,594
800.302063,614
800.421021,596
800.539978,568
800.658936,591
800.777893,593
800.896912,607
801.015747,601
801.134705,610
801.253723,582
801.37262,577
801.491638,598
801.610535,604
801.729492,580
801.84845,558
801.967407,594
802.086243,593
802.205261,590
802.324158,574
802.443115,628
802.562073,594
802.680969,597
802.799927,585
802.918762,586
803.037659,598
803.156677,593
803.275574,605
803.39447,610
803.513428,628
803.632263,597
803.751221,586
803.870117,598
803.989014,610
804.107971,600
804.226746,613
804.345642,602
804.4646,599
804.583496,613
804.702393,601
804.821228,588
804.940125,620
805.059021,599
805.177917,591
805.296814,613
805.415649,610
805.534546,621
805.653442,594
805.772278,601
805.891113,606
806.01001,610
806.128906,609
806.247742,621
806.366577,620
806.485413,614
806.604309,599
806.723145,615
806.84198,640
806.960876,615
807.079712,601
807.198486,621
807.317383,642
807.436218,606
807.554993,622
807.673889,596
807.792725,632
807.91156,624
808.030396,605
808.14917,617
808.268005,636
808.386841,605
808.505676,628
808.624451,628
808.743286,646
808.862122,610
808.980896,622
809.099731,619
809.218506,627
809.337341,605
809.456116,631
809.57489,657
809.693726,644
809.8125,614
809.931274,637
810.050049,611
810.168884,648
810.287659,601
810.406372,642
810.525269,606
810.643982,642
810.762756,608
810.881531,640
811.000305,635
811.11908,657
811.237854,611
811.356567,618
811.475403,610
811.594116,619
811.71283,626
811.831604,651
811.950378,613
812.069153,622
812.187927,596
812.30658,659
812.425415,635
812.544128,640
812.662781,618
812.781616,627
812.900269,615
813.019043,650
813.137756,616
813.256531,634
813.375244,625
813.493896,613
813.612671,612
813.731384,594
813.850037,610
813.96875,626
814.087524,635
814.206238,624
814.324951,625
814.443604,610
814.562256,620
814.68103,630
814.799683,635
814.918335,628
815.037109,616
815.155762,643
815.274475,635
815.393188,600
815.511841,616
815.630554,606
815.749146,611
815.867859,618
815.986572,602
816.105164,605
816.223877,618
816.342529,625
816.461182,606
816.579895,635
816.698486,610
816.817139,605
816.935791,632
817.054504,630
817.173096,602
817.291748,617
817.4104,609
817.529053,596
817.647644,600
817.766235,602
817.884949,572
818.00354,599
818.122192,593
818.240845,552
818.359436,558
818.478088,561
818.59668,540
818.715271,533
818.833923,556
818.952515,534
819.071106,503
819.189758,499
819.30835,515
819.426941,551
819.545532,510
819.664124,525
819.782715,522
819.901306,515
820.019897,507
820.138489,508
820.25708,497
820.375671,512
820.494202,521
820.612732,505
820.731384,475
820.849915,517
820.968506,496
821.087097,502
821.205627,506
821.324158,495
821.442749,476
821.561279,495
821.679871,493
821.798401,488
821.916931,497
822.035461,506
822.154053,482
822.272583,482
822.391174,497
822.509583,495
822.628174,485
822.746704,490
822.865234,488
822.983765,498
823.102295,466
823.220825,481
823.339294,471
823.457825,493
823.576355,478
823.694824,470
823.813354,489
823.931885,463
824.050354,472
824.168884,489
824.287354,464
824.405823,485
824.524353,511
824.642822,511
824.761353,486
824.879822,483
824.998291,486
825.116699,482
825.235291,492
825.353699,487
825.472168,485
825.590637,492
825.709106,492
825.827576,492
825.946045,465
826.064453,484
826.182983,485
826.301392,478
826.4198,463
826.53833,483
826.656738,474
826.775208,467
826.893677,471
827.012024,470
827.130493,454
827.248962,473
827.36731,465
827.485779,465
827.604248,479
827.722595,488
827.841064,471
827.959412,464
828.077942,450
828.196289,486
828.314636,478
828.433105,470
828.551514,474
828.669861,444
828.78833,470
828.906677,450
829.025085,457
829.143433,474
829.261841,454
829.38031,457
829.498657,467
829.617004,467
829.735413,466
829.85376,462
829.972107,484
830.090515,473
830.208862,466
830.327209,473
830.445557,484
830.563904,470
830.682312,467
830.800659,453
830.919006,486
831.037354,481
831.155701,469
831.274048,474
831.392395,472
831.51062,475
831.629028,443
831.747314,456
831.865662,482
831.984009,468
832.102356,449
832.220642,456
832.338928,470
832.457275,442
832.575623,458
832.693909,452
832.812134,482
832.930481,467
833.048828,458
833.167114,478
833.2854,477
833.403687,458
833.521973,464
833.640259,465
833.758545,444
833.876831,464
833.995056,453
834.113281,476
834.231628,476
834.349915,471
834.468201,472
834.586426,459
834.704651,465
834.822998,468
834.941162,458
835.059448,468
835.177673,450
835.295959,470
835.414246,462
835.53241,468
835.650635,461
835.768921,457
835.887146,469
836.005371,440
836.123596,455
836.241821,456
836.360046,463
836.478271,445
836.596497,474
836.714722,479
836.832886,445
836.95105,505
837.069336,471
837.1875,481
837.305725,479
837.423889,472
837.542053,469
837.660339,477
837.778503,482
837.896667,469
838.014832,464
838.132996,475
838.25116,480
838.369385,473
838.487488,492
838.605713,498
838.723877,484
838.84198,463
838.960205,463
839.078308,491
839.196472,483
839.314636,474
839.4328,486
839.550964,475
839.669067,465
839.787231,484
839.905396,466
840.023499,479
840.141602,500
840.259766,470
840.377869,472
840.495972,478
840.614136,483
840.732239,464
840.850342,466
840.968445,452
841.086548,464
841.204651,461
841.322754,484
841.440918,482
841.55896,482
841.677002,467
841.795166,458
841.913208,470
842.031311,477
842.149353,455
842.267456,471
842.385498,470
842.503601,474
842.621643,458
842.739746,457
842.857788,453
842.97583,466
843.093933,471
843.211975,444
843.330017,461
843.44812,444
843.566101,464
843.684204,465
843.802246,438
843.920227,444
844.038269,490
844.156311,454
844.274292,461
844.392395,458
844.510376,463
844.628357,455
844.74646,475
844.864441,475
844.982422,457
845.100403,462
845.218384,477
845.336426,454
845.454468,471
845.572449,448
845.69043,457
845.808411,463
845.926453,441
846.044373,460
846.162354,460
846.280396,457
846.398315,446
846.516296,436
846.634216,459
846.752197,467
846.870178,472
846.988098,447
847.106079,443
847.22406,462
847.34198,461
847.4599,445
847.577881,441
847.695801,459
847.813782,440
847.931641,464
848.049561,464
848.167603,453
848.285461,443
848.403381,457
848.521362,459
848.639221,448
848.75708,469
848.875,437
848.99292,461
849.110901,451
849.22876,463
849.34668,455
849.464539,464
849.582458,471
849.700317,455
849.818176,464
849.936096,452
850.053955,447
850.171875,442
850.289673,466
850.407593,455
850.525452,465
850.643311,445
850.761169,458
850.878967,443
850.996887,461
851.114746,468
851.232544,452
851.350403,439
851.468262,455
851.58606,464
851.703979,437
851.821777,487
851.939636,455
852.057434,444
852.175232,464
852.293091,457
852.410889,460
852.528687,468
852.646545,459
852.764343,465
852.88208,456
852.999939,474
853.117676,453
853.235535,452
853.353271,455
853.471069,460
853.588928,464
853.706604,461
853.824402,454
853.9422,439
854.059998,462
854.177734,458
854.295532,464
854.413269,461
854.531006,451
854.648804,461
854.766541,472
854.884277,451
855.002014,466
855.119751,451
855.237549,455
855.355225,458
855.473022,473
855.590698,468
855.708435,464
855.826172,459
855.943848,447
856.061646,471
856.179321,467
856.296997,481
856.414795,474
856.53241,467
856.650085,470
856.767822,448
856.885559,470
857.003174,462
857.120911,436
857.238586,459
857.356201,468
857.473938,477
857.591614,455
857.709351,466
857.826965,473
857.944641,453
858.062317,459
858.179993,454
858.297668,457
858.415283,450
858.532959,455
858.650574,456
858.768188,466
858.885803,485
859.003479,469
859.121094,439
859.23877,462
859.356384,447
859.473999,451
859.591675,480
859.709229,444
859.826843,478
859.944458,475
860.062012,459
860.179626,457
860.297302,462
860.414856,471
860.532471,447
860.650024,461
860.767639,451
860.885193,440
861.002808,459
861.120361,465
861.237976,451
861.35553,458
861.473022,462
861.590698,463
861.708191,449
861.825745,465
861.943298,457
862.060852,462
862.178406,460
862.295959,447
862.413513,455
862.531006,490
862.64856,445
862.766113,477
862.883667,434
863.00116,477
863.118713,460
863.236206,432
863.353699,456
863.471252,452
863.588745,465
863.706177,463
863.82373,452
863.941162,459
864.058716,455
864.176208,464
864.29364,457
864.411194,448
864.528687,457
864.646118,457
864.763611,445
864.881042,471
864.998535,459
865.116028,471
865.233459,448
865.350891,451
865.468384,445
865.585754,473
865.703308,454
865.820679,476
865.938171,455
866.055542,461
866.173035,448
866.290466,467
866.407837,468
866.52533,472
866.6427,451
866.760071,458
866.877563,466
866.994934,454
867.112305,448
867.229736,460
867.347107,461
867.464539,471
867.58197,452
867.699341,481
867.81665,475
867.934082,438
868.051453,480
868.168823,443
868.286194,456
868.403564,472
868.520935,447
868.638306,464
868.755676,458
868.872986,454
868.990295,447
869.107727,463
869.225037,460
869.342346,454
869.459717,464
869.577026,450
869.694336,455
869.811707,478
869.929016,465
870.046326,469
870.163635,457
870.280945,455
870.398254,452
870.515564,445
870.632812,458
870.750183,460
870.867432,441
870.984741,466
871.102051,455
871.219299,450
871.336609,466
871.453918,445
871.571106,464
871.688416,456
871.805664,452
871.922852,471
872.040222,486
872.157471,454
872.274719,467
872.391968,461
872.509155,455
872.626465,452
872.743652,477
872.860962,462
872.978149,444
873.095337,477
873.212646,448
873.329834,462
873.44696,464
873.564209,475
873.681396,454
873.798645,461
873.915894,453
874.03302,464
874.150208,495
874.267456,452
874.384583,446
874.501831,465
874.618958,436
874.736145,456
874.853333,476
874.970459,459
875.087646,441
875.204834,457
875.32196,452
875.439148,470
875.556274,467
875.673401,448
875.790527,437
875.907715,456
876.024841,457
876.141968,459
876.259094,472
876.376282,447
876.493347,456
876.610474,450
876.7276,470
876.844727,473
876.961853,469
877.078918,465
877.195984,451
877.313171,443
877.430237,464
877.547302,475
877.664368,451
877.781433,467
877.898499,446
878.015625,441
878.13269,485
878.249695,463
878.366821,454
878.483887,462
878.600952,454
878.717957,463
878.834961,460
878.952087,475
879.069092,471
879.186157,457
879.303162,471
879.420227,461
879.537231,444
879.654236,461
879.77124,469
879.888306,438
880.005249,453
880.122314,445
880.239319,475
880.356323,460
880.473328,469
880.590271,446
880.707275,459
880.824341,434
880.941284,455
881.058228,472
881.175232,465
881.292236,461
881.40918,455
881.526123,441
881.643066,456
881.760071,461
881.877014,466
881.993958,459
882.11084,437
882.227783,471
882.344727,469
882.46167,454
882.578613,445
882.695618,457
882.812439,465
882.929382,441
883.046326,460
883.163208,455
883.280151,467
883.397034,442
883.513916,464
883.630798,457
883.747742,446
883.864563,458
883.981506,457
884.098389,466
884.21521,461
884.332153,456
884.448975,462
884.565796,464
884.682678,459
884.7995,469
884.916443,460
885.033264,453
885.150085,465
885.266968,459
885.383789,459
885.500671,486
885.617493,471
885.734314,469
885.851196,465
885.967896,476
886.084717,471
886.201599,455
886.318359,456
886.435181,450
886.552002,463
886.668762,471
886.785645,475
886.902344,470
887.019165,474
887.135925,470
887.252747,471
887.369446,451
887.486267,489
887.603027,475
887.719788,474
887.836548,456
887.953247,454
888.070068,459
888.186829,459
888.303528,459
888.420288,460
888.536987,461
888.653687,451
888.770447,473
888.887146,464
889.003967,477
889.120667,464
889.237305,450
889.354065,461
889.470703,469
889.587463,455
889.704163,452
889.820862,441
889.937561,468
890.054199,458
890.170837,469
890.287598,471
890.404236,449
890.520874,461
890.637634,465
890.754211,481
890.87085,460
890.987549,450
891.104187,469
891.220886,450
891.337463,468
891.454102,478
891.57074,447
891.687378,488
891.804077,462
891.920654,471
892.037231,468
892.15387,460
892.270447,472
892.387085,477
892.503723,468
892.6203,454
892.736877,461
892.853516,469
892.970032,470
893.08667,454
893.203186,457
893.319763,481
893.43634,465
893.552917,472
893.669556,432
893.786011,467
893.902588,466
894.019165,457
894.135681,471
894.252197,444
894.368835,476
894.485291,490
894.601868,454
894.718384,470
894.8349,459
894.951355,455
895.067932,462
895.184448,477
895.300964,464
895.417419,472
895.533936,458
895.650452,466
895.766907,456
895.883423,475
895.999878,453
896.116333,472
896.232849,446
896.349304,454
896.465759,440
896.582214,475
896.698669,469
896.815125,449
896.931641,443
897.048035,449
897.164551,484
897.280884,467
897.397339,454
897.513794,461
897.630249,452
897.746582,482
897.863098,472
897.979431,457
898.095886,489
898.212341,448
898.328674,464
898.445129,467
898.561462,439
898.677795,456
898.794312,451
898.910645,471
899.026978,472
899.143433,467
899.259766,480
899.37616,469
899.492493,462
899.608765,469
899.725159,474
899.841553,460
899.957947,471
900.07428,466
900.190552,466
900.306946,474
900.423157,464
900.53949,460
900.655884,465
900.772156,484
900.888489,479
901.004822,466
901.121033,465
901.237366,470
901.353699,456
901.46991,471
901.586304,485
901.702515,457
901.818787,448
901.93512,463
902.051331,462
902.167603,469
902.283875,484
902.400085,464
902.516418,466
902.632629,466
902.74884,482
902.865112,473
902.981384,473
903.097595,479
903.213867,466
903.330017,479
903.446289,486
903.5625,478
903.67865,478
903.794922,470
903.911072,487
904.027344,485
904.143494,478
904.259705,474
904.375916,474
904.492065,470
904.608215,465
904.724426,480
904.840576,478
904.956726,469
905.072876,474
905.189087,483
905.305176,468
905.421387,462
905.537537,478
905.653687,478
905.769775,454
905.885925,467
906.002014,463
906.118164,459
906.234314,482
906.350403,490
906.466492,461
906.582642,482
906.69873,481
906.814758,493
906.930908,468
907.046936,467
907.163086,462
907.279175,470
907.395264,468
907.511353,477
907.62738,475
907.743408,466
907.859497,460
907.975525,470
908.091553,479
908.207703,474
908.32373,471
908.439758,493
908.555786,467
908.671814,468
908.787842,465
908.90387,472
909.019775,477
909.135864,468
909.251892,465
909.367859,486
909.483826,450
909.599854,479
909.715881,451
909.831848,486
909.947815,483
910.063782,492
910.179749,476
910.295776,476
910.411743,481
910.527649,470
910.643616,480
910.759583,475
910.875488,448
910.991455,473
911.107361,481
911.223267,486
911.339294,478
911.4552,459
911.571106,501
911.687073,490
911.802979,483
911.918823,475
912.034729,472
912.150635,478
912.266602,469
912.382446,479
912.498352,477
912.614197,491
912.730103,456
912.846008,469
792.44574,653
792.56488,707
792.68396,714
792.80304,707
792.92218,622
793.041199,646
793.160339,648
793.279419,660
793.398499,632
793.517578,624
793.636658,631
793.755737,638
793.874817,632
793.993896,646
794.112976,627
794.232056,617
794.351074,585
794.470215,613
794.589233,603
794.708313,608
794.827393,601
794.946411,606
795.065552,639
795.18457,634
795.303589,620
795.422668,609
795.541687,606
795.660767,600
795.779846,602
795.898865,603
796.017883,595
796.136963,590
796.255981,626
796.375061,600
796.49408,600
796.613037,592
796.732117,584
796.851135,586
796.970154,599
797.089233,584
797.208191,579
797.327271,596
797.446228,572
797.565186,579
797.684265,582
797.803223,581
797.922241,591
798.04126,559
798.160278,589
798.279297,580
798.398315,575
798.517273,583
798.636292,605
798.75531,572
798.874268,600
798.993286,583
799.112244,593
799.231323,575
799.350281,574
799.469238,578
799.588257,577
799.707153,578
799.826111,585
799.945129,599
800.064087,571
800.183044,582
800.302063,598
800.421021,585
800.539978,590
800.658936,569
800.777893,565
800.896912,592
801.015747,574
801.134705,602
801.253723,576
801.37262,589
801.491638,573
801.610535,587
801.729492,590
801.84845,592
801.967407,591
802.086243,613
802.205261,606
802.324158,595
802.443115,597
802.562073,589
802.680969,573
802.799927,599
802.918762,584
803.037659,584
803.156677,584
803.275574,584
803.39447,590
803.513428,602
803.632263,588
803.751221,605
803.870117,580
803.989014,591
804.107971,594
804.226746,601
804.345642,590
804.4646,599
804.583496,600
804.702393,575
804.821228,595
804.940125,609
805.059021,593
805.177917,595
805.296814,607
805.415649,603
805.534546,609
805.653442,612
805.772278,618
805.891113,640
806.01001,627
806.128906,610
806.247742,622
806.366577,618
806.485413,607
806.604309,610
806.723145,587
806.84198,644
806.960876,629
807.079712,629
807.198486,608
807.317383,623
807.436218,622
807.554993,624
807.673889,603
807.792725,613
807.91156,612
808.030396,607
808.14917,607
808.268005,607
808.386841,623
808.505676,659
808.624451,624
808.743286,624
808.862122,605
808.980896,613
809.099731,601
809.218506,616
809.337341,623
809.456116,624
809.57489,626
809.693726,626
809.8125,618
809.931274,656
810.050049,631
810.168884,608
810.287659,635
810.406372,628
810.525269,643
810.643982,631
810.762756,639
810.881531,639
811.000305,634
811.11908,636
811.237854,625
811.356567,642
811.475403,621
811.594116,601
811.71283,634
811.831604,637
811.950378,629
812.069153,626
812.187927,632
812.30658,631
812.425415,631
812.544128,619
812.662781,622
812.781616,624
812.900269,609
813.019043,616
813.137756,637
813.256531,616
813.375244,643
813.493896,633
813.612671,623
813.731384,625
813.850037,627
813.96875,647
814.087524,615
814.206238,629
814.324951,638
814.443604,610
814.562256,662
814.68103,591
814.799683,625
814.918335,608
815.037109,602
815.155762,633
815.274475,635
815.393188,621
815.511841,610
815.630554,628
815.749146,606
815.867859,608
815.986572,621
816.105164,611
816.223877,587
816.342529,613
816.461182,626
816.579895,627
816.698486,620
816.817139,614
816.935791,610
817.054504,614
817.173096,604
817.291748,633
817.4104,598
817.529053,617
817.647644,590
817.766235,602
817.884949,567
818.00354,557
818.122192,587
818.240845,562
818.359436,558
818.478088,566
818.59668,541
818.715271,536
818.833923,557
818.952515,520
819.071106,505
819.189758,522
819.30835,499
819.426941,496
819.545532,501
819.664124,493
819.782715,522
819.901306,497
820.019897,504
820.138489,516
820.25708,518
820.375671,507
820.494202,504
820.612732,505
820.731384,522
820.849915,495
820.968506,517
821.087097,502
821.205627,499
821.324158,504
821.442749,504
821.561279,494
821.679871,490
821.798401,493
821.916931,465
822.035461,471
822.154053,512
822.272583,499
822.391174,481
822.509583,510
822.628174,497
822.746704,502
822.865234,483
822.983765,499
823.102295,502
823.220825,501
823.339294,483
823.457825,485
823.576355,475
823.694824,482
823.813354,492
823.931885,483
824.050354,473
824.168884,509
824.287354,479
824.405823,489
824.524353,491
824.642822,490
824.761353,492
824.879822,481
824.998291,513
825.116699,497
825.235291,498
825.353699,490
825.472168,462
825.590637,475
825.709106,486
825.827576,498
825.946045,500
826.064453,475
826.182983,473
826.301392,469
826.4198,478
826.53833,477
826.656738,473
826.775208,448
826.893677,488
827.012024,447
827.130493,473
827.248962,471
827.36731,483
827.485779,462
827.604248,457
827.722595,476
827.841064,471
827.959412,472
828.077942,480
828.196289,479
828.314636,473
828.433105,460
828.551514,450
828.669861,476
828.78833,462
828.906677,485
829.025085,479
829.143433,482
829.261841,481
829.38031,467
829.498657,486
829.617004,471
829.735413,483
829.85376,473
829.972107,471
830.090515,464
830.208862,452
830.327209,474
830.445557,466
830.563904,473
830.682312,467
830.800659,462
830.919006,471
831.037354,464
831.155701,460
831.274048,476
831.392395,444
831.51062,475
831.629028,458
831.747314,455
831.865662,465
831.984009,471
832.102356,463
832.220642,470
832.338928,482
832.457275,451
832.575623,452
832.693909,478
832.812134,475
832.930481,451
833.048828,455
833.167114,455
833.2854,448
833.403687,455
833.521973,464
833.640259,458
833.758545,483
833.876831,466
833.995056,448
834.113281,455
834.231628,455
834.349915,453
834.468201,445
834.586426,479
834.704651,443
834.822998,467
834.941162,476
835.059448,463
835.177673,468
835.295959,464
835.414246,474
835.53241,470
835.650635,452
835.768921,467
835.887146,471
836.005371,477
836.123596,485
836.241821,455
836.360046,475
836.478271,487
836.596497,473
836.714722,463
836.832886,477
836.95105,475
837.069336,468
837.1875,483
837.305725,494
837.423889,463
837.542053,474
837.660339,498
837.778503,468
837.896667,477
838.014832,480
838.132996,485
838.25116,452
838.369385,460
838.487488,490
838.605713,487
838.723877,467
838.84198,466
838.960205,471
839.078308,462
839.196472,478
839.314636,488
839.4328,458
839.550964,485
839.669067,468
839.787231,476
839.905396,488
840.023499,471
840.141602,476
840.259766,478
840.377869,483
840.495972,495
840.614136,477
840.732239,452
840.850342,470
840.968445,461
841.086548,469
841.204651,473
841.322754,476
841.440918,470
841.55896,460
841.677002,476
841.795166,446
841.913208,451
842.031311,477
842.149353,456
842.267456,468
842.385498,473
842.503601,479
842.621643,451
842.739746,469
842.857788,451
842.97583,467
843.093933,453
843.211975,487
843.330017,458
843.44812,469
843.566101,453
843.684204,446
843.802246,468
843.920227,450
844.038269,447
844.156311,470
844.274292,472
844.392395,462
844.510376,462
844.628357,449
844.74646,446
844.864441,446
844.982422,461
845.100403,477
845.218384,458
845.336426,447
845.454468,463
845.572449,456
845.69043,457
845.808411,466
845.926453,477
846.044373,439
846.162354,458
846.280396,461
846.398315,473
846.516296,428
846.634216,433
846.752197,443
846.870178,457
846.988098,478
847.106079,454
847.22406,450
847.34198,455
847.4599,462
847.577881,466
847.695801,457
847.813782,460
847.931641,449
848.049561,467
848.167603,455
848.285461,464
848.403381,455
848.521362,471
848.639221,443
848.75708,464
848.875,452
848.99292,461
849.110901,441
849.22876,465
849.34668,457
849.464539,455
849.582458,457
849.700317,446
849.818176,466
849.936096,458
850.053955,450
850.171875,448
850.289673,451
850.407593,448
850.525452,462
850.643311,450
850.761169,443
850.878967,484
850.996887,455
851.114746,459
851.232544,465
851.350403,453
851.468262,447
851.58606,468
851.703979,465
851.821777,461
851.939636,483
852.057434,447
852.175232,459
852.293091,474
852.410889,476
852.528687,466
852.646545,460
852.764343,456
852.88208,467
852.999939,456
853.117676,468
853.235535,451
853.353271,463
853.471069,442
853.588928,467
853.706604,443
853.824402,465
853.9422,436
854.059998,458
854.177734,450
854.295532,448
854.413269,445
854.531006,464
854.648804,454
854.766541,454
854.884277,452
855.002014,459
855.119751,457
855.237549,442
855.355225,451
855.473022,449
855.590698,453
855.708435,467
855.826172,453
855.943848,446
856.061646,470
856.179321,470
856.296997,467
856.414795,464
856.53241,470
856.650085,484
856.767822,463
856.885559,458
857.003174,453
857.120911,474
857.238586,449
857.356201,467
857.473938,473
857.591614,465
857.709351,477
857.826965,466
857.944641,457
858.062317,474
858.179993,475
858.297668,460
858.415283,458
858.532959,452
858.650574,466
858.768188,464
858.885803,466
859.003479,472
859.121094,455
859.23877,468
859.356384,455
859.473999,437
859.591675,454
859.709229,460
859.826843,440
859.944458,440
860.062012,453
860.179626,473
860.297302,452
860.414856,442
860.532471,460
860.650024,462
860.767639,461
860.885193,457
861.002808,470
861.120361,457
861.237976,456
861.35553,454
861.473022,457
861.590698,467
861.708191,452
861.825745,454
861.943298,467
862.060852,462
862.178406,451
862.295959,475
862.413513,447
862.531006,454
862.64856,464
862.766113,446
862.883667,449
863.00116,459
863.118713,468
863.236206,458
863.353699,443
863.471252,455
863.588745,439
863.706177,451
863.82373,451
863.941162,444
864.058716,455
864.176208,455
864.29364,461
864.411194,451
864.528687,465
864.646118,440
864.763611,461
864.881042,460
864.998535,472
865.116028,464
865.233459,458
865.350891,442
865.468384,462
865.585754,458
865.703308,461
865.820679,453
865.938171,460
866.055542,460
866.173035,447
866.290466,451
866.407837,471
866.52533,430
866.6427,460
866.760071,448
866.877563,452
866.994934,458
867.112305,458
867.229736,460
867.347107,462
867.464539,463
867.58197,457
867.699341,455
867.81665,460
867.934082,469
868.051453,460
868.168823,456
868.286194,456
868.403564,473
868.520935,462
868.638306,455
868.755676,451
868.872986,467
868.990295,473
869.107727,470
869.225037,461
869.342346,439
869.459717,443
869.577026,455
869.694336,458
869.811707,451
869.929016,474
870.046326,456
870.163635,467
870.280945,476
870.398254,455
870.515564,451
870.632812,468
870.750183,474
870.867432,468
870.984741,433
871.102051,467
871.219299,468
871.336609,473
871.453918,475
871.571106,474
871.688416,446
871.805664,455
871.922852,461
872.040222,452
872.157471,466
872.274719,465
872.391968,457
872.509155,470
872.626465,447
872.743652,464
872.860962,463
872.978149,469
873.095337,473
873.212646,434
873.329834,452
873.44696,478
873.564209,450
873.681396,463
873.798645,452
873.915894,448
874.03302,460
874.150208,468
874.267456,479
874.384583,452
874.501831,449
874.618958,443
874.736145,453
874.853333,446
874.970459,439
875.087646,487
875.204834,448
875.32196,450
875.439148,464
875.556274,452
875.673401,464
875.790527,465
875.907715,450
876.024841,488
876.141968,452
876.259094,470
876.376282,461
876.493347,467
876.610474,457
876.7276,441
876.844727,465
876.961853,478
877.078918,452
877.195984,468
877.313171,454
877.430237,456
877.547302,468
877.664368,437
877.781433,448
877.898499,460
878.015625,446
878.13269,462
878.249695,447
878.366821,459
878.483887,436
878.600952,466
878.717957,466
878.834961,460
878.952087,475
879.069092,475
879.186157,438
879.303162,475
879.420227,447
879.537231,448
879.654236,454
879.77124,464
879.888306,487
880.005249,481
880.122314,455
880.239319,453
880.356323,456
880.473328,456
880.590271,453
880.707275,457
880.824341,458
880.941284,453
881.058228,446
881.175232,466
881.292236,463
881.40918,438
881.526123,443
881.643066,453
881.760071,438
881.877014,458
881.993958,441
882.11084,461
882.227783,454
882.344727,468
882.46167,478
882.578613,457
882.695618,458
882.812439,459
882.929382,438
883.046326,458
883.163208,437
883.280151,469
883.397034,464
883.513916,441
883.630798,462
883.747742,459
883.864563,457
883.981506,445
884.098389,476
884.21521,471
884.332153,451
884.448975,462
884.565796,455
884.682678,469
884.7995,461
884.916443,473
885.033264,462
885.150085,469
885.266968,461
885.383789,466
885.500671,485
885.617493,464
885.734314,462
885.851196,482
885.967896,472
886.084717,458
886.201599,468
886.318359,462
886.435181,483
886.552002,502
886.668762,451
886.785645,469
886.902344,470
887.019165,471
887.135925,475
887.252747,450
887.369446,461
887.486267,471
887.603027,453
887.719788,463
887.836548,463
887.953247,477
888.070068,470
888.186829,469
888.303528,446
888.420288,470
888.536987,463
888.653687,473
888.770447,450
888.887146,466
889.003967,463
889.120667,458
889.237305,449
889.354065,454
889.470703,459
889.587463,461
889.704163,455
889.820862,474
889.937561,438
890.054199,447
890.170837,472
890.287598,462
890.404236,465
890.520874,448
890.637634,467
890.754211,448
890.87085,463
890.987549,447
891.104187,447
891.220886,459
891.337463,460
891.454102,479
891.57074,454
891.687378,471
891.804077,463
891.920654,449
892.037231,452
892.15387,458
892.270447,462
892.387085,475
892.503723,463
892.6203,476
892.736877,456
892.853516,458
892.970032,471
893.08667,462
893.203186,455
893.319763,452
893.43634,460
893.552917,453
893.669556,471
893.786011,447
893.902588,469
894.019165,459
894.135681,475
894.252197,470
894.368835,474
894.485291,452
894.601868,463
894.718384,454
894.8349,456
894.951355,471
895.067932,464
895.184448,457
895.300964,461
895.417419,461
895.533936,456
895.650452,456
895.766907,461
895.883423,466
895.999878,457
896.116333,487
896.232849,478
896.349304,482
896.465759,475
896.582214,472
896.698669,479
896.815125,478
896.931641,462
897.048035,458
897.164551,452
897.280884,477
897.397339,447
897.513794,469
897.630249,471
897.746582,467
897.863098,459
897.979431,477
898.095886,463
898.212341,482
898.328674,456
898.445129,462
898.561462,463
898.677795,459
898.794312,458
898.910645,469
899.026978,452
899.143433,480
899.259766,431
899.37616,474
899.492493,459
899.608765,473
899.725159,472
899.841553,478
899.957947,480
900.07428,473
900.190552,473
900.306946,474
900.423157,456
900.53949,471
900.655884,463
900.772156,471
900.888489,455
901.004822,465
901.121033,474
901.237366,476
901.353699,467
901.46991,486
901.586304,484
901.702515,459
901.818787,487
901.93512,475
902.051331,457
902.167603,469
902.283875,479
902.400085,462
902.516418,461
902.632629,463
902.74884,464
902.865112,475
902.981384,479
903.097595,478
903.213867,471
903.330017,454
903.446289,482
903.5625,476
903.67865,465
903.794922,478
903.911072,466
904.027344,480
904.143494,464
904.259705,478
904.375916,448
904.492065,491
904.608215,464
904.724426,458
904.840576,473
904.956726,464
905.072876,471
905.189087,479
905.305176,481
905.421387,482
905.537537,459
905.653687,461
905.769775,436
905.885925,468
906.002014,474
906.118164,487
906.234314,485
906.350403,471
906.466492,447
906.582642,471
906.69873,468
906.814758,459
906.930908,454
907.046936,452
907.163086,460
907.279175,482
907.395264,465
907.511353,462
907.62738,459
907.743408,468
907.859497,467
907.975525,455
908.091553,439
908.207703,455
908.32373,471
908.439758,476
908.555786,454
908.671814,460
908.787842,451
908.90387,468
909.019775,486
909.135864,463
909.251892,469
909.367859,496
909.483826,469
909.599854,478
909.715881,477
909.831848,480
909.947815,455
910.063782,493
910.179749,482
910.295776,463
910.411743,462
910.527649,482
910.643616,471
910.759583,490
910.875488,473
910.991455,460
911.107361,490
911.223267,474
911.339294,472
911.4552,490
911.571106,464
911.687073,466
911.802979,442
911.918823,479
912.034729,475
912.150635,485
912.266602,466
912.382446,471
912.498352,478
912.614197,468
912.730103,471
912.846008,478
