792.44574,594
792.56488,620
792.68396,675
792.80304,646
792.92218,613
793.041199,576
793.160339,605
793.279419,618
793.398499,581
793.517578,584
793.636658,576
793.755737,578
793.874817,603
793.993896,579
794.112976,603
794.232056,586
794.351074,586
794.470215,598
794.589233,583
794.708313,559
794.827393,590
794.946411,561
795.065552,585
795.18457,595
795.303589,583
795.422668,582
795.541687,572
795.660767,582
795.779846,572
795.898865,577
796.017883,562
796.136963,587
796.255981,559
796.375061,561
796.49408,560
796.613037,585
796.732117,583
796.851135,572
796.970154,572
797.089233,584
797.208191,586
797.327271,592
797.446228,567
797.565186,588
797.684265,593
797.803223,565
797.922241,589
798.04126,580
798.160278,584
798.279297,583
798.398315,587
798.517273,569
798.636292,595
798.75531,573
798.874268,550
798.993286,547
799.112244,553
799.231323,581
799.350281,568
799.469238,583
799.588257,589
799.707153,566
799.826111,586
799.945129,583
800.064087,576
800.183044,596
800.302063,584
800.421021,586
800.539978,589
800.658936,578
800.777893,590
800.896912,553
801.015747,594
801.134705,576
801.253723,555
801.37262,582
801.491638,589
801.610535,584
801.729492,582
801.84845,559
801.967407,560
802.086243,581
802.205261,597
802.324158,589
802.443115,609
802.562073,572
802.680969,599
802.799927,572
802.918762,603
803.037659,591
803.156677,592
803.275574,585
803.39447,598
803.513428,572
803.632263,608
803.751221,594
803.870117,590
803.989014,596
804.107971,597
804.226746,618
804.345642,600
804.4646,604
804.583496,599
804.702393,597
804.821228,610
804.940125,618
805.059021,602
805.177917,605
805.296814,601
805.415649,591
805.534546,611
805.653442,605
805.772278,599
805.891113,612
806.01001,607
806.128906,610
806.247742,612
806.366577,617
806.485413,619
806.604309,615
806.723145,626
806.84198,619
806.960876,601
807.079712,634
807.198486,590
807.317383,615
807.436218,611
807.554993,593
807.673889,637
807.792725,607
807.91156,599
808.030396,607
808.14917,598
808.268005,616
808.386841,620
808.505676,635
808.624451,643
808.743286,642
808.862122,610
808.980896,627
809.099731,599
809.218506,638
809.337341,592
809.456116,622
809.57489,623
809.693726,605
809.8125,628
809.931274,599
810.050049,630
810.168884,614
810.287659,632
810.406372,638
810.525269,641
810.643982,601
810.762756,632
810.881531,634
811.000305,642
811.11908,599
811.237854,649
811.356567,621
811.475403,619
811.594116,614
811.71283,627
811.831604,608
811.950378,620
812.069153,627
812.187927,605
812.30658,647
812.425415,637
812.544128,628
812.662781,606
812.781616,634
812.900269,637
813.019043,617
813.137756,640
813.256531,613
813.375244,617
813.493896,620
813.612671,655
813.731384,615
813.850037,624
813.96875,622
814.087524,623
814.206238,621
814.324951,639
814.443604,620
814.562256,642
814.68103,610
814.799683,648
814.918335,611
815.037109,613
815.155762,641
815.274475,620
815.393188,622
815.511841,635
815.630554,607
815.749146,592
815.867859,606
815.986572,618
816.105164,617
816.223877,605
816.342529,595
816.461182,608
816.579895,612
816.698486,608
816.817139,616
816.935791,604
817.054504,612
817.173096,622
817.291748,617
817.4104,619
817.529053,598
817.647644,602
817.766235,584
817.884949,571
818.00354,580
818.122192,568
818.240845,559
818.359436,540
818.478088,529
818.59668,534
818.715271,535
818.833923,528
818.952515,501
819.071106,526
819.189758,508
819.30835,506
819.426941,500
819.545532,498
819.664124,491
819.782715,511
819.901306,496
820.019897,496
820.138489,498
820.25708,486
820.375671,500
820.494202,509
820.612732,493
820.731384,506
820.849915,470
820.968506,496
821.087097,500
821.205627,492
821.324158,477
821.442749,502
821.561279,480
821.679871,492
821.798401,486
821.916931,491
822.035461,476
822.154053,487
822.272583,469
822.391174,472
822.509583,482
822.628174,494
822.746704,470
822.865234,475
822.983765,485
823.102295,492
823.220825,465
823.339294,481
823.457825,484
823.576355,501
823.694824,502
823.813354,489
823.931885,489
824.050354,466
824.168884,491
824.287354,515
824.405823,483
824.524353,470
824.642822,477
824.761353,490
824.879822,483
824.998291,496
825.116699,469
825.235291,469
825.353699,485
825.472168,487
825.590637,480
825.709106,496
825.827576,477
825.946045,477
826.064453,453
826.182983,469
826.301392,477
826.4198,459
826.53833,465
826.656738,483
826.775208,466
826.893677,472
827.012024,451
827.130493,448
827.248962,467
827.36731,470
827.485779,443
827.604248,461
827.722595,447
827.841064,450
827.959412,470
828.077942,456
828.196289,435
828.314636,458
828.433105,446
828.551514,460
828.669861,447
828.78833,462
828.906677,459
829.025085,461
829.143433,464
829.261841,470
829.38031,432
829.498657,469
829.617004,456
829.735413,447
829.85376,455
829.972107,465
830.090515,438
830.208862,458
830.327209,444
830.445557,469
830.563904,439
830.682312,455
830.800659,458
830.919006,442
831.037354,451
831.155701,462
831.274048,473
831.392395,459
831.51062,445
831.629028,444
831.747314,465
831.865662,439
831.984009,465
832.102356,455
832.220642,458
832.338928,463
832.457275,445
832.575623,459
832.693909,451
832.812134,474
832.930481,460
833.048828,464
833.167114,461
833.2854,458
833.403687,437
833.521973,467
833.640259,438
833.758545,461
833.876831,439
833.995056,463
834.113281,454
834.231628,469
834.349915,464
834.468201,443
834.586426,467
834.704651,444
834.822998,472
834.941162,471
835.059448,452
835.177673,466
835.295959,464
835.414246,469
835.53241,445
835.650635,457
835.768921,429
835.887146,451
836.005371,477
836.123596,463
836.241821,461
836.360046,457
836.478271,460
836.596497,466
836.714722,455
836.832886,461
836.95105,468
837.069336,478
837.1875,476
837.305725,471
837.423889,458
837.542053,476
837.660339,462
837.778503,461
837.896667,482
838.014832,496
838.132996,480
838.25116,475
838.369385,476
838.487488,461
838.605713,458
838.723877,479
838.84198,473
838.960205,454
839.078308,479
839.196472,460
839.314636,471
839.4328,465
839.550964,469
839.669067,473
839.787231,447
839.905396,469
840.023499,462
840.141602,460
840.259766,471
840.377869,468
840.495972,475
840.614136,475
840.732239,460
840.850342,457
840.968445,447
841.086548,465
841.204651,458
841.322754,466
841.440918,452
841.55896,472
841.677002,445
841.795166,458
841.913208,456
842.031311,452
842.149353,471
842.267456,440
842.385498,453
842.503601,441
842.621643,447
842.739746,436
842.857788,437
842.97583,446
843.093933,440
843.211975,456
843.330017,463
843.44812,438
843.566101,450
843.684204,468
843.802246,445
843.920227,459
844.038269,446
844.156311,441
844.274292,452
844.392395,453
844.510376,451
844.628357,446
844.74646,408
844.864441,438
844.982422,447
845.100403,444
845.218384,463
845.336426,465
845.454468,473
845.572449,464
845.69043,446
845.808411,433
845.926453,434
846.044373,462
846.162354,434
846.280396,462
846.398315,434
846.516296,443
846.634216,446
846.752197,443
846.870178,444
846.988098,451
847.106079,453
847.22406,456
847.34198,454
847.4599,457
847.577881,451
847.695801,435
847.813782,452
847.931641,449
848.049561,433
848.167603,463
848.285461,435
848.403381,458
848.521362,446
848.639221,437
848.75708,433
848.875,466
848.99292,452
849.110901,456
849.22876,448
849.34668,436
849.464539,428
849.582458,450
849.700317,438
849.818176,449
849.936096,430
850.053955,446
850.171875,443
850.289673,470
850.407593,431
850.525452,455
850.643311,446
850.761169,438
850.878967,455
850.996887,447
851.114746,446
851.232544,446
851.350403,461
851.468262,457
851.58606,428
851.703979,439
851.821777,452
851.939636,451
852.057434,433
852.175232,447
852.293091,443
852.410889,432
852.528687,454
852.646545,454
852.764343,442
852.88208,442
852.999939,445
853.117676,463
853.235535,446
853.353271,423
853.471069,461
853.588928,463
853.706604,443
853.824402,451
853.9422,445
854.059998,456
854.177734,444
854.295532,461
854.413269,457
854.531006,441
854.648804,444
854.766541,449
854.884277,437
855.002014,458
855.119751,442
855.237549,461
855.355225,451
855.473022,449
855.590698,453
855.708435,450
855.826172,449
855.943848,460
856.061646,462
856.179321,436
856.296997,459
856.414795,459
856.53241,458
856.650085,454
856.767822,451
856.885559,458
857.003174,462
857.120911,467
857.238586,450
857.356201,438
857.473938,450
857.591614,452
857.709351,479
857.826965,452
857.944641,447
858.062317,451
858.179993,451
858.297668,446
858.415283,443
858.532959,453
858.650574,442
858.768188,441
858.885803,427
859.003479,460
859.121094,445
859.23877,430
859.356384,440
859.473999,454
859.591675,449
859.709229,463
859.826843,446
859.944458,480
860.062012,452
860.179626,469
860.297302,443
860.414856,433
860.532471,449
860.650024,454
860.767639,424
860.885193,460
861.002808,429
861.120361,453
861.237976,448
861.35553,439
861.473022,444
861.590698,461
861.708191,425
861.825745,454
861.943298,435
862.060852,435
862.178406,437
862.295959,451
862.413513,435
862.531006,455
862.64856,426
862.766113,429
862.883667,445
863.00116,448
863.118713,457
863.236206,459
863.353699,441
863.471252,461
863.588745,450
863.706177,450
863.82373,443
863.941162,450
864.058716,431
864.176208,450
864.29364,439
864.411194,475
864.528687,437
864.646118,468
864.763611,462
864.881042,448
864.998535,466
865.116028,463
865.233459,434
865.350891,441
865.468384,439
865.585754,445
865.703308,442
865.820679,478
865.938171,443
866.055542,455
866.173035,439
866.290466,430
866.407837,443
866.52533,477
866.6427,435
866.760071,439
866.877563,461
866.994934,451
867.112305,416
867.229736,440
867.347107,454
867.464539,462
867.58197,457
867.699341,432
867.81665,464
867.934082,466
868.051453,460
868.168823,455
868.286194,454
868.403564,458
868.520935,452
868.638306,471
868.755676,444
868.872986,442
868.990295,464
869.107727,459
869.225037,443
869.342346,452
869.459717,442
869.577026,469
869.694336,437
869.811707,449
869.929016,448
870.046326,456
870.163635,448
870.280945,441
870.398254,453
870.515564,453
870.632812,467
870.750183,459
870.867432,460
870.984741,453
871.102051,448
871.219299,449
871.336609,440
871.453918,451
871.571106,446
871.688416,443
871.805664,435
871.922852,455
872.040222,449
872.157471,454
872.274719,456
872.391968,457
872.509155,450
872.626465,471
872.743652,438
872.860962,455
872.978149,439
873.095337,454
873.212646,444
873.329834,456
873.44696,468
873.564209,436
873.681396,448
873.798645,448
873.915894,445
874.03302,448
874.150208,436
874.267456,452
874.384583,445
874.501831,432
874.618958,447
874.736145,438
874.853333,447
874.970459,441
875.087646,460
875.204834,457
875.32196,445
875.439148,449
875.556274,439
875.673401,439
875.790527,455
875.907715,460
876.024841,461
876.141968,450
876.259094,453
876.376282,475
876.493347,453
876.610474,455
876.7276,436
876.844727,438
876.961853,455
877.078918,453
877.195984,454
877.313171,437
877.430237,467
877.547302,439
877.664368,447
877.781433,441
877.898499,430
878.015625,444
878.13269,434
878.249695,442
878.366821,441
878.483887,467
878.600952,449
878.717957,453
878.834961,460
878.952087,461
879.069092,451
879.186157,469
879.303162,443
879.420227,455
879.537231,452
879.654236,462
879.77124,459
879.888306,475
880.005249,447
880.122314,450
880.239319,449
880.356323,447
880.473328,455
880.590271,453
880.707275,465
880.824341,471
880.941284,456
881.058228,468
881.175232,454
881.292236,440
881.40918,458
881.526123,445
881.643066,447
881.760071,454
881.877014,468
881.993958,459
882.11084,451
882.227783,445
882.344727,433
882.46167,438
882.578613,439
882.695618,468
882.812439,456
882.929382,449
883.046326,458
883.163208,466
883.280151,456
883.397034,440
883.513916,459
883.630798,443
883.747742,457
883.864563,454
883.981506,450
884.098389,455
884.21521,451
884.332153,465
884.448975,440
884.565796,458
884.682678,442
884.7995,450
884.916443,468
885.033264,428
885.150085,443
885.266968,470
885.383789,435
885.500671,466
885.617493,433
885.734314,445
885.851196,449
885.967896,467
886.084717,435
886.201599,443
886.318359,430
886.435181,457
886.552002,455
886.668762,466
886.785645,447
886.902344,469
887.019165,441
887.135925,449
887.252747,461
887.369446,464
887.486267,446
887.603027,482
887.719788,472
887.836548,462
887.953247,444
888.070068,453
888.186829,460
888.303528,457
888.420288,451
888.536987,458
888.653687,467
888.770447,438
888.887146,447
889.003967,458
889.120667,454
889.237305,465
889.354065,462
889.470703,474
889.587463,451
889.704163,464
889.820862,455
889.937561,458
890.054199,466
890.170837,462
890.287598,457
890.404236,451
890.520874,452
890.637634,467
890.754211,451
890.87085,446
890.987549,466
891.104187,475
891.220886,443
891.337463,453
891.454102,441
891.57074,456
891.687378,456
891.804077,469
891.920654,453
892.037231,444
892.15387,451
892.270447,451
892.387085,448
892.503723,473
892.6203,467
892.736877,455
892.853516,458
892.970032,461
893.08667,418
893.203186,459
893.319763,457
893.43634,451
893.552917,454
893.669556,472
893.786011,468
893.902588,452
894.019165,444
894.135681,466
894.252197,457
894.368835,453
894.485291,456
894.601868,483
894.718384,439
894.8349,457
894.951355,436
895.067932,441
895.184448,454
895.300964,466
895.417419,455
895.533936,470
895.650452,469
895.766907,480
895.883423,449
895.999878,437
896.116333,454
896.232849,468
896.349304,456
896.465759,477
896.582214,458
896.698669,443
896.815125,455
896.931641,473
897.048035,456
897.164551,443
897.280884,464
897.397339,468
897.513794,453
897.630249,465
897.746582,445
897.863098,484
897.979431,450
898.095886,456
898.212341,468
898.328674,469
898.445129,470
898.561462,459
898.677795,445
898.794312,475
898.910645,455
899.026978,439
899.143433,463
899.259766,464
899.37616,448
899.492493,468
899.608765,464
899.725159,463
899.841553,442
899.957947,475
900.07428,457
900.190552,484
900.306946,469
900.423157,455
900.53949,444
900.655884,465
900.772156,449
900.888489,473
901.004822,473
901.121033,461
901.237366,453
901.353699,451
901.46991,471
901.586304,463
901.702515,453
901.818787,454
901.93512,461
902.051331,477
902.167603,454
902.283875,451
902.400085,464
902.516418,464
902.632629,465
902.74884,462
902.865112,478
902.981384,459
903.097595,459
903.213867,452
903.330017,444
903.446289,472
903.5625,466
903.67865,454
903.794922,462
903.911072,470
904.027344,470
904.143494,462
904.259705,476
904.375916,473
904.492065,453
904.608215,456
904.724426,466
904.840576,468
904.956726,448
905.072876,459
905.189087,444
905.305176,482
905.421387,474
905.537537,461
905.653687,458
905.769775,473
905.885925,445
906.002014,467
906.118164,460
906.234314,470
906.350403,452
906.466492,465
906.582642,468
906.69873,462
906.814758,451
906.930908,490
907.046936,454
907.163086,463
907.279175,473
907.395264,469
907.511353,472
907.62738,466
907.743408,453
907.859497,488
907.975525,446
908.091553,486
908.207703,480
908.32373,457
908.439758,471
908.555786,458
908.671814,450
908.787842,480
908.90387,476
909.019775,466
909.135864,481
909.251892,467
909.367859,467
909.483826,477
909.599854,466
909.715881,460
909.831848,478
909.947815,481
910.063782,460
910.179749,475
910.295776,481
910.411743,484
910.527649,471
910.643616,474
910.759583,463
910.875488,485
910.991455,454
911.107361,464
911.223267,470
911.339294,490
911.4552,455
911.571106,476
911.687073,467
911.802979,476
911.918823,466
912.034729,486
912.150635,443
912.266602,480
912.382446,446
912.498352,469
912.614197,469
912.730103,453
912.846008,440
792.44574,600
792.56488,624
792.68396,685
792.80304,658
792.92218,607
793.041199,563
793.160339,561
793.279419,629
793.398499,594
793.517578,567
793.636658,577
793.755737,598
793.874817,632
793.993896,621
794.112976,590
794.232056,568
794.351074,597
794.470215,595
794.589233,590
794.708313,596
794.827393,614
794.946411,580
795.065552,576
795.18457,574
795.303589,588
795.422668,594
795.541687,594
795.660767,568
795.779846,592
795.898865,595
796.017883,598
796.136963,584
796.255981,601
796.375061,564
796.49408,556
796.613037,587
796.732117,567
796.851135,570
796.970154,561
797.089233,579
797.208191,562
797.327271,592
797.446228,587
797.565186,577
797.684265,567
797.803223,577
797.922241,570
798.04126,580
798.160278,598
798.279297,551
798.398315,598
798.517273,558
798.636292,596
798.75531,575
798.874268,567
798.993286,567
799.112244,587
799.231323,563
799.350281,563
799.469238,575
799.588257,559
799.707153,558
799.826111,577
799.945129,567
800.064087,582
800.183044,565
800.302063,585
800.421021,608
800.539978,580
800.658936,585
800.777893,570
800.896912,600
801.015747,581
801.134705,572
801.253723,573
801.37262,580
801.491638,579
801.610535,559
801.729492,583
801.84845,583
801.967407,595
802.086243,581
802.205261,585
802.324158,574
802.443115,587
802.562073,593
802.680969,596
802.799927,603
802.918762,590
803.037659,574
803.156677,603
803.275574,609
803.39447,562
803.513428,572
803.632263,580
803.751221,591
803.870117,591
803.989014,595
804.107971,594
804.226746,588
804.345642,599
804.4646,604
804.583496,584
804.702393,569
804.821228,617
804.940125,591
805.059021,617
805.177917,602
805.296814,616
805.415649,583
805.534546,607
805.653442,604
805.772278,582
805.891113,594
806.01001,636
806.128906,598
806.247742,612
806.366577,616
806.485413,603
806.604309,608
806.723145,633
806.84198,570
806.960876,594
807.079712,603
807.198486,627
807.317383,635
807.436218,610
807.554993,598
807.673889,604
807.792725,606
807.91156,626
808.030396,615
808.14917,615
808.268005,615
808.386841,609
808.505676,628
808.624451,615
808.743286,631
808.862122,611
808.980896,621
809.099731,618
809.218506,618
809.337341,606
809.456116,655
809.57489,655
809.693726,632
809.8125,634
809.931274,632
810.050049,602
810.168884,621
810.287659,629
810.406372,630
810.525269,626
810.643982,643
810.762756,644
810.881531,630
811.000305,630
811.11908,633
811.237854,645
811.356567,611
811.475403,648
811.594116,611
811.71283,665
811.831604,609
811.950378,636
812.069153,633
812.187927,645
812.30658,624
812.425415,640
812.544128,629
812.662781,646
812.781616,629
812.900269,638
813.019043,620
813.137756,616
813.256531,665
813.375244,616
813.493896,628
813.612671,612
813.731384,642
813.850037,648
813.96875,616
814.087524,633
814.206238,598
814.324951,637
814.443604,616
814.562256,633
814.68103,624
814.799683,615
814.918335,603
815.037109,631
815.155762,601
815.274475,617
815.393188,615
815.511841,618
815.630554,609
815.749146,614
815.867859,595
815.986572,608
816.105164,632
816.223877,609
816.342529,598
816.461182,612
816.579895,611
816.698486,618
816.817139,607
816.935791,631
817.054504,630
817.173096,612
817.291748,627
817.4104,590
817.529053,606
817.647644,578
817.766235,594
817.884949,592
818.00354,553
818.122192,594
818.240845,560
818.359436,553
818.478088,560
818.59668,525
818.715271,546
818.833923,528
818.952515,514
819.071106,497
819.189758,503
819.30835,517
819.426941,512
819.545532,501
819.664124,518
819.782715,499
819.901306,512
820.019897,501
820.138489,484
820.25708,493
820.375671,487
820.494202,506
820.612732,499
820.731384,480
820.849915,495
820.968506,497
821.087097,472
821.205627,487
821.324158,486
821.442749,507
821.561279,490
821.679871,481
821.798401,491
821.916931,486
822.035461,461
822.154053,482
822.272583,468
822.391174,499
822.509583,492
822.628174,468
822.746704,504
822.865234,464
822.983765,489
823.102295,486
823.220825,459
823.339294,480
823.457825,470
823.576355,496
823.694824,480
823.813354,479
823.931885,470
824.050354,503
824.168884,486
824.287354,475
824.405823,485
824.524353,494
824.642822,480
824.761353,480
824.879822,470
824.998291,462
825.116699,472
825.235291,473
825.353699,460
825.472168,487
825.590637,497
825.709106,467
825.827576,471
825.946045,460
826.064453,457
826.182983,488
826.301392,470
826.4198,461
826.53833,464
826.656738,482
826.775208,475
826.893677,451
827.012024,477
827.130493,458
827.248962,433
827.36731,448
827.485779,481
827.604248,471
827.722595,465
827.841064,453
827.959412,472
828.077942,464
828.196289,471
828.314636,444
828.433105,451
828.551514,434
828.669861,455
828.78833,465
828.906677,447
829.025085,444
829.143433,439
829.261841,469
829.38031,447
829.498657,462
829.617004,463
829.735413,460
829.85376,440
829.972107,466
830.090515,453
830.208862,442
830.327209,453
830.445557,495
830.563904,462
830.682312,456
830.800659,459
830.919006,448
831.037354,457
831.155701,463
831.274048,466
831.392395,471
831.51062,447
831.629028,460
831.747314,448
831.865662,473
831.984009,464
832.102356,454
832.220642,460
832.338928,455
832.457275,441
832.575623,476
832.693909,438
832.812134,469
832.930481,444
833.048828,451
833.167114,453
833.2854,464
833.403687,449
833.521973,472
833.640259,460
833.758545,457
833.876831,467
833.995056,475
834.113281,452
834.231628,455
834.349915,468
834.468201,453
834.586426,470
834.704651,446
834.822998,482
834.941162,462
835.059448,458
835.177673,455
835.295959,487
835.414246,465
835.53241,444
835.650635,443
835.768921,457
835.887146,433
836.005371,450
836.123596,470
836.241821,456
836.360046,474
836.478271,450
836.596497,464
836.714722,460
836.832886,467
836.95105,472
837.069336,471
837.1875,471
837.305725,463
837.423889,464
837.542053,489
837.660339,462
837.778503,492
837.896667,465
838.014832,479
838.132996,471
838.25116,480
838.369385,475
838.487488,468
838.605713,465
838.723877,470
838.84198,451
838.960205,475
839.078308,464
839.196472,461
839.314636,467
839.4328,478
839.550964,465
839.669067,466
839.787231,469
839.905396,464
840.023499,451
840.141602,485
840.259766,474
840.377869,445
840.495972,442
840.614136,474
840.732239,476
840.850342,478
840.968445,470
841.086548,450
841.204651,452
841.322754,469
841.440918,457
841.55896,472
841.677002,467
841.795166,471
841.913208,448
842.031311,447
842.149353,458
842.267456,464
842.385498,460
842.503601,436
842.621643,442
842.739746,444
842.857788,478
842.97583,455
843.093933,433
843.211975,458
843.330017,458
843.44812,458
843.566101,451
843.684204,446
843.802246,451
843.920227,462
844.038269,434
844.156311,466
844.274292,471
844.392395,447
844.510376,465
844.628357,444
844.74646,454
844.864441,424
844.982422,427
845.100403,453
845.218384,438
845.336426,446
845.454468,446
845.572449,437
845.69043,450
845.808411,446
845.926453,451
846.044373,463
846.162354,446
846.280396,465
846.398315,451
846.516296,454
846.634216,431
846.752197,454
846.870178,447
846.988098,443
847.106079,458
847.22406,440
847.34198,451
847.4599,436
847.577881,434
847.695801,455
847.813782,429
847.931641,440
848.049561,456
848.167603,434
848.285461,451
848.403381,462
848.521362,442
848.639221,449
848.75708,428
848.875,445
848.99292,441
849.110901,444
849.22876,427
849.34668,453
849.464539,451
849.582458,442
849.700317,451
849.818176,438
849.936096,438
850.053955,472
850.171875,432
850.289673,475
850.407593,450
850.525452,461
850.643311,444
850.761169,449
850.878967,442
850.996887,442
851.114746,442
851.232544,448
851.350403,441
851.468262,458
851.58606,453
851.703979,432
851.821777,445
851.939636,452
852.057434,443
852.175232,464
852.293091,425
852.410889,445
852.528687,453
852.646545,452
852.764343,440
852.88208,447
852.999939,450
853.117676,435
853.235535,444
853.353271,446
853.471069,428
853.588928,452
853.706604,441
853.824402,446
853.9422,424
854.059998,449
854.177734,446
854.295532,457
854.413269,458
854.531006,451
854.648804,451
854.766541,465
854.884277,436
855.002014,441
855.119751,457
855.237549,441
855.355225,467
855.473022,441
855.590698,448
855.708435,470
855.826172,437
855.943848,476
856.061646,435
856.179321,463
856.296997,420
856.414795,452
856.53241,451
856.650085,461
856.767822,451
856.885559,455
857.003174,449
857.120911,470
857.238586,437
857.356201,453
857.473938,449
857.591614,457
857.709351,447
857.826965,464
857.944641,439
858.062317,458
858.179993,453
858.297668,462
858.415283,452
858.532959,440
858.650574,456
858.768188,460
858.885803,450
859.003479,463
859.121094,431
859.23877,451
859.356384,453
859.473999,444
859.591675,436
859.709229,448
859.826843,437
859.944458,438
860.062012,436
860.179626,456
860.297302,440
860.414856,446
860.532471,437
860.650024,460
860.767639,450
860.885193,445
861.002808,456
861.120361,458
861.237976,446
861.35553,453
861.473022,441
861.590698,451
861.708191,436
861.825745,465
861.943298,440
862.060852,444
862.178406,423
862.295959,441
862.413513,454
862.531006,446
862.64856,429
862.766113,456
862.883667,444
863.00116,459
863.118713,449
863.236206,451
863.353699,469
863.471252,456
863.588745,460
863.706177,439
863.82373,439
863.941162,437
864.058716,449
864.176208,474
864.29364,433
864.411194,464
864.528687,436
864.646118,435
864.763611,459
864.881042,449
864.998535,446
865.116028,461
865.233459,441
865.350891,469
865.468384,467
865.585754,460
865.703308,452
865.820679,450
865.938171,467
866.055542,444
866.173035,453
866.290466,451
866.407837,439
866.52533,468
866.6427,463
866.760071,455
866.877563,453
866.994934,453
867.112305,450
867.229736,458
867.347107,436
867.464539,452
867.58197,458
867.699341,466
867.81665,438
867.934082,452
868.051453,460
868.168823,443
868.286194,444
868.403564,429
868.520935,434
868.638306,449
868.755676,455
868.872986,438
868.990295,439
869.107727,479
869.225037,455
869.342346,435
869.459717,474
869.577026,476
869.694336,457
869.811707,443
869.929016,455
870.046326,440
870.163635,438
870.280945,457
870.398254,432
870.515564,452
870.632812,448
870.750183,464
870.867432,442
870.984741,472
871.102051,454
871.219299,461
871.336609,473
871.453918,443
871.571106,436
871.688416,454
871.805664,443
871.922852,457
872.040222,468
872.157471,455
872.274719,459
872.391968,450
872.509155,467
872.626465,445
872.743652,449
872.860962,458
872.978149,441
873.095337,465
873.212646,452
873.329834,427
873.44696,449
873.564209,458
873.681396,430
873.798645,443
873.915894,452
874.03302,450
874.150208,447
874.267456,451
874.384583,421
874.501831,468
874.618958,436
874.736145,426
874.853333,454
874.970459,446
875.087646,450
875.204834,422
875.32196,446
875.439148,460
875.556274,434
875.673401,454
875.790527,447
875.907715,455
876.024841,450
876.141968,456
876.259094,443
876.376282,444
876.493347,446
876.610474,454
876.7276,447
876.844727,451
876.961853,453
877.078918,445
877.195984,456
877.313171,437
877.430237,464
877.547302,461
877.664368,443
877.781433,473
877.898499,436
878.015625,470
878.13269,442
878.249695,431
878.366821,453
878.483887,455
878.600952,438
878.717957,458
878.834961,441
878.952087,464
879.069092,428
879.186157,469
879.303162,437
879.420227,449
879.537231,446
879.654236,439
879.77124,455
879.888306,441
880.005249,442
880.122314,447
880.239319,447
880.356323,443
880.473328,446
880.590271,454
880.707275,444
880.824341,452
880.941284,450
881.058228,440
881.175232,450
881.292236,462
881.40918,458
881.526123,450
881.643066,446
881.760071,470
881.877014,467
881.993958,445
882.11084,453
882.227783,456
882.344727,460
882.46167,457
882.578613,434
882.695618,473
882.812439,430
882.929382,452
883.046326,457
883.163208,459
883.280151,468
883.397034,446
883.513916,472
883.630798,449
883.747742,437
883.864563,442
883.981506,449
884.098389,455
884.21521,443
884.332153,442
884.448975,450
884.565796,471
884.682678,447
884.7995,443
884.916443,441
885.033264,458
885.150085,447
885.266968,454
885.383789,440
885.500671,457
885.617493,453
885.734314,463
885.851196,462
885.967896,468
886.084717,457
886.201599,432
886.318359,443
886.435181,476
886.552002,457
886.668762,475
886.785645,446
886.902344,484
887.019165,444
887.135925,447
887.252747,466
887.369446,451
887.486267,447
887.603027,437
887.719788,455
887.836548,457
887.953247,470
888.070068,463
888.186829,459
888.303528,458
888.420288,448
888.536987,445
888.653687,463
888.770447,477
888.887146,449
889.003967,463
889.120667,444
889.237305,457
889.354065,450
889.470703,464
889.587463,443
889.704163,461
889.820862,467
889.937561,471
890.054199,461
890.170837,445
890.287598,428
890.404236,452
890.520874,451
890.637634,453
890.754211,447
890.87085,456
890.987549,463
891.104187,463
891.220886,458
891.337463,462
891.454102,465
891.57074,465
891.687378,442
891.804077,479
891.920654,453
892.037231,449
892.15387,440
892.270447,475
892.387085,460
892.503723,465
892.6203,454
892.736877,461
892.853516,439
892.970032,449
893.08667,437
893.203186,461
893.319763,464
893.43634,476
893.552917,444
893.669556,440
893.786011,452
893.902588,465
894.019165,456
894.135681,473
894.252197,474
894.368835,456
894.485291,447
894.601868,466
894.718384,446
894.8349,456
894.951355,457
895.067932,477
895.184448,454
895.300964,460
895.417419,458
895.533936,468
895.650452,465
895.766907,455
895.883423,454
895.999878,471
896.116333,471
896.232849,458
896.349304,452
896.465759,467
896.582214,460
896.698669,457
896.815125,446
896.931641,463
897.048035,469
897.164551,448
897.280884,464
897.397339,478
897.513794,447
897.630249,463
897.746582,457
897.863098,468
897.979431,460
898.095886,484
898.212341,457
898.328674,451
898.445129,465
898.561462,469
898.677795,479
898.794312,459
898.910645,461
899.026978,476
899.143433,459
899.259766,467
899.37616,450
899.492493,469
899.608765,458
899.725159,479
899.841553,459
899.957947,471
900.07428,458
900.190552,452
900.306946,460
900.423157,454
900.53949,463
900.655884,462
900.772156,472
900.888489,461
901.004822,451
901.121033,466
901.237366,459
901.353699,457
901.46991,462
901.586304,471
901.702515,465
901.818787,462
901.93512,458
902.051331,470
902.167603,452
902.283875,454
902.400085,462
902.516418,465
902.632629,467
902.74884,455
902.865112,450
902.981384,478
903.097595,457
903.213867,474
903.330017,454
903.446289,475
903.5625,460
903.67865,477
903.794922,455
903.911072,469
904.027344,450
904.143494,461
904.259705,465
904.375916,465
904.492065,462
904.608215,466
904.724426,466
904.840576,475
904.956726,460
905.072876,474
905.189087,486
905.305176,460
905.421387,471
905.537537,487
905.653687,458
905.769775,471
905.885925,454
906.002014,469
906.118164,462
906.234314,475
906.350403,463
906.466492,479
906.582642,468
906.69873,458
906.814758,468
906.930908,486
907.046936,439
907.163086,485
907.279175,471
907.395264,488
907.511353,490
907.62738,464
907.743408,452
907.859497,468
907.975525,478
908.091553,477
908.207703,448
908.32373,470
908.439758,462
908.555786,469
908.671814,473
908.787842,475
908.90387,469
909.019775,467
909.135864,467
909.251892,467
909.367859,448
909.483826,473
909.599854,446
909.715881,454
909.831848,447
909.947815,453
910.063782,480
910.179749,478
910.295776,467
910.411743,462
910.527649,459
910.643616,477
910.759583,465
910.875488,466
910.991455,464
911.107361,459
911.223267,485
911.339294,476
911.4552,467
911.571106,468
911.687073,465
911.802979,476
911.918823,468
912.034729,470
912.150635,482
912.266602,487
912.382446,476
912.498352,462
912.614197,465
912.730103,476
912.846008,457
792.44574,615
792.56488,658
792.68396,671
792.80304,651
792.92218,603
793.041199,606
793.160339,593
793.279419,626
793.398499,607
793.517578,592
793.636658,588
793.755737,598
793.874817,614
793.993896,620
794.112976,625
794.232056,582
794.351074,602
794.470215,583
794.589233,579
794.708313,598
794.827393,595
794.946411,593
795.065552,588
795.18457,598
795.303589,592
795.422668,592
795.541687,563
795.660767,600
795.779846,575
795.898865,574
796.017883,571
796.136963,576
796.255981,589
796.375061,560
796.49408,571
796.613037,572
796.732117,574
796.851135,569
796.970154,586
797.089233,567
797.208191,584
797.327271,576
797.446228,576
797.565186,578
797.684265,572
797.803223,577
797.922241,573
798.04126,568
798.160278,593
798.279297,557
798.398315,565
798.517273,578
798.636292,592
798.75531,587
798.874268,553
798.993286,571
799.112244,563
799.231323,558
799.350281,579
799.469238,590
799.588257,574
799.707153,579
799.826111,585
799.945129,579
800.064087,589
800.183044,555
800.302063,573
800.421021,558
800.539978,593
800.658936,574
800.777893,562
800.896912,566
801.015747,581
801.134705,562
801.253723,567
801.37262,594
801.491638,577
801.610535,569
801.729492,564
801.84845,567
801.967407,590
802.086243,566
802.205261,592
802.324158,576
802.443115,579
802.562073,597
802.680969,598
802.799927,589
802.918762,594
803.037659,582
803.156677,597
803.275574,591
803.39447,588
803.513428,597
803.632263,602
803.751221,592
803.870117,607
803.989014,581
804.107971,596
804.226746,582
804.345642,555
804.4646,584
804.583496,613
804.702393,594
804.821228,617
804.940125,590
805.059021,618
805.177917,623
805.296814,586
805.415649,576
805.534546,588
805.653442,609
805.772278,588
805.891113,604
806.01001,622
806.128906,588
806.247742,626
806.366577,601
806.485413,600
806.604309,605
806.723145,613
806.84198,606
806.960876,608
807.079712,633
807.198486,615
807.317383,614
807.436218,604
807.554993,603
807.673889,632
807.792725,607
807.91156,622
808.030396,617
808.14917,594
808.268005,583
808.386841,611
808.505676,599
808.624451,613
808.743286,633
808.862122,615
808.980896,603
809.099731,610
809.218506,634
809.337341,628
809.456116,619
809.57489,611
809.693726,610
809.8125,621
809.931274,653
810.050049,617
810.168884,621
810.287659,623
810.406372,623
810.525269,632
810.643982,647
810.762756,608
810.881531,620
811.000305,627
811.11908,621
811.237854,634
811.356567,613
811.475403,637
811.594116,629
811.71283,613
811.831604,626
811.950378,632
812.069153,637
812.187927,606
812.30658,620
812.425415,614
812.544128,624
812.662781,643
812.781616,608
812.900269,610
813.019043,627
813.137756,627
813.256531,627
813.375244,639
813.493896,624
813.612671,622
813.731384,607
813.850037,618
813.96875,612
814.087524,631
814.206238,637
814.324951,608
814.443604,604
814.562256,635
814.68103,631
814.799683,624
814.918335,617
815.037109,586
815.155762,607
815.274475,622
815.393188,625
815.511841,605
815.630554,613
815.749146,613
815.867859,606
815.986572,629
816.105164,621
816.223877,598
816.342529,587
816.461182,630
816.579895,604
816.698486,624
816.817139,610
816.935791,616
817.054504,612
817.173096,613
817.291748,634
817.4104,613
817.529053,577
817.647644,596
817.766235,587
817.884949,580
818.00354,575
818.122192,542
818.240845,561
818.359436,556
818.478088,548
818.59668,527
818.715271,534
818.833923,534
818.952515,531
819.071106,533
819.189758,482
819.30835,507
819.426941,523
819.545532,511
819.664124,498
819.782715,507
819.901306,519
820.019897,474
820.138489,478
820.25708,502
820.375671,492
820.494202,502
820.612732,501
820.731384,498
820.849915,510
820.968506,497
821.087097,482
821.205627,499
821.324158,510
821.442749,508
821.561279,468
821.679871,501
821.798401,485
821.916931,475
822.035461,484
822.154053,465
822.272583,494
822.391174,471
822.509583,466
822.628174,488
822.746704,484
822.865234,478
822.983765,483
823.102295,483
823.220825,482
823.339294,471
823.457825,486
823.576355,481
823.694824,470
823.813354,491
823.931885,494
824.050354,485
824.168884,499
824.287354,499
824.405823,490
824.524353,485
824.642822,479
824.761353,497
824.879822,467
824.998291,491
825.116699,475
825.235291,489
825.353699,490
825.472168,496
825.590637,486
825.709106,475
825.827576,476
825.946045,471
826.064453,476
826.182983,487
826.301392,457
826.4198,469
826.53833,437
826.656738,463
826.775208,474
826.893677,473
827.012024,488
827.130493,472
827.248962,481
827.36731,473
827.485779,473
827.604248,481
827.722595,484
827.841064,465
827.959412,473
828.077942,469
828.196289,446
828.314636,486
828.433105,443
828.551514,452
828.669861,456
828.78833,468
828.906677,464
829.025085,456
829.143433,464
829.261841,486
829.38031,462
829.498657,464
829.617004,463
829.735413,468
829.85376,454
829.972107,452
830.090515,460
830.208862,454
830.327209,462
830.445557,455
830.563904,458
830.682312,450
830.800659,467
830.919006,468
831.037354,449
831.155701,459
831.274048,479
831.392395,445
831.51062,481
831.629028,451
831.747314,434
831.865662,463
831.984009,453
832.102356,438
832.220642,457
832.338928,463
832.457275,462
832.575623,473
832.693909,450
832.812134,463
832.930481,466
833.048828,455
833.167114,449
833.2854,442
833.403687,439
833.521973,470
833.640259,458
833.758545,458
833.876831,445
833.995056,449
834.113281,466
834.231628,462
834.349915,455
834.468201,471
834.586426,467
834.704651,448
834.822998,464
834.941162,465
835.059448,457
835.177673,456
835.295959,459
835.414246,458
835.53241,471
835.650635,484
835.768921,445
835.887146,450
836.005371,449
836.123596,460
836.241821,444
836.360046,491
836.478271,451
836.596497,479
836.714722,481
836.832886,478
836.95105,481
837.069336,478
837.1875,464
837.305725,464
837.423889,464
837.542053,469
837.660339,461
837.778503,505
837.896667,490
838.014832,458
838.132996,473
838.25116,466
838.369385,469
838.487488,487
838.605713,460
838.723877,478
838.84198,458
838.960205,453
839.078308,471
839.196472,477
839.314636,475
839.4328,458
839.550964,460
839.669067,474
839.787231,476
839.905396,460
840.023499,459
840.141602,468
840.259766,453
840.377869,486
840.495972,472
840.614136,455
840.732239,447
840.850342,461
840.968445,450
841.086548,455
841.204651,477
841.322754,446
841.440918,454
841.55896,475
841.677002,467
841.795166,448
841.913208,468
842.031311,467
842.149353,458
842.267456,455
842.385498,443
842.503601,462
842.621643,461
842.739746,449
842.857788,443
842.97583,448
843.093933,443
843.211975,462
843.330017,450
843.44812,463
843.566101,439
843.684204,466
843.802246,447
843.920227,445
844.038269,439
844.156311,454
844.274292,451
844.392395,432
844.510376,444
844.628357,437
844.74646,442
844.864441,459
844.982422,442
845.100403,456
845.218384,439
845.336426,451
845.454468,445
845.572449,449
845.69043,467
845.808411,457
845.926453,442
846.044373,445
846.162354,423
846.280396,454
846.398315,448
846.516296,453
846.634216,438
846.752197,428
846.870178,466
846.988098,450
847.106079,443
847.22406,450
847.34198,447
847.4599,446
847.577881,463
847.695801,442
847.813782,441
847.931641,432
848.049561,457
848.167603,455
848.285461,439
848.403381,441
848.521362,458
848.639221,438
848.75708,450
848.875,464
848.99292,457
849.110901,473
849.22876,430
849.34668,449
849.464539,450
849.582458,438
849.700317,447
849.818176,484
849.936096,443
850.053955,449
850.171875,444
850.289673,464
850.407593,433
850.525452,457
850.643311,443
850.761169,451
850.878967,450
850.996887,463
851.114746,437
851.232544,444
851.350403,447
851.468262,441
851.58606,467
851.703979,457
851.821777,429
851.939636,441
852.057434,459
852.175232,435
852.293091,430
852.410889,440
852.528687,459
852.646545,451
852.764343,448
852.88208,469
852.999939,443
853.117676,446
853.235535,451
853.353271,441
853.471069,436
853.588928,444
853.706604,426
853.824402,450
853.9422,462
854.059998,452
854.177734,451
854.295532,466
854.413269,473
854.531006,470
854.648804,449
854.766541,448
854.884277,446
855.002014,439
855.119751,467
855.237549,471
855.355225,466
855.473022,458
855.590698,456
855.708435,471
855.826172,463
855.943848,458
856.061646,463
856.179321,434
856.296997,437
856.414795,474
856.53241,444
856.650085,441
856.767822,453
856.885559,444
857.003174,454
857.120911,462
857.238586,450
857.356201,460
857.473938,450
857.591614,457
857.709351,462
857.826965,458
857.944641,449
858.062317,466
858.179993,478
858.297668,451
858.415283,435
858.532959,434
858.650574,465
858.768188,470
858.885803,457
859.003479,472
859.121094,438
859.23877,467
859.356384,467
859.473999,450
859.591675,442
859.709229,461
859.826843,457
859.944458,454
860.062012,452
860.179626,459
860.297302,453
860.414856,455
860.532471,446
860.650024,444
860.767639,445
860.885193,455
861.002808,455
861.120361,450
861.237976,437
861.35553,453
861.473022,449
861.590698,453
861.708191,444
861.825745,436
861.943298,442
862.060852,450
862.178406,449
862.295959,453
862.413513,449
862.531006,459
862.64856,466
862.766113,448
862.883667,431
863.00116,458
863.118713,469
863.236206,461
863.353699,435
863.471252,450
863.588745,464
863.706177,459
863.82373,456
863.941162,469
864.058716,438
864.176208,454
864.29364,450
864.411194,448
864.528687,449
864.646118,463
864.763611,450
864.881042,458
864.998535,460
865.116028,451
865.233459,453
865.350891,454
865.468384,452
865.585754,443
865.703308,461
865.820679,461
865.938171,442
866.055542,452
866.173035,443
866.290466,472
866.407837,438
866.52533,471
866.6427,457
866.760071,439
866.877563,441
866.994934,453
867.112305,442
867.229736,444
867.347107,447
867.464539,470
867.58197,455
867.699341,447
867.81665,455
867.934082,456
868.051453,441
868.168823,457
868.286194,445
868.403564,456
868.520935,429
868.638306,462
868.755676,452
868.872986,453
868.990295,441
869.107727,457
869.225037,457
869.342346,450
869.459717,451
869.577026,461
869.694336,456
869.811707,452
869.929016,434
870.046326,445
870.163635,432
870.280945,451
870.398254,439
870.515564,454
870.632812,454
870.750183,438
870.867432,460
870.984741,452
871.102051,439
871.219299,461
871.336609,469
871.453918,452
871.571106,452
871.688416,456
871.805664,444
871.922852,473
872.040222,442
872.157471,452
872.274719,455
872.391968,456
872.509155,456
872.626465,443
872.743652,447
872.860962,441
872.978149,442
873.095337,471
873.212646,464
873.329834,472
873.44696,454
873.564209,451
873.681396,447
873.798645,451
873.915894,440
874.03302,471
874.150208,441
874.267456,453
874.384583,445
874.501831,450
874.618958,459
874.736145,448
874.853333,469
874.970459,447
875.087646,450
875.204834,456
875.32196,456
875.439148,443
875.556274,455
875.673401,471
875.790527,462
875.907715,450
876.024841,443
876.141968,467
876.259094,457
876.376282,470
876.493347,438
876.610474,466
876.7276,441
876.844727,447
876.961853,460
877.078918,440
877.195984,460
877.313171,442
877.430237,455
877.547302,462
877.664368,459
877.781433,448
877.898499,464
878.015625,451
878.13269,451
878.249695,462
878.366821,444
878.483887,456
878.600952,456
878.717957,453
878.834961,467
878.952087,467
879.069092,465
879.186157,466
879.303162,456
879.420227,450
879.537231,444
879.654236,451
879.77124,450
879.888306,458
880.005249,448
880.122314,428
880.239319,456
880.356323,444
880.473328,442
880.590271,444
880.707275,465
880.824341,461
880.941284,430
881.058228,461
881.175232,446
881.292236,454
881.40918,453
881.526123,470
881.643066,464
881.760071,465
881.877014,447
881.993958,449
882.11084,461
882.227783,464
882.344727,448
882.46167,444
882.578613,449
882.695618,451
882.812439,442
882.929382,465
883.046326,479
883.163208,443
883.280151,465
883.397034,460
883.513916,440
883.630798,453
883.747742,436
883.864563,454
883.981506,454
884.098389,460
884.21521,451
884.332153,470
884.448975,459
884.565796,470
884.682678,434
884.7995,466
884.916443,460
885.033264,474
885.150085,456
885.266968,464
885.383789,452
885.500671,456
885.617493,431
885.734314,466
885.851196,429
885.967896,466
886.084717,448
886.201599,467
886.318359,466
886.435181,459
886.552002,474
886.668762,456
886.785645,462
886.902344,482
887.019165,444
887.135925,475
887.252747,453
887.369446,450
887.486267,451
887.603027,450
887.719788,459
887.836548,470
887.953247,465
888.070068,469
888.186829,469
888.303528,453
888.420288,446
888.536987,455
888.653687,450
888.770447,466
888.887146,437
889.003967,459
889.120667,463
889.237305,464
889.354065,456
889.470703,453
889.587463,452
889.704163,475
889.820862,441
889.937561,472
890.054199,448
890.170837,468
890.287598,457
890.404236,454
890.520874,462
890.637634,461
890.754211,460
890.87085,459
890.987549,459
891.104187,477
891.220886,469
891.337463,473
891.454102,473
891.57074,459
891.687378,460
891.804077,460
891.920654,444
892.037231,484
892.15387,454
892.270447,470
892.387085,440
892.503723,449
892.6203,461
892.736877,463
892.853516,447
892.970032,471
893.08667,460
893.203186,464
893.319763,455
893.43634,473
893.552917,464
893.669556,458
893.786011,452
893.902588,457
894.019165,461
894.135681,459
894.252197,450
894.368835,454
894.485291,469
894.601868,454
894.718384,473
894.8349,470
894.951355,452
895.067932,462
895.184448,452
895.300964,457
895.417419,452
895.533936,454
895.650452,445
895.766907,454
895.883423,472
895.999878,451
896.116333,461
896.232849,456
896.349304,476
896.465759,478
896.582214,462
896.698669,468
896.815125,453
896.931641,469
897.048035,458
897.164551,474
897.280884,447
897.397339,466
897.513794,466
897.630249,453
897.746582,451
897.863098,468
897.979431,448
898.095886,481
898.212341,460
898.328674,468
898.445129,461
898.561462,465
898.677795,445
898.794312,470
898.910645,453
899.026978,481
899.143433,442
899.259766,454
899.37616,453
899.492493,446
899.608765,474
899.725159,469
899.841553,449
899.957947,464
900.07428,478
900.190552,459
900.306946,471
900.423157,494
900.53949,459
900.655884,469
900.772156,459
900.888489,468
901.004822,458
901.121033,468
901.237366,455
901.353699,474
901.46991,442
901.586304,467
901.702515,445
901.818787,460
901.93512,465
902.051331,472
902.167603,471
902.283875,469
902.400085,453
902.516418,465
902.632629,474
902.74884,483
902.865112,467
902.981384,464
903.097595,467
903.213867,493
903.330017,474
903.446289,472
903.5625,444
903.67865,484
903.794922,468
903.911072,465
904.027344,461
904.143494,483
904.259705,468
904.375916,471
904.492065,465
904.608215,487
904.724426,441
904.840576,470
904.956726,451
905.072876,472
905.189087,452
905.305176,471
905.421387,458
905.537537,486
905.653687,460
905.769775,473
905.885925,462
906.002014,458
906.118164,471
906.234314,472
906.350403,465
906.466492,469
906.582642,462
906.69873,474
906.814758,462
906.930908,482
907.046936,459
907.163086,480
907.279175,464
907.395264,471
907.511353,468
907.62738,466
907.743408,455
907.859497,472
907.975525,480
908.091553,471
908.207703,447
908.32373,475
908.439758,470
908.555786,479
908.671814,456
908.787842,457
908.90387,465
909.019775,449
909.135864,454
909.251892,488
909.367859,471
909.483826,471
909.599854,467
909.715881,469
909.831848,462
909.947815,467
910.063782,459
910.179749,493
910.295776,465
910.411743,468
910.527649,476
910.643616,469
910.759583,459
910.875488,475
910.991455,492
911.107361,507
911.223267,472
911.339294,459
911.4552,461
911.571106,474
911.687073,449
911.802979,467
911.918823,467
912.034729,469
912.150635,468
912.266602,465
912.382446,468
912.498352,472
912.614197,477
912.730103,462
912.846008,461
