792.44574,733
792.56488,754
792.68396,779
792.80304,735
792.92218,673
793.041199,712
793.160339,691
793.279419,699
793.398499,691
793.517578,675
793.636658,679
793.755737,676
793.874817,692
793.993896,679
794.112976,659
794.232056,653
794.351074,611
794.470215,652
794.589233,656
794.708313,645
794.827393,631
794.946411,644
795.065552,636
795.18457,637
795.303589,604
795.422668,658
795.541687,624
795.660767,626
795.779846,607
795.898865,627
796.017883,619
796.136963,626
796.255981,628
796.375061,629
796.49408,617
796.613037,651
796.732117,616
796.851135,604
796.970154,611
797.089233,608
797.208191,593
797.327271,623
797.446228,603
797.565186,620
797.684265,601
797.803223,605
797.922241,611
798.04126,582
798.160278,619
798.279297,598
798.398315,611
798.517273,590
798.636292,610
798.75531,585
798.874268,604
798.993286,606
799.112244,607
799.231323,608
799.350281,595
799.469238,603
799.588257,579
799.707153,595
799.826111,609
799.945129,600
800.064087,593
800.183044,599
800.302063,602
800.421021,596
800.539978,600
800.658936,584
800.777893,603
800.896912,591
801.015747,580
801.134705,571
801.253723,565
801.37262,623
801.491638,589
801.610535,603
801.729492,580
801.84845,576
801.967407,591
802.086243,601
802.205261,596
802.324158,606
802.443115,628
802.562073,588
802.680969,588
802.799927,600
802.918762,594
803.037659,582
803.156677,609
803.275574,598
803.39447,597
803.513428,611
803.632263,599
803.751221,591
803.870117,590
803.989014,607
804.107971,585
804.226746,616
804.345642,608
804.4646,618
804.583496,598
804.702393,589
804.821228,597
804.940125,600
805.059021,598
805.177917,627
805.296814,598
805.415649,598
805.534546,599
805.653442,599
805.772278,598
805.891113,602
806.01001,619
806.128906,598
806.247742,602
806.366577,604
806.485413,598
806.604309,614
806.723145,598
806.84198,599
806.960876,589
807.079712,612
807.198486,631
807.317383,624
807.436218,614
807.554993,595
807.673889,603
807.792725,601
807.91156,600
808.030396,619
808.14917,615
808.268005,596
808.386841,615
808.505676,622
808.624451,631
808.743286,610
808.862122,592
808.980896,600
809.099731,605
809.218506,626
809.337341,622
809.456116,632
809.57489,594
809.693726,629
809.8125,621
809.931274,615
810.050049,607
810.168884,641
810.287659,626
810.406372,622
810.525269,612
810.643982,611
810.762756,609
810.881531,625
811.000305,631
811.11908,624
811.237854,625
811.356567,643
811.475403,619
811.594116,621
811.71283,604
811.831604,590
811.950378,611
812.069153,634
812.187927,629
812.30658,632
812.425415,632
812.544128,615
812.662781,601
812.781616,617
812.900269,596
813.019043,634
813.137756,609
813.256531,619
813.375244,608
813.493896,636
813.612671,604
813.731384,625
813.850037,608
813.96875,595
814.087524,632
814.206238,587
814.324951,607
814.443604,620
814.562256,605
814.68103,609
814.799683,603
814.918335,616
815.037109,627
815.155762,619
815.274475,600
815.393188,594
815.511841,613
815.630554,608
815.749146,619
815.867859,587
815.986572,568
816.105164,620
816.223877,601
816.342529,600
816.461182,622
816.579895,628
816.698486,616
816.817139,623
816.935791,612
817.054504,623
817.173096,609
817.291748,598
817.4104,607
817.529053,584
817.647644,585
817.766235,598
817.884949,568
818.00354,562
818.122192,569
818.240845,541
818.359436,536
818.478088,549
818.59668,545
818.715271,521
818.833923,525
818.952515,544
819.071106,515
819.189758,508
819.30835,506
819.426941,518
819.545532,515
819.664124,519
819.782715,508
819.901306,518
820.019897,504
820.138489,511
820.25708,482
820.375671,499
820.494202,497
820.612732,501
820.731384,525
820.849915,507
820.968506,489
821.087097,500
821.205627,477
821.324158,491
821.442749,507
821.561279,481
821.679871,510
821.798401,506
821.916931,487
822.035461,473
822.154053,491
822.272583,488
822.391174,485
822.509583,499
822.628174,488
822.746704,502
822.865234,501
822.983765,496
823.102295,476
823.220825,478
823.339294,502
823.457825,483
823.576355,469
823.694824,477
823.813354,486
823.931885,498
824.050354,494
824.168884,476
824.287354,500
824.405823,480
824.524353,484
824.642822,518
824.761353,495
824.879822,528
824.998291,485
825.116699,503
825.235291,479
825.353699,508
825.472168,460
825.590637,493
825.709106,480
825.827576,503
825.946045,487
826.064453,494
826.182983,474
826.301392,472
826.4198,483
826.53833,504
826.656738,478
826.775208,475
826.893677,470
827.012024,477
827.130493,478
827.248962,477
827.36731,485
827.485779,487
827.604248,491
827.722595,478
827.841064,459
827.959412,485
828.077942,466
828.196289,473
828.314636,475
828.433105,486
828.551514,459
828.669861,490
828.78833,460
828.906677,463
829.025085,463
829.143433,478
829.261841,479
829.38031,471
829.498657,460
829.617004,460
829.735413,461
829.85376,479
829.972107,482
830.090515,470
830.208862,478
830.327209,481
830.445557,464
830.563904,462
830.682312,455
830.800659,487
830.919006,457
831.037354,480
831.155701,495
831.274048,477
831.392395,466
831.51062,479
831.629028,463
831.747314,477
831.865662,465
831.984009,464
832.102356,468
832.220642,469
832.338928,451
832.457275,476
832.575623,476
832.693909,471
832.812134,465
832.930481,470
833.048828,466
833.167114,463
833.2854,469
833.403687,440
833.521973,455
833.640259,462
833.758545,462
833.876831,449
833.995056,479
834.113281,480
834.231628,477
834.349915,459
834.468201,470
834.586426,470
834.704651,482
834.822998,472
834.941162,475
835.059448,472
835.177673,468
835.295959,467
835.414246,465
835.53241,469
835.650635,479
835.768921,467
835.887146,481
836.005371,490
836.123596,472
836.241821,483
836.360046,476
836.478271,499
836.596497,467
836.714722,472
836.832886,477
836.95105,486
837.069336,495
837.1875,498
837.305725,472
837.423889,482
837.542053,484
837.660339,471
837.778503,476
837.896667,492
838.014832,474
838.132996,482
838.25116,490
838.369385,486
838.487488,469
838.605713,496
838.723877,478
838.84198,499
838.960205,489
839.078308,491
839.196472,474
839.314636,489
839.4328,463
839.550964,487
839.669067,482
839.787231,496
839.905396,482
840.023499,490
840.141602,503
840.259766,489
840.377869,492
840.495972,478
840.614136,483
840.732239,456
840.850342,477
840.968445,489
841.086548,480
841.204651,493
841.322754,478
841.440918,487
841.55896,468
841.677002,486
841.795166,484
841.913208,486
842.031311,464
842.149353,482
842.267456,470
842.385498,484
842.503601,469
842.621643,461
842.739746,479
842.857788,474
842.97583,482
843.093933,475
843.211975,469
843.330017,480
843.44812,474
843.566101,486
843.684204,458
843.802246,472
843.920227,474
844.038269,484
844.156311,460
844.274292,464
844.392395,455
844.510376,459
844.628357,458
844.74646,474
844.864441,471
844.982422,476
845.100403,464
845.218384,473
845.336426,468
845.454468,459
845.572449,465
845.69043,498
845.808411,482
845.926453,456
846.044373,474
846.162354,442
846.280396,456
846.398315,465
846.516296,477
846.634216,473
846.752197,445
846.870178,475
846.988098,466
847.106079,480
847.22406,483
847.34198,475
847.4599,478
847.577881,465
847.695801,478
847.813782,467
847.931641,448
848.049561,484
848.167603,476
848.285461,475
848.403381,479
848.521362,466
848.639221,461
848.75708,455
848.875,451
848.99292,445
849.110901,458
849.22876,461
849.34668,460
849.464539,452
849.582458,467
849.700317,476
849.818176,480
849.936096,475
850.053955,484
850.171875,465
850.289673,447
850.407593,487
850.525452,452
850.643311,454
850.761169,474
850.878967,451
850.996887,460
851.114746,466
851.232544,477
851.350403,451
851.468262,465
851.58606,459
851.703979,476
851.821777,486
851.939636,464
852.057434,478
852.175232,469
852.293091,460
852.410889,471
852.528687,469
852.646545,484
852.764343,493
852.88208,489
852.999939,466
853.117676,476
853.235535,474
853.353271,464
853.471069,462
853.588928,461
853.706604,462
853.824402,448
853.9422,493
854.059998,464
854.177734,456
854.295532,465
854.413269,475
854.531006,485
854.648804,475
854.766541,467
854.884277,449
855.002014,461
855.119751,483
855.237549,478
855.355225,485
855.473022,487
855.590698,465
855.708435,474
855.826172,467
855.943848,480
856.061646,488
856.179321,480
856.296997,487
856.414795,474
856.53241,488
856.650085,470
856.767822,479
856.885559,491
857.003174,464
857.120911,476
857.238586,489
857.356201,477
857.473938,489
857.591614,467
857.709351,484
857.826965,475
857.944641,457
858.062317,470
858.179993,475
858.297668,474
858.415283,477
858.532959,466
858.650574,502
858.768188,478
858.885803,470
859.003479,469
859.121094,465
859.23877,481
859.356384,467
859.473999,450
859.591675,460
859.709229,471
859.826843,473
859.944458,452
860.062012,471
860.179626,453
860.297302,475
860.414856,470
860.532471,472
860.650024,470
860.767639,472
860.885193,484
861.002808,460
861.120361,461
861.237976,465
861.35553,471
861.473022,454
861.590698,471
861.708191,453
861.825745,476
861.943298,445
862.060852,443
862.178406,466
862.295959,467
862.413513,478
862.531006,445
862.64856,459
862.766113,454
862.883667,457
863.00116,453
863.118713,486
863.236206,457
863.353699,434
863.471252,468
863.588745,455
863.706177,471
863.82373,460
863.941162,443
864.058716,483
864.176208,456
864.29364,470
864.411194,438
864.528687,464
864.646118,456
864.763611,464
864.881042,453
864.998535,455
865.116028,478
865.233459,457
865.350891,476
865.468384,458
865.585754,439
865.703308,467
865.820679,462
865.938171,452
866.055542,468
866.173035,462
866.290466,443
866.407837,459
866.52533,472
866.6427,451
866.760071,448
866.877563,462
866.994934,473
867.112305,468
867.229736,454
867.347107,477
867.464539,480
867.58197,463
867.699341,486
867.81665,475
867.934082,444
868.051453,480
868.168823,497
868.286194,473
868.403564,470
868.520935,448
868.638306,487
868.755676,470
868.872986,458
868.990295,470
869.107727,460
869.225037,467
869.342346,454
869.459717,492
869.577026,472
869.694336,474
869.811707,466
869.929016,455
870.046326,461
870.163635,479
870.280945,481
870.398254,482
870.515564,481
870.632812,451
870.750183,482
870.867432,470
870.984741,487
871.102051,473
871.219299,476
871.336609,481
871.453918,477
871.571106,469
871.688416,465
871.805664,471
871.922852,487
872.040222,487
872.157471,484
872.274719,464
872.391968,492
872.509155,487
872.626465,464
872.743652,469
872.860962,487
872.978149,462
873.095337,475
873.212646,479
873.329834,466
873.44696,466
873.564209,463
873.681396,474
873.798645,487
873.915894,465
874.03302,469
874.150208,482
874.267456,474
874.384583,489
874.501831,471
874.618958,453
874.736145,472
874.853333,481
874.970459,472
875.087646,482
875.204834,481
875.32196,481
875.439148,489
875.556274,471
875.673401,490
875.790527,480
875.907715,480
876.024841,445
876.141968,458
876.259094,477
876.376282,464
876.493347,471
876.610474,470
876.7276,484
876.844727,473
876.961853,485
877.078918,489
877.195984,464
877.313171,470
877.430237,479
877.547302,449
877.664368,480
877.781433,486
877.898499,470
878.015625,462
878.13269,489
878.249695,473
878.366821,472
878.483887,471
878.600952,469
878.717957,465
878.834961,468
878.952087,462
879.069092,461
879.186157,449
879.303162,463
879.420227,464
879.537231,483
879.654236,461
879.77124,462
879.888306,479
880.005249,449
880.122314,463
880.239319,455
880.356323,461
880.473328,460
880.590271,463
880.707275,468
880.824341,465
880.941284,457
881.058228,457
881.175232,463
881.292236,460
881.40918,451
881.526123,448
881.643066,457
881.760071,477
881.877014,485
881.993958,454
882.11084,448
882.227783,450
882.344727,454
882.46167,454
882.578613,467
882.695618,456
882.812439,447
882.929382,445
883.046326,461
883.163208,462
883.280151,461
883.397034,482
883.513916,465
883.630798,451
883.747742,473
883.864563,463
883.981506,479
884.098389,468
884.21521,474
884.332153,480
884.448975,473
884.565796,459
884.682678,453
884.7995,483
884.916443,483
885.033264,466
885.150085,485
885.266968,474
885.383789,487
885.500671,478
885.617493,498
885.734314,467
885.851196,469
885.967896,480
886.084717,484
886.201599,496
886.318359,495
886.435181,483
886.552002,497
886.668762,487
886.785645,497
886.902344,480
887.019165,494
887.135925,474
887.252747,477
887.369446,510
887.486267,473
887.603027,473
887.719788,496
887.836548,458
887.953247,480
888.070068,482
888.186829,492
888.303528,478
888.420288,485
888.536987,478
888.653687,467
888.770447,468
888.887146,461
889.003967,445
889.120667,486
889.237305,480
889.354065,485
889.470703,467
889.587463,481
889.704163,462
889.820862,467
889.937561,479
890.054199,477
890.170837,482
890.287598,461
890.404236,468
890.520874,483
890.637634,452
890.754211,458
890.87085,467
890.987549,458
891.104187,471
891.220886,465
891.337463,446
891.454102,464
891.57074,450
891.687378,468
891.804077,458
891.920654,480
892.037231,466
892.15387,483
892.270447,465
892.387085,468
892.503723,480
892.6203,458
892.736877,465
892.853516,460
892.970032,453
893.08667,461
893.203186,461
893.319763,461
893.43634,458
893.552917,473
893.669556,453
893.786011,466
893.902588,466
894.019165,453
894.135681,476
894.252197,467
894.368835,463
894.485291,471
894.601868,458
894.718384,483
894.8349,450
894.951355,445
895.067932,470
895.184448,458
895.300964,466
895.417419,467
895.533936,466
895.650452,465
895.766907,474
895.883423,468
895.999878,464
896.116333,470
896.232849,451
896.349304,488
896.465759,479
896.582214,459
896.698669,456
896.815125,461
896.931641,448
897.048035,454
897.164551,476
897.280884,448
897.397339,469
897.513794,464
897.630249,454
897.746582,474
897.863098,494
897.979431,475
898.095886,460
898.212341,481
898.328674,457
898.445129,473
898.561462,445
898.677795,446
898.794312,456
898.910645,463
899.026978,480
899.143433,460
899.259766,479
899.37616,460
899.492493,468
899.608765,474
899.725159,454
899.841553,460
899.957947,445
900.07428,469
900.190552,474
900.306946,474
900.423157,484
900.53949,473
900.655884,469
900.772156,474
900.888489,462
901.004822,458
901.121033,475
901.237366,487
901.353699,486
901.46991,475
901.586304,474
901.702515,453
901.818787,478
901.93512,478
902.051331,449
902.167603,497
902.283875,468
902.400085,468
902.516418,475
902.632629,495
902.74884,481
902.865112,481
902.981384,469
903.097595,489
903.213867,481
903.330017,496
903.446289,494
903.5625,482
903.67865,470
903.794922,475
903.911072,486
904.027344,465
904.143494,478
904.259705,478
904.375916,470
904.492065,481
904.608215,479
904.724426,478
904.840576,465
904.956726,451
905.072876,481
905.189087,478
905.305176,467
905.421387,489
905.537537,443
905.653687,479
905.769775,488
905.885925,473
906.002014,485
906.118164,478
906.234314,500
906.350403,460
906.466492,464
906.582642,471
906.69873,471
906.814758,457
906.930908,454
907.046936,470
907.163086,460
907.279175,477
907.395264,473
907.511353,463
907.62738,455
907.743408,446
907.859497,478
907.975525,460
908.091553,467
908.207703,469
908.32373,474
908.439758,469
908.555786,469
908.671814,460
908.787842,459
908.90387,463
909.019775,462
909.135864,473
909.251892,462
909.367859,475
909.483826,481
909.599854,464
909.715881,464
909.831848,489
909.947815,445
910.063782,458
910.179749,455
910.295776,476
910.411743,489
910.527649,479
910.643616,462
910.759583,483
910.875488,477
910.991455,462
911.107361,460
911.223267,469
911.339294,478
911.4552,479
911.571106,450
911.687073,484
911.802979,467
911.918823,480
912.034729,461
912.150635,482
912.266602,462
912.382446,465
912.498352,446
912.614197,490
912.730103,458
912.846008,467
792.44574,705
792.56488,725
792.68396,781
792.80304,737
792.92218,701
793.041199,682
793.160339,679
793.279419,688
793.398499,704
793.517578,688
793.636658,652
793.755737,676
793.874817,677
793.993896,681
794.112976,661
794.232056,661
794.351074,640
794.470215,664
794.589233,659
794.708313,658
794.827393,635
794.946411,619
795.065552,664
795.18457,632
795.303589,632
795.422668,651
795.541687,626
795.660767,622
795.779846,599
795.898865,619
796.017883,603
796.136963,639
796.255981,635
796.375061,622
796.49408,631
796.613037,618
796.732117,587
796.851135,631
796.970154,603
797.089233,606
797.208191,586
797.327271,599
797.446228,633
797.565186,616
797.684265,613
797.803223,611
797.922241,590
798.04126,595
798.160278,628
798.279297,610
798.398315,568
798.517273,607
798.636292,610
798.75531,602
798.874268,622
798.993286,586
799.112244,610
799.231323,591
799.350281,606
799.469238,598
799.588257,594
799.707153,584
799.826111,587
799.945129,586
800.064087,615
800.183044,611
800.302063,591
800.421021,590
800.539978,608
800.658936,608
800.777893,593
800.896912,593
801.015747,611
801.134705,599
801.253723,618
801.37262,600
801.491638,612
801.610535,582
801.729492,613
801.84845,590
801.967407,595
802.086243,587
802.205261,606
802.324158,604
802.443115,587
802.562073,626
802.680969,589
802.799927,589
802.918762,598
803.037659,618
803.156677,610
803.275574,588
803.39447,595
803.513428,591
803.632263,613
803.751221,592
803.870117,597
803.989014,578
804.107971,610
804.226746,587
804.345642,612
804.4646,593
804.583496,617
804.702393,598
804.821228,615
804.940125,597
805.059021,599
805.177917,609
805.296814,633
805.415649,628
805.534546,629
805.653442,595
805.772278,621
805.891113,623
806.01001,621
806.128906,610
806.247742,599
806.366577,611
806.485413,623
806.604309,613
806.723145,615
806.84198,613
806.960876,595
807.079712,606
807.198486,612
807.317383,602
807.436218,618
807.554993,615
807.673889,607
807.792725,607
807.91156,611
808.030396,608
808.14917,608
808.268005,624
808.386841,614
808.505676,622
808.624451,617
808.743286,615
808.862122,606
808.980896,607
809.099731,648
809.218506,597
809.337341,637
809.456116,623
809.57489,625
809.693726,634
809.8125,632
809.931274,633
810.050049,624
810.168884,644
810.287659,647
810.406372,629
810.525269,614
810.643982,629
810.762756,616
810.881531,637
811.000305,625
811.11908,599
811.237854,608
811.356567,600
811.475403,599
811.594116,589
811.71283,599
811.831604,640
811.950378,624
812.069153,604
812.187927,613
812.30658,624
812.425415,617
812.544128,627
812.662781,639
812.781616,607
812.900269,611
813.019043,612
813.137756,630
813.256531,598
813.375244,609
813.493896,634
813.612671,647
813.731384,618
813.850037,641
813.96875,618
814.087524,610
814.206238,605
814.324951,600
814.443604,630
814.562256,629
814.68103,613
814.799683,609
814.918335,612
815.037109,625
815.155762,619
815.274475,622
815.393188,605
815.511841,632
815.630554,641
815.749146,625
815.867859,587
815.986572,591
816.105164,610
816.223877,614
816.342529,603
816.461182,596
816.579895,627
816.698486,617
816.817139,636
816.935791,599
817.054504,597
817.173096,603
817.291748,603
817.4104,608
817.529053,584
817.647644,588
817.766235,582
817.884949,585
818.00354,566
818.122192,576
818.240845,536
818.359436,557
818.478088,558
818.59668,553
818.715271,553
818.833923,528
818.952515,554
819.071106,517
819.189758,539
819.30835,537
819.426941,503
819.545532,504
819.664124,515
819.782715,513
819.901306,511
820.019897,510
820.138489,504
820.25708,517
820.375671,514
820.494202,506
820.612732,513
820.731384,510
820.849915,521
820.968506,511
821.087097,499
821.205627,499
821.324158,517
821.442749,502
821.561279,489
821.679871,487
821.798401,491
821.916931,479
822.035461,486
822.154053,506
822.272583,488
822.391174,491
822.509583,491
822.628174,486
822.746704,470
822.865234,487
822.983765,504
823.102295,506
823.220825,482
823.339294,531
823.457825,481
823.576355,478
823.694824,506
823.813354,506
823.931885,508
824.050354,495
824.168884,485
824.287354,519
824.405823,483
824.524353,501
824.642822,484
824.761353,503
824.879822,492
824.998291,507
825.116699,499
825.235291,484
825.353699,470
825.472168,490
825.590637,500
825.709106,491
825.827576,491
825.946045,487
826.064453,491
826.182983,489
826.301392,471
826.4198,482
826.53833,458
826.656738,487
826.775208,484
826.893677,470
827.012024,466
827.130493,489
827.248962,482
827.36731,485
827.485779,473
827.604248,447
827.722595,460
827.841064,487
827.959412,476
828.077942,474
828.196289,476
828.314636,477
828.433105,477
828.551514,510
828.669861,450
828.78833,488
828.906677,456
829.025085,489
829.143433,474
829.261841,465
829.38031,464
829.498657,461
829.617004,489
829.735413,481
829.85376,457
829.972107,474
830.090515,477
830.208862,487
830.327209,465
830.445557,468
830.563904,450
830.682312,456
830.800659,474
830.919006,460
831.037354,482
831.155701,489
831.274048,459
831.392395,481
831.51062,476
831.629028,462
831.747314,458
831.865662,465
831.984009,500
832.102356,464
832.220642,469
832.338928,464
832.457275,483
832.575623,480
832.693909,470
832.812134,465
832.930481,459
833.048828,493
833.167114,465
833.2854,478
833.403687,466
833.521973,480
833.640259,483
833.758545,460
833.876831,455
833.995056,472
834.113281,482
834.231628,477
834.349915,465
834.468201,485
834.586426,489
834.704651,455
834.822998,476
834.941162,487
835.059448,456
835.177673,473
835.295959,481
835.414246,471
835.53241,488
835.650635,477
835.768921,446
835.887146,463
836.005371,497
836.123596,473
836.241821,477
836.360046,467
836.478271,489
836.596497,474
836.714722,475
836.832886,494
836.95105,475
837.069336,496
837.1875,474
837.305725,492
837.423889,477
837.542053,487
837.660339,467
837.778503,493
837.896667,476
838.014832,490
838.132996,458
838.25116,488
838.369385,483
838.487488,501
838.605713,476
838.723877,475
838.84198,488
838.960205,473
839.078308,462
839.196472,505
839.314636,482
839.4328,483
839.550964,496
839.669067,486
839.787231,473
839.905396,474
840.023499,483
840.141602,490
840.259766,492
840.377869,475
840.495972,488
840.614136,471
840.732239,471
840.850342,478
840.968445,473
841.086548,494
841.204651,491
841.322754,475
841.440918,483
841.55896,463
841.677002,461
841.795166,469
841.913208,492
842.031311,477
842.149353,476
842.267456,486
842.385498,476
842.503601,483
842.621643,479
842.739746,475
842.857788,494
842.97583,477
843.093933,461
843.211975,480
843.330017,463
843.44812,475
843.566101,468
843.684204,461
843.802246,474
843.920227,483
844.038269,466
844.156311,469
844.274292,444
844.392395,464
844.510376,440
844.628357,451
844.74646,469
844.864441,480
844.982422,459
845.100403,480
845.218384,452
845.336426,456
845.454468,490
845.572449,475
845.69043,447
845.808411,476
845.926453,458
846.044373,476
846.162354,461
846.280396,471
846.398315,482
846.516296,472
846.634216,451
846.752197,463
846.870178,489
846.988098,487
847.106079,467
847.22406,463
847.34198,456
847.4599,464
847.577881,479
847.695801,465
847.813782,492
847.931641,454
848.049561,452
848.167603,460
848.285461,459
848.403381,461
848.521362,466
848.639221,470
848.75708,459
848.875,445
848.99292,459
849.110901,463
849.22876,477
849.34668,472
849.464539,463
849.582458,468
849.700317,446
849.818176,461
849.936096,482
850.053955,475
850.171875,447
850.289673,480
850.407593,461
850.525452,482
850.643311,475
850.761169,466
850.878967,460
850.996887,485
851.114746,463
851.232544,475
851.350403,462
851.468262,468
851.58606,468
851.703979,457
851.821777,456
851.939636,457
852.057434,439
852.175232,468
852.293091,463
852.410889,479
852.528687,479
852.646545,493
852.764343,472
852.88208,461
852.999939,461
853.117676,466
853.235535,469
853.353271,461
853.471069,462
853.588928,466
853.706604,469
853.824402,471
853.9422,478
854.059998,479
854.177734,465
854.295532,465
854.413269,446
854.531006,466
854.648804,460
854.766541,461
854.884277,459
855.002014,461
855.119751,477
855.237549,475
855.355225,475
855.473022,470
855.590698,446
855.708435,482
855.826172,455
855.943848,475
856.061646,469
856.179321,483
856.296997,445
856.414795,471
856.53241,480
856.650085,477
856.767822,475
856.885559,466
857.003174,472
857.120911,461
857.238586,467
857.356201,474
857.473938,465
857.591614,462
857.709351,466
857.826965,465
857.944641,475
858.062317,496
858.179993,465
858.297668,470
858.415283,465
858.532959,480
858.650574,486
858.768188,469
858.885803,456
859.003479,480
859.121094,457
859.23877,476
859.356384,472
859.473999,474
859.591675,475
859.709229,473
859.826843,464
859.944458,472
860.062012,454
860.179626,478
860.297302,457
860.414856,446
860.532471,469
860.650024,439
860.767639,475
860.885193,468
861.002808,468
861.120361,478
861.237976,447
861.35553,469
861.473022,466
861.590698,466
861.708191,467
861.825745,470
861.943298,462
862.060852,475
862.178406,456
862.295959,454
862.413513,452
862.531006,468
862.64856,471
862.766113,464
862.883667,474
863.00116,463
863.118713,465
863.236206,465
863.353699,459
863.471252,472
863.588745,454
863.706177,467
863.82373,479
863.941162,471
864.058716,470
864.176208,469
864.29364,446
864.411194,473
864.528687,437
864.646118,465
864.763611,472
864.881042,476
864.998535,463
865.116028,451
865.233459,448
865.350891,472
865.468384,452
865.585754,450
865.703308,466
865.820679,475
865.938171,479
866.055542,471
866.173035,465
866.290466,480
866.407837,465
866.52533,448
866.6427,460
866.760071,450
866.877563,464
866.994934,456
867.112305,468
867.229736,454
867.347107,475
867.464539,473
867.58197,488
867.699341,455
867.81665,457
867.934082,480
868.051453,464
868.168823,471
868.286194,466
868.403564,478
868.520935,451
868.638306,457
868.755676,469
868.872986,486
868.990295,455
869.107727,471
869.225037,502
869.342346,474
869.459717,464
869.577026,461
869.694336,446
869.811707,469
869.929016,459
870.046326,490
870.163635,465
870.280945,462
870.398254,478
870.515564,498
870.632812,461
870.750183,475
870.867432,473
870.984741,472
871.102051,471
871.219299,485
871.336609,484
871.453918,494
871.571106,468
871.688416,493
871.805664,459
871.922852,474
872.040222,448
872.157471,475
872.274719,459
872.391968,491
872.509155,458
872.626465,479
872.743652,463
872.860962,485
872.978149,460
873.095337,452
873.212646,456
873.329834,481
873.44696,476
873.564209,463
873.681396,453
873.798645,464
873.915894,468
874.03302,473
874.150208,467
874.267456,469
874.384583,468
874.501831,480
874.618958,473
874.736145,502
874.853333,480
874.970459,469
875.087646,480
875.204834,480
875.32196,472
875.439148,460
875.556274,477
875.673401,478
875.790527,460
875.907715,469
876.024841,482
876.141968,459
876.259094,486
876.376282,467
876.493347,457
876.610474,473
876.7276,476
876.844727,482
876.961853,450
877.078918,463
877.195984,462
877.313171,477
877.430237,469
877.547302,473
877.664368,462
877.781433,465
877.898499,475
878.015625,460
878.13269,462
878.249695,463
878.366821,459
878.483887,475
878.600952,479
878.717957,463
878.834961,468
878.952087,462
879.069092,453
879.186157,470
879.303162,475
879.420227,472
879.537231,444
879.654236,469
879.77124,455
879.888306,460
880.005249,459
880.122314,465
880.239319,461
880.356323,452
880.473328,483
880.590271,455
880.707275,468
880.824341,429
880.941284,450
881.058228,467
881.175232,439
881.292236,480
881.40918,462
881.526123,473
881.643066,468
881.760071,464
881.877014,459
881.993958,465
882.11084,462
882.227783,455
882.344727,484
882.46167,457
882.578613,450
882.695618,463
882.812439,473
882.929382,455
883.046326,461
883.163208,455
883.280151,468
883.397034,460
883.513916,484
883.630798,472
883.747742,481
883.864563,468
883.981506,458
884.098389,469
884.21521,467
884.332153,472
884.448975,456
884.565796,476
884.682678,458
884.7995,479
884.916443,470
885.033264,459
885.150085,474
885.266968,486
885.383789,475
885.500671,493
885.617493,498
885.734314,495
885.851196,462
885.967896,492
886.084717,477
886.201599,480
886.318359,459
886.435181,483
886.552002,490
886.668762,467
886.785645,473
886.902344,477
887.019165,488
887.135925,492
887.252747,485
887.369446,486
887.486267,477
887.603027,480
887.719788,471
887.836548,476
887.953247,490
888.070068,486
888.186829,502
888.303528,452
888.420288,467
888.536987,482
888.653687,445
888.770447,477
888.887146,442
889.003967,469
889.120667,453
889.237305,471
889.354065,452
889.470703,473
889.587463,467
889.704163,461
889.820862,463
889.937561,454
890.054199,453
890.170837,466
890.287598,462
890.404236,460
890.520874,456
890.637634,467
890.754211,468
890.87085,454
890.987549,481
891.104187,475
891.220886,479
891.337463,459
891.454102,463
891.57074,454
891.687378,461
891.804077,470
891.920654,450
892.037231,463
892.15387,480
892.270447,462
892.387085,457
892.503723,452
892.6203,484
892.736877,462
892.853516,463
892.970032,468
893.08667,470
893.203186,475
893.319763,439
893.43634,477
893.552917,473
893.669556,454
893.786011,463
893.902588,478
894.019165,463
894.135681,469
894.252197,459
894.368835,466
894.485291,447
894.601868,468
894.718384,477
894.8349,461
894.951355,458
895.067932,455
895.184448,452
895.300964,477
895.417419,451
895.533936,463
895.650452,469
895.766907,482
895.883423,483
895.999878,466
896.116333,481
896.232849,466
896.349304,463
896.465759,463
896.582214,482
896.698669,452
896.815125,467
896.931641,456
897.048035,487
897.164551,463
897.280884,474
897.397339,464
897.513794,465
897.630249,479
897.746582,450
897.863098,464
897.979431,452
898.095886,502
898.212341,456
898.328674,481
898.445129,468
898.561462,467
898.677795,472
898.794312,476
898.910645,450
899.026978,479
899.143433,470
899.259766,446
899.37616,477
899.492493,480
899.608765,468
899.725159,470
899.841553,473
899.957947,471
900.07428,484
900.190552,477
900.306946,474
900.423157,478
900.53949,480
900.655884,469
900.772156,470
900.888489,469
901.004822,468
901.121033,475
901.237366,495
901.353699,470
901.46991,470
901.586304,465
901.702515,449
901.818787,468
901.93512,476
902.051331,477
902.167603,461
902.283875,495
902.400085,496
902.516418,489
902.632629,482
902.74884,474
902.865112,477
902.981384,496
903.097595,465
903.213867,478
903.330017,489
903.446289,489
903.5625,460
903.67865,489
903.794922,479
903.911072,470
904.027344,451
904.143494,488
904.259705,467
904.375916,470
904.492065,469
904.608215,477
904.724426,468
904.840576,494
904.956726,466
905.072876,474
905.189087,463
905.305176,483
905.421387,458
905.537537,453
905.653687,457
905.769775,469
905.885925,475
906.002014,491
906.118164,468
906.234314,482
906.350403,492
906.466492,462
906.582642,488
906.69873,472
906.814758,474
906.930908,475
907.046936,465
907.163086,478
907.279175,446
907.395264,471
907.511353,479
907.62738,465
907.743408,483
907.859497,459
907.975525,466
908.091553,462
908.207703,467
908.32373,466
908.439758,465
908.555786,466
908.671814,470
908.787842,472
908.90387,489
909.019775,472
909.135864,445
909.251892,469
909.367859,466
909.483826,481
909.599854,461
909.715881,471
909.831848,473
909.947815,471
910.063782,490
910.179749,474
910.295776,470
910.411743,468
910.527649,479
910.643616,470
910.759583,455
910.875488,468
910.991455,456
911.107361,468
911.223267,460
911.339294,472
911.4552,450
911.571106,467
911.687073,469
911.802979,481
911.918823,468
912.034729,481
912.150635,461
912.266602,475
912.382446,474
912.498352,487
912.614197,468
912.730103,462
912.846008,443
792.44574,751
792.56488,758
792.68396,783
792.80304,751
792.92218,707
793.041199,686
793.160339,721
793.279419,689
793.398499,664
793.517578,659
793.636658,662
793.755737,679
793.874817,685
793.993896,709
794.112976,647
794.232056,681
794.351074,650
794.470215,642
794.589233,670
794.708313,664
794.827393,645
794.946411,619
795.065552,650
795.18457,644
795.303589,654
795.422668,610
795.541687,645
795.660767,643
795.779846,631
795.898865,611
796.017883,625
796.136963,627
796.255981,626
796.375061,608
796.49408,613
796.613037,624
796.732117,597
796.851135,598
796.970154,614
797.089233,620
797.208191,607
797.327271,595
797.446228,603
797.565186,584
797.684265,608
797.803223,598
797.922241,595
798.04126,593
798.160278,618
798.279297,598
798.398315,587
798.517273,584
798.636292,603
798.75531,610
798.874268,598
798.993286,592
799.112244,619
799.231323,607
799.350281,602
799.469238,597
799.588257,588
799.707153,601
799.826111,605
799.945129,586
800.064087,614
800.183044,589
800.302063,634
800.421021,597
800.539978,609
800.658936,579
800.777893,619
800.896912,570
801.015747,590
801.134705,582
801.253723,606
801.37262,604
801.491638,574
801.610535,575
801.729492,597
801.84845,614
801.967407,605
802.086243,595
802.205261,611
802.324158,579
802.443115,623
802.562073,606
802.680969,592
802.799927,619
802.918762,597
803.037659,589
803.156677,611
803.275574,592
803.39447,599
803.513428,616
803.632263,624
803.751221,601
803.870117,583
803.989014,611
804.107971,625
804.226746,621
804.345642,605
804.4646,592
804.583496,605
804.702393,601
804.821228,588
804.940125,601
805.059021,620
805.177917,611
805.296814,597
805.415649,607
805.534546,603
805.653442,633
805.772278,626
805.891113,620
806.01001,617
806.128906,622
806.247742,629
806.366577,603
806.485413,646
806.604309,601
806.723145,599
806.84198,624
806.960876,606
807.079712,580
807.198486,617
807.317383,610
807.436218,615
807.554993,613
807.673889,627
807.792725,616
807.91156,629
808.030396,613
808.14917,615
808.268005,635
808.386841,614
808.505676,599
808.624451,624
808.743286,621
808.862122,594
808.980896,614
809.099731,626
809.218506,599
809.337341,609
809.456116,616
809.57489,601
809.693726,608
809.8125,628
809.931274,607
810.050049,647
810.168884,611
810.287659,620
810.406372,612
810.525269,604
810.643982,616
810.762756,590
810.881531,600
811.000305,624
811.11908,617
811.237854,613
811.356567,632
811.475403,623
811.594116,623
811.71283,617
811.831604,633
811.950378,630
812.069153,608
812.187927,622
812.30658,612
812.425415,629
812.544128,613
812.662781,636
812.781616,615
812.900269,612
813.019043,624
813.137756,620
813.256531,628
813.375244,643
813.493896,608
813.612671,631
813.731384,612
813.850037,619
813.96875,631
814.087524,604
814.206238,606
814.324951,595
814.443604,606
814.562256,601
814.68103,635
814.799683,612
814.918335,634
815.037109,619
815.155762,607
815.274475,635
815.393188,610
815.511841,610
815.630554,619
815.749146,591
815.867859,590
815.986572,622
816.105164,573
816.223877,607
816.342529,616
816.461182,599
816.579895,628
816.698486,632
816.817139,612
816.935791,637
817.054504,618
817.173096,624
817.291748,593
817.4104,615
817.529053,603
817.647644,571
817.766235,586
817.884949,587
818.00354,583
818.122192,563
818.240845,549
818.359436,577
818.478088,539
818.59668,528
818.715271,544
818.833923,522
818.952515,544
819.071106,525
819.189758,507
819.30835,524
819.426941,519
819.545532,514
819.664124,528
819.782715,512
819.901306,529
820.019897,520
820.138489,516
820.25708,511
820.375671,500
820.494202,512
820.612732,509
820.731384,493
820.849915,503
820.968506,514
821.087097,493
821.205627,497
821.324158,502
821.442749,490
821.561279,489
821.679871,500
821.798401,527
821.916931,504
822.035461,492
822.154053,503
822.272583,491
822.391174,499
822.509583,478
822.628174,486
822.746704,500
822.865234,484
822.983765,467
823.102295,485
823.220825,489
823.339294,479
823.457825,496
823.576355,493
823.694824,505
823.813354,484
823.931885,497
824.050354,499
824.168884,505
824.287354,496
824.405823,510
824.524353,482
824.642822,500
824.761353,498
824.879822,498
824.998291,493
825.116699,486
825.235291,495
825.353699,480
825.472168,489
825.590637,476
825.709106,497
825.827576,485
825.946045,480
826.064453,493
826.182983,480
826.301392,485
826.4198,477
826.53833,472
826.656738,478
826.775208,494
826.893677,493
827.012024,469
827.130493,499
827.248962,484
827.36731,480
827.485779,471
827.604248,484
827.722595,473
827.841064,483
827.959412,460
828.077942,470
828.196289,478
828.314636,446
828.433105,474
828.551514,474
828.669861,455
828.78833,480
828.906677,449
829.025085,482
829.143433,463
829.261841,479
829.38031,492
829.498657,465
829.617004,472
829.735413,482
829.85376,485
829.972107,466
830.090515,460
830.208862,486
830.327209,477
830.445557,479
830.563904,478
830.682312,473
830.800659,476
830.919006,464
831.037354,490
831.155701,470
831.274048,446
831.392395,487
831.51062,464
831.629028,501
831.747314,486
831.865662,470
831.984009,470
832.102356,470
832.220642,472
832.338928,458
832.457275,460
832.575623,485
832.693909,458
832.812134,503
832.930481,463
833.048828,476
833.167114,468
833.2854,487
833.403687,480
833.521973,464
833.640259,466
833.758545,476
833.876831,467
833.995056,465
834.113281,490
834.231628,464
834.349915,465
834.468201,461
834.586426,481
834.704651,489
834.822998,458
834.941162,465
835.059448,461
835.177673,496
835.295959,459
835.414246,473
835.53241,474
835.650635,486
835.768921,464
835.887146,457
836.005371,478
836.123596,476
836.241821,472
836.360046,478
836.478271,479
836.596497,472
836.714722,481
836.832886,466
836.95105,491
837.069336,490
837.1875,471
837.305725,488
837.423889,477
837.542053,477
837.660339,487
837.778503,460
837.896667,482
838.014832,522
838.132996,502
838.25116,489
838.369385,481
838.487488,495
838.605713,454
838.723877,494
838.84198,499
838.960205,472
839.078308,486
839.196472,491
839.314636,468
839.4328,480
839.550964,484
839.669067,477
839.787231,470
839.905396,466
840.023499,490
840.141602,490
840.259766,476
840.377869,457
840.495972,497
840.614136,479
840.732239,476
840.850342,497
840.968445,472
841.086548,483
841.204651,476
841.322754,473
841.440918,490
841.55896,499
841.677002,495
841.795166,481
841.913208,463
842.031311,467
842.149353,475
842.267456,469
842.385498,464
842.503601,479
842.621643,478
842.739746,488
842.857788,453
842.97583,489
843.093933,454
843.211975,481
843.330017,474
843.44812,467
843.566101,469
843.684204,482
843.802246,465
843.920227,481
844.038269,467
844.156311,456
844.274292,490
844.392395,465
844.510376,479
844.628357,475
844.74646,456
844.864441,469
844.982422,469
845.100403,459
845.218384,488
845.336426,467
845.454468,456
845.572449,461
845.69043,461
845.808411,464
845.926453,464
846.044373,455
846.162354,448
846.280396,457
846.398315,471
846.516296,478
846.634216,465
846.752197,468
846.870178,463
846.988098,488
847.106079,457
847.22406,464
847.34198,455
847.4599,475
847.577881,476
847.695801,481
847.813782,469
847.931641,445
848.049561,470
848.167603,486
848.285461,470
848.403381,441
848.521362,457
848.639221,472
848.75708,479
848.875,476
848.99292,468
849.110901,461
849.22876,492
849.34668,488
849.464539,471
849.582458,484
849.700317,481
849.818176,455
849.936096,465
850.053955,472
850.171875,483
850.289673,459
850.407593,475
850.525452,459
850.643311,482
850.761169,449
850.878967,457
850.996887,458
851.114746,456
851.232544,479
851.350403,439
851.468262,462
851.58606,455
851.703979,476
851.821777,472
851.939636,469
852.057434,456
852.175232,465
852.293091,462
852.410889,471
852.528687,470
852.646545,474
852.764343,468
852.88208,489
852.999939,462
853.117676,474
853.235535,449
853.353271,474
853.471069,457
853.588928,474
853.706604,483
853.824402,476
853.9422,487
854.059998,472
854.177734,461
854.295532,486
854.413269,478
854.531006,488
854.648804,469
854.766541,491
854.884277,463
855.002014,464
855.119751,471
855.237549,483
855.355225,476
855.473022,481
855.590698,463
855.708435,476
855.826172,478
855.943848,475
856.061646,463
856.179321,484
856.296997,479
856.414795,475
856.53241,489
856.650085,467
856.767822,473
856.885559,491
857.003174,483
857.120911,472
857.238586,474
857.356201,492
857.473938,470
857.591614,504
857.709351,473
857.826965,482
857.944641,504
858.062317,490
858.179993,491
858.297668,473
858.415283,480
858.532959,484
858.650574,481
858.768188,495
858.885803,485
859.003479,464
859.121094,451
859.23877,475
859.356384,468
859.473999,484
859.591675,464
859.709229,473
859.826843,458
859.944458,485
860.062012,466
860.179626,472
860.297302,472
860.414856,476
860.532471,477
860.650024,475
860.767639,455
860.885193,464
861.002808,448
861.120361,469
861.237976,455
861.35553,452
861.473022,461
861.590698,483
861.708191,468
861.825745,463
861.943298,461
862.060852,473
862.178406,453
862.295959,502
862.413513,471
862.531006,463
862.64856,448
862.766113,474
862.883667,465
863.00116,479
863.118713,475
863.236206,466
863.353699,476
863.471252,466
863.588745,458
863.706177,477
863.82373,445
863.941162,480
864.058716,483
864.176208,468
864.29364,470
864.411194,480
864.528687,459
864.646118,470
864.763611,448
864.881042,472
864.998535,450
865.116028,465
865.233459,460
865.350891,479
865.468384,466
865.585754,458
865.703308,459
865.820679,464
865.938171,456
866.055542,478
866.173035,479
866.290466,448
866.407837,445
866.52533,442
866.6427,451
866.760071,478
866.877563,461
866.994934,494
867.112305,476
867.229736,462
867.347107,480
867.464539,448
867.58197,465
867.699341,468
867.81665,468
867.934082,469
868.051453,453
868.168823,460
868.286194,463
868.403564,455
868.520935,468
868.638306,464
868.755676,476
868.872986,478
868.990295,471
869.107727,477
869.225037,468
869.342346,468
869.459717,465
869.577026,464
869.694336,457
869.811707,481
869.929016,465
870.046326,476
870.163635,477
870.280945,465
870.398254,472
870.515564,460
870.632812,485
870.750183,460
870.867432,470
870.984741,478
871.102051,468
871.219299,486
871.336609,462
871.453918,478
871.571106,467
871.688416,497
871.805664,457
871.922852,474
872.040222,480
872.157471,470
872.274719,471
872.391968,488
872.509155,468
872.626465,476
872.743652,479
872.860962,489
872.978149,472
873.095337,469
873.212646,462
873.329834,474
873.44696,477
873.564209,485
873.681396,467
873.798645,459
873.915894,476
874.03302,461
874.150208,462
874.267456,475
874.384583,459
874.501831,470
874.618958,475
874.736145,486
874.853333,485
874.970459,463
875.087646,467
875.204834,475
875.32196,463
875.439148,465
875.556274,470
875.673401,469
875.790527,461
875.907715,471
876.024841,475
876.141968,470
876.259094,485
876.376282,475
876.493347,463
876.610474,470
876.7276,468
876.844727,477
876.961853,481
877.078918,478
877.195984,451
877.313171,460
877.430237,472
877.547302,495
877.664368,480
877.781433,495
877.898499,477
878.015625,450
878.13269,475
878.249695,457
878.366821,460
878.483887,462
878.600952,478
878.717957,447
878.834961,464
878.952087,467
879.069092,450
879.186157,467
879.303162,464
879.420227,463
879.537231,450
879.654236,473
879.77124,456
879.888306,471
880.005249,459
880.122314,471
880.239319,464
880.356323,472
880.473328,470
880.590271,456
880.707275,453
880.824341,485
880.941284,458
881.058228,467
881.175232,467
881.292236,486
881.40918,453
881.526123,472
881.643066,465
881.760071,457
881.877014,457
881.993958,462
882.11084,456
882.227783,455
882.344727,462
882.46167,467
882.578613,446
882.695618,466
882.812439,467
882.929382,470
883.046326,452
883.163208,472
883.280151,477
883.397034,462
883.513916,463
883.630798,467
883.747742,447
883.864563,476
883.981506,487
884.098389,481
884.21521,468
884.332153,467
884.448975,448
884.565796,486
884.682678,477
884.7995,469
884.916443,489
885.033264,478
885.150085,454
885.266968,480
885.383789,482
885.500671,497
885.617493,487
885.734314,482
885.851196,481
885.967896,465
886.084717,483
886.201599,506
886.318359,477
886.435181,490
886.552002,483
886.668762,477
886.785645,485
886.902344,494
887.019165,477
887.135925,481
887.252747,479
887.369446,489
887.486267,481
887.603027,503
887.719788,481
887.836548,480
887.953247,464
888.070068,511
888.186829,459
888.303528,454
888.420288,465
888.536987,475
888.653687,471
888.770447,475
888.887146,439
889.003967,484
889.120667,455
889.237305,462
889.354065,472
889.470703,485
889.587463,463
889.704163,467
889.820862,466
889.937561,482
890.054199,441
890.170837,458
890.287598,455
890.404236,457
890.520874,460
890.637634,456
890.754211,465
890.87085,463
890.987549,459
891.104187,459
891.220886,462
891.337463,479
891.454102,472
891.57074,477
891.687378,462
891.804077,475
891.920654,458
892.037231,462
892.15387,458
892.270447,481
892.387085,454
892.503723,484
892.6203,479
892.736877,468
892.853516,461
892.970032,474
893.08667,461
893.203186,469
893.319763,462
893.43634,460
893.552917,456
893.669556,481
893.786011,460
893.902588,481
894.019165,467
894.135681,481
894.252197,464
894.368835,475
894.485291,456
894.601868,478
894.718384,460
894.8349,465
894.951355,470
895.067932,445
895.184448,458
895.300964,462
895.417419,452
895.533936,461
895.650452,472
895.766907,478
895.883423,446
895.999878,479
896.116333,460
896.232849,462
896.349304,475
896.465759,462
896.582214,466
896.698669,461
896.815125,469
896.931641,460
897.048035,462
897.164551,486
897.280884,465
897.397339,469
897.513794,476
897.630249,488
897.746582,470
897.863098,454
897.979431,497
898.095886,465
898.212341,457
898.328674,463
898.445129,474
898.561462,477
898.677795,469
898.794312,479
898.910645,461
899.026978,481
899.143433,471
899.259766,460
899.37616,461
899.492493,479
899.608765,467
899.725159,465
899.841553,467
899.957947,460
900.07428,454
900.190552,489
900.306946,480
900.423157,459
900.53949,478
900.655884,483
900.772156,487
900.888489,509
901.004822,473
901.121033,460
901.237366,481
901.353699,480
901.46991,459
901.586304,466
901.702515,463
901.818787,482
901.93512,449
902.051331,473
902.167603,460
902.283875,476
902.400085,480
902.516418,474
902.632629,466
902.74884,498
902.865112,485
902.981384,496
903.097595,482
903.213867,473
903.330017,486
903.446289,502
903.5625,475
903.67865,482
903.794922,477
903.911072,491
904.027344,481
904.143494,458
904.259705,487
904.375916,475
904.492065,463
904.608215,484
904.724426,463
904.840576,464
904.956726,482
905.072876,489
905.189087,466
905.305176,459
905.421387,485
905.537537,479
905.653687,477
905.769775,467
905.885925,480
906.002014,484
906.118164,481
906.234314,471
906.350403,464
906.466492,502
906.582642,463
906.69873,477
906.814758,469
906.930908,486
907.046936,473
907.163086,476
907.279175,488
907.395264,476
907.511353,459
907.62738,481
907.743408,476
907.859497,486
907.975525,470
908.091553,474
908.207703,462
908.32373,467
908.439758,465
908.555786,464
908.671814,461
908.787842,477
908.90387,486
909.019775,480
909.135864,473
909.251892,464
909.367859,467
909.483826,472
909.599854,459
909.715881,472
909.831848,474
909.947815,476
910.063782,454
910.179749,477
910.295776,462
910.411743,473
910.527649,467
910.643616,486
910.759583,472
910.875488,477
910.991455,482
911.107361,456
911.223267,444
911.339294,464
911.4552,488
911.571106,468
911.687073,473
911.802979,476
911.918823,478
912.034729,478
912.150635,453
912.266602,475
912.382446,466
912.498352,475
912.614197,461
912.730103,481
912.846008,455
