792.44574,705
792.56488,706
792.68396,778
792.80304,712
792.92218,686
793.041199,664
793.160339,685
793.279419,693
793.398499,710
793.517578,638
793.636658,646
793.755737,673
793.874817,658
793.993896,671
794.112976,650
794.232056,637
794.351074,632
794.470215,634
794.589233,630
794.708313,631
794.827393,624
794.946411,611
795.065552,626
795.18457,641
795.303589,616
795.422668,626
795.541687,628
795.660767,614
795.779846,644
795.898865,606
796.017883,606
796.136963,600
796.255981,617
796.375061,625
796.49408,615
796.613037,609
796.732117,612
796.851135,585
796.970154,610
797.089233,599
797.208191,579
797.327271,594
797.446228,615
797.565186,610
797.684265,599
797.803223,571
797.922241,624
798.04126,594
798.160278,595
798.279297,600
798.398315,574
798.517273,571
798.636292,594
798.75531,574
798.874268,624
798.993286,597
799.112244,590
799.231323,600
799.350281,583
799.469238,578
799.588257,586
799.707153,592
799.826111,593
799.945129,591
800.064087,609
800.183044,589
800.302063,603
800.421021,593
800.539978,575
800.658936,577
800.777893,596
800.896912,592
801.015747,603
801.134705,572
801.253723,586
801.37262,576
801.491638,581
801.610535,584
801.729492,609
801.84845,567
801.967407,586
802.086243,589
802.205261,605
802.324158,581
802.443115,588
802.562073,579
802.680969,622
802.799927,605
802.918762,590
803.037659,612
803.156677,622
803.275574,605
803.39447,581
803.513428,597
803.632263,617
803.751221,606
803.870117,585
803.989014,601
804.107971,598
804.226746,587
804.345642,574
804.4646,593
804.583496,613
804.702393,592
804.821228,581
804.940125,589
805.059021,592
805.177917,593
805.296814,598
805.415649,613
805.534546,604
805.653442,597
805.772278,604
805.891113,604
806.01001,609
806.128906,595
806.247742,625
806.366577,582
806.485413,630
806.604309,596
806.723145,627
806.84198,610
806.960876,601
807.079712,602
807.198486,592
807.317383,590
807.436218,612
807.554993,610
807.673889,622
807.792725,613
807.91156,600
808.030396,620
808.14917,609
808.268005,597
808.386841,619
808.505676,607
808.624451,614
808.743286,625
808.862122,615
808.980896,618
809.099731,615
809.218506,612
809.337341,619
809.456116,619
809.57489,617
809.693726,591
809.8125,610
809.931274,603
810.050049,625
810.168884,621
810.287659,597
810.406372,601
810.525269,638
810.643982,618
810.762756,622
810.881531,594
811.000305,616
811.11908,616
811.237854,612
811.356567,601
811.475403,630
811.594116,613
811.71283,603
811.831604,606
811.950378,608
812.069153,622
812.187927,623
812.30658,609
812.425415,620
812.544128,610
812.662781,600
812.781616,596
812.900269,632
813.019043,616
813.137756,600
813.256531,601
813.375244,616
813.493896,615
813.612671,604
813.731384,637
813.850037,622
813.96875,609
814.087524,621
814.206238,602
814.324951,604
814.443604,604
814.562256,621
814.68103,613
814.799683,608
814.918335,585
815.037109,614
815.155762,610
815.274475,600
815.393188,602
815.511841,610
815.630554,616
815.749146,633
815.867859,593
815.986572,599
816.105164,613
816.223877,622
816.342529,602
816.461182,600
816.579895,595
816.698486,613
816.817139,621
816.935791,621
817.054504,600
817.173096,606
817.291748,596
817.4104,597
817.529053,610
817.647644,630
817.766235,584
817.884949,565
818.00354,563
818.122192,573
818.240845,557
818.359436,562
818.478088,548
818.59668,539
818.715271,515
818.833923,560
818.952515,527
819.071106,512
819.189758,520
819.30835,526
819.426941,502
819.545532,529
819.664124,517
819.782715,499
819.901306,526
820.019897,503
820.138489,522
820.25708,513
820.375671,501
820.494202,524
820.612732,509
820.731384,498
820.849915,490
820.968506,515
821.087097,498
821.205627,485
821.324158,491
821.442749,503
821.561279,501
821.679871,494
821.798401,497
821.916931,499
822.035461,505
822.154053,482
822.272583,476
822.391174,506
822.509583,484
822.628174,466
822.746704,467
822.865234,480
822.983765,464
823.102295,493
823.220825,487
823.339294,493
823.457825,499
823.576355,496
823.694824,474
823.813354,491
823.931885,477
824.050354,503
824.168884,461
824.287354,488
824.405823,509
824.524353,511
824.642822,488
824.761353,491
824.879822,489
824.998291,489
825.116699,481
825.235291,501
825.353699,502
825.472168,484
825.590637,491
825.709106,496
825.827576,471
825.946045,495
826.064453,453
826.182983,464
826.301392,478
826.4198,484
826.53833,465
826.656738,480
826.775208,471
826.893677,474
827.012024,483
827.130493,473
827.248962,459
827.36731,469
827.485779,463
827.604248,469
827.722595,477
827.841064,481
827.959412,473
828.077942,480
828.196289,465
828.314636,475
828.433105,453
828.551514,464
828.669861,458
828.78833,489
828.906677,459
829.025085,483
829.143433,451
829.261841,471
829.38031,480
829.498657,467
829.617004,474
829.735413,485
829.85376,449
829.972107,483
830.090515,452
830.208862,453
830.327209,468
830.445557,456
830.563904,457
830.682312,476
830.800659,445
830.919006,473
831.037354,455
831.155701,470
831.274048,456
831.392395,464
831.51062,454
831.629028,483
831.747314,447
831.865662,451
831.984009,464
832.102356,481
832.220642,438
832.338928,481
832.457275,456
832.575623,473
832.693909,473
832.812134,459
832.930481,470
833.048828,510
833.167114,467
833.2854,464
833.403687,478
833.521973,460
833.640259,454
833.758545,476
833.876831,469
833.995056,458
834.113281,475
834.231628,464
834.349915,465
834.468201,467
834.586426,467
834.704651,459
834.822998,478
834.941162,453
835.059448,446
835.177673,453
835.295959,469
835.414246,471
835.53241,469
835.650635,457
835.768921,461
835.887146,472
836.005371,444
836.123596,482
836.241821,473
836.360046,483
836.478271,468
836.596497,470
836.714722,472
836.832886,472
836.95105,470
837.069336,478
837.1875,481
837.305725,500
837.423889,486
837.542053,488
837.660339,466
837.778503,488
837.896667,485
838.014832,486
838.132996,473
838.25116,494
838.369385,481
838.487488,492
838.605713,495
838.723877,477
838.84198,491
838.960205,470
839.078308,450
839.196472,490
839.314636,466
839.4328,472
839.550964,466
839.669067,483
839.787231,491
839.905396,484
840.023499,482
840.141602,482
840.259766,474
840.377869,485
840.495972,461
840.614136,478
840.732239,476
840.850342,490
840.968445,450
841.086548,484
841.204651,473
841.322754,476
841.440918,471
841.55896,486
841.677002,469
841.795166,462
841.913208,468
842.031311,489
842.149353,463
842.267456,452
842.385498,446
842.503601,490
842.621643,475
842.739746,453
842.857788,484
842.97583,469
843.093933,456
843.211975,467
843.330017,455
843.44812,464
843.566101,466
843.684204,463
843.802246,473
843.920227,466
844.038269,470
844.156311,469
844.274292,469
844.392395,476
844.510376,459
844.628357,469
844.74646,460
844.864441,474
844.982422,468
845.100403,455
845.218384,459
845.336426,467
845.454468,472
845.572449,468
845.69043,461
845.808411,447
845.926453,440
846.044373,466
846.162354,448
846.280396,464
846.398315,451
846.516296,480
846.634216,475
846.752197,454
846.870178,468
846.988098,475
847.106079,456
847.22406,475
847.34198,463
847.4599,443
847.577881,465
847.695801,476
847.813782,447
847.931641,466
848.049561,451
848.167603,452
848.285461,460
848.403381,458
848.521362,442
848.639221,451
848.75708,456
848.875,458
848.99292,461
849.110901,474
849.22876,456
849.34668,464
849.464539,465
849.582458,476
849.700317,458
849.818176,476
849.936096,454
850.053955,487
850.171875,450
850.289673,449
850.407593,465
850.525452,450
850.643311,460
850.761169,458
850.878967,447
850.996887,470
851.114746,452
851.232544,456
851.350403,442
851.468262,456
851.58606,457
851.703979,458
851.821777,450
851.939636,454
852.057434,466
852.175232,452
852.293091,468
852.410889,449
852.528687,474
852.646545,482
852.764343,460
852.88208,474
852.999939,461
853.117676,460
853.235535,449
853.353271,458
853.471069,461
853.588928,461
853.706604,453
853.824402,478
853.9422,466
854.059998,486
854.177734,455
854.295532,464
854.413269,472
854.531006,449
854.648804,446
854.766541,456
854.884277,454
855.002014,473
855.119751,463
855.237549,470
855.355225,457
855.473022,475
855.590698,457
855.708435,470
855.826172,474
855.943848,455
856.061646,470
856.179321,483
856.296997,461
856.414795,458
856.53241,462
856.650085,467
856.767822,457
856.885559,491
857.003174,447
857.120911,491
857.238586,485
857.356201,478
857.473938,466
857.591614,456
857.709351,471
857.826965,457
857.944641,453
858.062317,474
858.179993,443
858.297668,470
858.415283,466
858.532959,471
858.650574,467
858.768188,478
858.885803,456
859.003479,467
859.121094,472
859.23877,449
859.356384,466
859.473999,478
859.591675,454
859.709229,472
859.826843,454
859.944458,466
860.062012,450
860.179626,457
860.297302,457
860.414856,475
860.532471,461
860.650024,478
860.767639,469
860.885193,462
861.002808,437
861.120361,470
861.237976,457
861.35553,465
861.473022,445
861.590698,461
861.708191,470
861.825745,464
861.943298,480
862.060852,453
862.178406,444
862.295959,471
862.413513,473
862.531006,466
862.64856,455
862.766113,457
862.883667,452
863.00116,444
863.118713,447
863.236206,467
863.353699,426
863.471252,478
863.588745,457
863.706177,463
863.82373,462
863.941162,461
864.058716,443
864.176208,464
864.29364,465
864.411194,447
864.528687,449
864.646118,456
864.763611,447
864.881042,454
864.998535,457
865.116028,453
865.233459,455
865.350891,470
865.468384,473
865.585754,478
865.703308,445
865.820679,440
865.938171,458
866.055542,463
866.173035,469
866.290466,448
866.407837,445
866.52533,466
866.6427,457
866.760071,446
866.877563,472
866.994934,459
867.112305,466
867.229736,454
867.347107,458
867.464539,466
867.58197,464
867.699341,449
867.81665,471
867.934082,451
868.051453,481
868.168823,462
868.286194,465
868.403564,472
868.520935,454
868.638306,448
868.755676,469
868.872986,471
868.990295,455
869.107727,471
869.225037,454
869.342346,469
869.459717,444
869.577026,462
869.694336,473
869.811707,476
869.929016,452
870.046326,460
870.163635,475
870.280945,472
870.398254,471
870.515564,463
870.632812,452
870.750183,454
870.867432,478
870.984741,461
871.102051,477
871.219299,475
871.336609,478
871.453918,461
871.571106,464
871.688416,478
871.805664,466
871.922852,481
872.040222,478
872.157471,456
872.274719,463
872.391968,472
872.509155,473
872.626465,454
872.743652,463
872.860962,476
872.978149,473
873.095337,461
873.212646,468
873.329834,453
873.44696,462
873.564209,457
873.681396,439
873.798645,484
873.915894,473
874.03302,473
874.150208,473
874.267456,471
874.384583,473
874.501831,478
874.618958,466
874.736145,457
874.853333,474
874.970459,480
875.087646,468
875.204834,452
875.32196,458
875.439148,481
875.556274,472
875.673401,477
875.790527,457
875.907715,474
876.024841,474
876.141968,465
876.259094,476
876.376282,456
876.493347,468
876.610474,453
876.7276,453
876.844727,454
876.961853,472
877.078918,458
877.195984,457
877.313171,467
877.430237,468
877.547302,491
877.664368,466
877.781433,481
877.898499,466
878.015625,472
878.13269,445
878.249695,467
878.366821,467
878.483887,481
878.600952,463
878.717957,458
878.834961,460
878.952087,484
879.069092,455
879.186157,453
879.303162,453
879.420227,455
879.537231,471
879.654236,445
879.77124,450
879.888306,455
880.005249,451
880.122314,469
880.239319,441
880.356323,471
880.473328,458
880.590271,475
880.707275,445
880.824341,453
880.941284,437
881.058228,463
881.175232,455
881.292236,459
881.40918,444
881.526123,478
881.643066,462
881.760071,454
881.877014,460
881.993958,458
882.11084,443
882.227783,467
882.344727,455
882.46167,466
882.578613,461
882.695618,462
882.812439,462
882.929382,461
883.046326,466
883.163208,448
883.280151,468
883.397034,468
883.513916,462
883.630798,484
883.747742,448
883.864563,463
883.981506,449
884.098389,454
884.21521,451
884.332153,459
884.448975,453
884.565796,476
884.682678,467
884.7995,453
884.916443,471
885.033264,490
885.150085,469
885.266968,467
885.383789,473
885.500671,477
885.617493,459
885.734314,470
885.851196,477
885.967896,468
886.084717,485
886.201599,489
886.318359,466
886.435181,480
886.552002,473
886.668762,480
886.785645,461
886.902344,477
887.019165,478
887.135925,478
887.252747,446
887.369446,490
887.486267,454
887.603027,477
887.719788,461
887.836548,493
887.953247,445
888.070068,479
888.186829,468
888.303528,469
888.420288,458
888.536987,483
888.653687,463
888.770447,457
888.887146,458
889.003967,467
889.120667,440
889.237305,462
889.354065,453
889.470703,440
889.587463,443
889.704163,466
889.820862,461
889.937561,464
890.054199,456
890.170837,480
890.287598,464
890.404236,465
890.520874,446
890.637634,460
890.754211,469
890.87085,469
890.987549,457
891.104187,443
891.220886,445
891.337463,458
891.454102,452
891.57074,460
891.687378,452
891.804077,465
891.920654,459
892.037231,447
892.15387,456
892.270447,458
892.387085,475
892.503723,465
892.6203,445
892.736877,460
892.853516,452
892.970032,476
893.08667,474
893.203186,463
893.319763,450
893.43634,477
893.552917,456
893.669556,468
893.786011,448
893.902588,481
894.019165,449
894.135681,477
894.252197,467
894.368835,463
894.485291,453
894.601868,464
894.718384,443
894.8349,470
894.951355,476
895.067932,469
895.184448,468
895.300964,445
895.417419,441
895.533936,469
895.650452,441
895.766907,463
895.883423,473
895.999878,455
896.116333,458
896.232849,450
896.349304,461
896.465759,461
896.582214,447
896.698669,479
896.815125,450
896.931641,480
897.048035,446
897.164551,468
897.280884,448
897.397339,475
897.513794,462
897.630249,458
897.746582,458
897.863098,455
897.979431,467
898.095886,464
898.212341,465
898.328674,461
898.445129,485
898.561462,481
898.677795,462
898.794312,468
898.910645,470
899.026978,460
899.143433,453
899.259766,490
899.37616,473
899.492493,465
899.608765,476
899.725159,476
899.841553,455
899.957947,472
900.07428,457
900.190552,472
900.306946,464
900.423157,470
900.53949,481
900.655884,461
900.772156,449
900.888489,473
901.004822,471
901.121033,464
901.237366,471
901.353699,462
901.46991,459
901.586304,472
901.702515,451
901.818787,477
901.93512,472
902.051331,476
902.167603,455
902.283875,477
902.400085,488
902.516418,474
902.632629,475
902.74884,467
902.865112,453
902.981384,489
903.097595,465
903.213867,469
903.330017,486
903.446289,466
903.5625,486
903.67865,465
903.794922,480
903.911072,467
904.027344,466
904.143494,477
904.259705,470
904.375916,467
904.492065,472
904.608215,472
904.724426,467
904.840576,469
904.956726,473
905.072876,480
905.189087,464
905.305176,480
905.421387,448
905.537537,463
905.653687,461
905.769775,465
905.885925,457
906.002014,449
906.118164,468
906.234314,465
906.350403,469
906.466492,470
906.582642,466
906.69873,468
906.814758,474
906.930908,477
907.046936,458
907.163086,485
907.279175,470
907.395264,459
907.511353,475
907.62738,472
907.743408,479
907.859497,463
907.975525,458
908.091553,466
908.207703,475
908.32373,477
908.439758,467
908.555786,451
908.671814,437
908.787842,487
908.90387,463
909.019775,472
909.135864,460
909.251892,480
909.367859,463
909.483826,475
909.599854,449
909.715881,473
909.831848,478
909.947815,485
910.063782,479
910.179749,474
910.295776,478
910.411743,456
910.527649,455
910.643616,478
910.759583,458
910.875488,462
910.991455,458
911.107361,474
911.223267,464
911.339294,476
911.4552,475
911.571106,485
911.687073,467
911.802979,460
911.918823,456
912.034729,460
912.150635,449
912.266602,458
912.382446,460
912.498352,451
912.614197,448
912.730103,482
912.846008,465
792.44574,698
792.56488,738
792.68396,746
792.80304,719
792.92218,685
793.041199,700
793.160339,685
793.279419,680
793.398499,686
793.517578,650
793.636658,649
793.755737,652
793.874817,662
793.993896,671
794.112976,660
794.232056,649
794.351074,637
794.470215,654
794.589233,628
794.708313,646
794.827393,635
794.946411,653
795.065552,653
795.18457,642
795.303589,623
795.422668,635
795.541687,597
795.660767,624
795.779846,614
795.898865,628
796.017883,633
796.136963,610
796.255981,644
796.375061,603
796.49408,625
796.613037,592
796.732117,621
796.851135,659
796.970154,600
797.089233,586
797.208191,596
797.327271,619
797.446228,602
797.565186,595
797.684265,590
797.803223,593
797.922241,607
798.04126,603
798.160278,595
798.279297,614
798.398315,581
798.517273,591
798.636292,586
798.75531,610
798.874268,589
798.993286,599
799.112244,590
799.231323,596
799.350281,568
799.469238,609
799.588257,575
799.707153,589
799.826111,582
799.945129,582
800.064087,596
800.183044,585
800.302063,593
800.421021,598
800.539978,580
800.658936,588
800.777893,595
800.896912,564
801.015747,581
801.134705,595
801.253723,585
801.37262,557
801.491638,577
801.610535,572
801.729492,590
801.84845,589
801.967407,574
802.086243,598
802.205261,585
802.324158,582
802.443115,594
802.562073,582
802.680969,596
802.799927,602
802.918762,588
803.037659,593
803.156677,603
803.275574,570
803.39447,593
803.513428,607
803.632263,605
803.751221,590
803.870117,612
803.989014,599
804.107971,593
804.226746,599
804.345642,589
804.4646,590
804.583496,595
804.702393,602
804.821228,608
804.940125,609
805.059021,584
805.177917,596
805.296814,615
805.415649,604
805.534546,618
805.653442,619
805.772278,608
805.891113,620
806.01001,584
806.128906,628
806.247742,592
806.366577,601
806.485413,594
806.604309,618
806.723145,604
806.84198,608
806.960876,600
807.079712,597
807.198486,619
807.317383,611
807.436218,610
807.554993,627
807.673889,610
807.792725,609
807.91156,618
808.030396,603
808.14917,626
808.268005,620
808.386841,616
808.505676,597
808.624451,592
808.743286,607
808.862122,589
808.980896,619
809.099731,619
809.218506,624
809.337341,588
809.456116,604
809.57489,624
809.693726,638
809.8125,597
809.931274,646
810.050049,633
810.168884,620
810.287659,620
810.406372,627
810.525269,603
810.643982,605
810.762756,609
810.881531,617
811.000305,601
811.11908,601
811.237854,612
811.356567,618
811.475403,624
811.594116,619
811.71283,595
811.831604,611
811.950378,638
812.069153,609
812.187927,636
812.30658,634
812.425415,630
812.544128,637
812.662781,629
812.781616,621
812.900269,608
813.019043,632
813.137756,635
813.256531,625
813.375244,627
813.493896,632
813.612671,631
813.731384,626
813.850037,627
813.96875,628
814.087524,623
814.206238,634
814.324951,605
814.443604,623
814.562256,615
814.68103,633
814.799683,620
814.918335,614
815.037109,623
815.155762,611
815.274475,624
815.393188,601
815.511841,615
815.630554,608
815.749146,604
815.867859,618
815.986572,593
816.105164,618
816.223877,608
816.342529,616
816.461182,608
816.579895,621
816.698486,618
816.817139,612
816.935791,615
817.054504,601
817.173096,598
817.291748,603
817.4104,608
817.529053,581
817.647644,616
817.766235,588
817.884949,557
818.00354,564
818.122192,570
818.240845,584
818.359436,548
818.478088,553
818.59668,524
818.715271,508
818.833923,539
818.952515,527
819.071106,529
819.189758,520
819.30835,501
819.426941,510
819.545532,499
819.664124,501
819.782715,500
819.901306,527
820.019897,494
820.138489,496
820.25708,503
820.375671,523
820.494202,481
820.612732,505
820.731384,512
820.849915,497
820.968506,505
821.087097,508
821.205627,515
821.324158,494
821.442749,484
821.561279,481
821.679871,483
821.798401,499
821.916931,490
822.035461,489
822.154053,484
822.272583,505
822.391174,493
822.509583,484
822.628174,506
822.746704,476
822.865234,493
822.983765,496
823.102295,483
823.220825,487
823.339294,481
823.457825,492
823.576355,491
823.694824,492
823.813354,507
823.931885,496
824.050354,495
824.168884,487
824.287354,489
824.405823,497
824.524353,519
824.642822,497
824.761353,488
824.879822,486
824.998291,496
825.116699,495
825.235291,500
825.353699,516
825.472168,505
825.590637,485
825.709106,481
825.827576,502
825.946045,477
826.064453,465
826.182983,472
826.301392,490
826.4198,483
826.53833,478
826.656738,477
826.775208,488
826.893677,485
827.012024,477
827.130493,469
827.248962,475
827.36731,461
827.485779,475
827.604248,461
827.722595,489
827.841064,473
827.959412,474
828.077942,469
828.196289,469
828.314636,489
828.433105,493
828.551514,476
828.669861,446
828.78833,464
828.906677,462
829.025085,469
829.143433,474
829.261841,467
829.38031,474
829.498657,472
829.617004,464
829.735413,460
829.85376,481
829.972107,482
830.090515,472
830.208862,434
830.327209,488
830.445557,475
830.563904,475
830.682312,471
830.800659,485
830.919006,471
831.037354,465
831.155701,460
831.274048,459
831.392395,441
831.51062,481
831.629028,465
831.747314,472
831.865662,460
831.984009,463
832.102356,472
832.220642,472
832.338928,466
832.457275,473
832.575623,448
832.693909,480
832.812134,474
832.930481,480
833.048828,471
833.167114,451
833.2854,474
833.403687,466
833.521973,473
833.640259,451
833.758545,477
833.876831,462
833.995056,480
834.113281,449
834.231628,474
834.349915,454
834.468201,467
834.586426,464
834.704651,466
834.822998,482
834.941162,477
835.059448,472
835.177673,462
835.295959,474
835.414246,471
835.53241,468
835.650635,499
835.768921,458
835.887146,430
836.005371,486
836.123596,467
836.241821,481
836.360046,471
836.478271,474
836.596497,466
836.714722,470
836.832886,473
836.95105,476
837.069336,464
837.1875,495
837.305725,475
837.423889,482
837.542053,486
837.660339,480
837.778503,487
837.896667,482
838.014832,474
838.132996,480
838.25116,477
838.369385,486
838.487488,496
838.605713,469
838.723877,472
838.84198,462
838.960205,493
839.078308,483
839.196472,481
839.314636,484
839.4328,488
839.550964,472
839.669067,462
839.787231,482
839.905396,489
840.023499,480
840.141602,481
840.259766,465
840.377869,492
840.495972,476
840.614136,490
840.732239,482
840.850342,479
840.968445,489
841.086548,475
841.204651,479
841.322754,493
841.440918,466
841.55896,492
841.677002,490
841.795166,475
841.913208,474
842.031311,493
842.149353,464
842.267456,469
842.385498,495
842.503601,456
842.621643,450
842.739746,478
842.857788,470
842.97583,467
843.093933,484
843.211975,457
843.330017,474
843.44812,459
843.566101,461
843.684204,463
843.802246,456
843.920227,451
844.038269,459
844.156311,466
844.274292,446
844.392395,470
844.510376,469
844.628357,461
844.74646,474
844.864441,479
844.982422,464
845.100403,446
845.218384,456
845.336426,454
845.454468,455
845.572449,445
845.69043,476
845.808411,473
845.926453,456
846.044373,452
846.162354,458
846.280396,461
846.398315,458
846.516296,448
846.634216,457
846.752197,457
846.870178,461
846.988098,467
847.106079,461
847.22406,453
847.34198,466
847.4599,463
847.577881,466
847.695801,474
847.813782,464
847.931641,449
848.049561,464
848.167603,466
848.285461,462
848.403381,459
848.521362,474
848.639221,455
848.75708,452
848.875,474
848.99292,461
849.110901,475
849.22876,479
849.34668,462
849.464539,461
849.582458,463
849.700317,454
849.818176,477
849.936096,450
850.053955,475
850.171875,462
850.289673,448
850.407593,474
850.525452,425
850.643311,451
850.761169,469
850.878967,451
850.996887,470
851.114746,455
851.232544,454
851.350403,459
851.468262,446
851.58606,439
851.703979,441
851.821777,462
851.939636,442
852.057434,457
852.175232,476
852.293091,458
852.410889,457
852.528687,474
852.646545,455
852.764343,488
852.88208,467
852.999939,454
853.117676,471
853.235535,455
853.353271,456
853.471069,459
853.588928,450
853.706604,460
853.824402,449
853.9422,470
854.059998,459
854.177734,446
854.295532,473
854.413269,474
854.531006,445
854.648804,482
854.766541,444
854.884277,473
855.002014,472
855.119751,484
855.237549,477
855.355225,451
855.473022,465
855.590698,472
855.708435,477
855.826172,460
855.943848,460
856.061646,465
856.179321,465
856.296997,471
856.414795,470
856.53241,470
856.650085,484
856.767822,471
856.885559,468
857.003174,478
857.120911,462
857.238586,494
857.356201,461
857.473938,492
857.591614,478
857.709351,465
857.826965,483
857.944641,465
858.062317,472
858.179993,468
858.297668,464
858.415283,498
858.532959,459
858.650574,470
858.768188,468
858.885803,450
859.003479,472
859.121094,471
859.23877,470
859.356384,452
859.473999,477
859.591675,485
859.709229,460
859.826843,469
859.944458,452
860.062012,446
860.179626,462
860.297302,478
860.414856,469
860.532471,462
860.650024,458
860.767639,457
860.885193,457
861.002808,461
861.120361,447
861.237976,468
861.35553,468
861.473022,457
861.590698,457
861.708191,460
861.825745,447
861.943298,470
862.060852,468
862.178406,458
862.295959,458
862.413513,467
862.531006,477
862.64856,459
862.766113,437
862.883667,468
863.00116,452
863.118713,457
863.236206,477
863.353699,451
863.471252,458
863.588745,454
863.706177,447
863.82373,461
863.941162,449
864.058716,471
864.176208,462
864.29364,449
864.411194,451
864.528687,456
864.646118,452
864.763611,470
864.881042,464
864.998535,456
865.116028,467
865.233459,452
865.350891,447
865.468384,455
865.585754,452
865.703308,477
865.820679,468
865.938171,473
866.055542,477
866.173035,474
866.290466,446
866.407837,479
866.52533,463
866.6427,481
866.760071,464
866.877563,453
866.994934,462
867.112305,469
867.229736,460
867.347107,441
867.464539,467
867.58197,469
867.699341,481
867.81665,459
867.934082,463
868.051453,474
868.168823,447
868.286194,482
868.403564,452
868.520935,449
868.638306,461
868.755676,463
868.872986,462
868.990295,464
869.107727,461
869.225037,483
869.342346,458
869.459717,451
869.577026,445
869.694336,466
869.811707,488
869.929016,461
870.046326,457
870.163635,488
870.280945,476
870.398254,448
870.515564,456
870.632812,465
870.750183,474
870.867432,462
870.984741,456
871.102051,481
871.219299,463
871.336609,474
871.453918,486
871.571106,480
871.688416,470
871.805664,467
871.922852,455
872.040222,466
872.157471,462
872.274719,469
872.391968,461
872.509155,469
872.626465,476
872.743652,449
872.860962,481
872.978149,461
873.095337,468
873.212646,490
873.329834,487
873.44696,485
873.564209,463
873.681396,472
873.798645,438
873.915894,445
874.03302,479
874.150208,470
874.267456,443
874.384583,464
874.501831,470
874.618958,469
874.736145,481
874.853333,479
874.970459,469
875.087646,467
875.204834,468
875.32196,462
875.439148,473
875.556274,459
875.673401,467
875.790527,471
875.907715,464
876.024841,468
876.141968,460
876.259094,472
876.376282,448
876.493347,468
876.610474,459
876.7276,463
876.844727,481
876.961853,467
877.078918,458
877.195984,463
877.313171,450
877.430237,470
877.547302,434
877.664368,484
877.781433,462
877.898499,477
878.015625,460
878.13269,463
878.249695,468
878.366821,481
878.483887,464
878.600952,466
878.717957,473
878.834961,452
878.952087,463
879.069092,467
879.186157,475
879.303162,455
879.420227,450
879.537231,470
879.654236,461
879.77124,464
879.888306,467
880.005249,471
880.122314,457
880.239319,444
880.356323,456
880.473328,453
880.590271,466
880.707275,453
880.824341,461
880.941284,456
881.058228,462
881.175232,457
881.292236,445
881.40918,446
881.526123,470
881.643066,456
881.760071,450
881.877014,459
881.993958,452
882.11084,466
882.227783,457
882.344727,439
882.46167,465
882.578613,467
882.695618,478
882.812439,464
882.929382,465
883.046326,455
883.163208,457
883.280151,454
883.397034,465
883.513916,474
883.630798,449
883.747742,478
883.864563,471
883.981506,446
884.098389,461
884.21521,477
884.332153,464
884.448975,478
884.565796,453
884.682678,469
884.7995,467
884.916443,475
885.033264,484
885.150085,483
885.266968,464
885.383789,487
885.500671,496
885.617493,477
885.734314,485
885.851196,483
885.967896,487
886.084717,483
886.201599,485
886.318359,496
886.435181,464
886.552002,492
886.668762,473
886.785645,479
886.902344,476
887.019165,460
887.135925,490
887.252747,477
887.369446,474
887.486267,492
887.603027,475
887.719788,454
887.836548,458
887.953247,483
888.070068,470
888.186829,465
888.303528,472
888.420288,451
888.536987,472
888.653687,459
888.770447,455
888.887146,462
889.003967,441
889.120667,478
889.237305,437
889.354065,464
889.470703,453
889.587463,471
889.704163,457
889.820862,448
889.937561,455
890.054199,470
890.170837,450
890.287598,471
890.404236,475
890.520874,453
890.637634,454
890.754211,449
890.87085,452
890.987549,458
891.104187,457
891.220886,490
891.337463,467
891.454102,471
891.57074,477
891.687378,474
891.804077,456
891.920654,457
892.037231,457
892.15387,473
892.270447,473
892.387085,469
892.503723,462
892.6203,458
892.736877,435
892.853516,465
892.970032,467
893.08667,460
893.203186,459
893.319763,466
893.43634,460
893.552917,464
893.669556,467
893.786011,470
893.902588,451
894.019165,465
894.135681,457
894.252197,459
894.368835,481
894.485291,471
894.601868,477
894.718384,478
894.8349,475
894.951355,478
895.067932,478
895.184448,469
895.300964,453
895.417419,450
895.533936,445
895.650452,447
895.766907,455
895.883423,480
895.999878,483
896.116333,480
896.232849,476
896.349304,479
896.465759,460
896.582214,464
896.698669,465
896.815125,468
896.931641,478
897.048035,477
897.164551,463
897.280884,469
897.397339,464
897.513794,480
897.630249,488
897.746582,482
897.863098,465
897.979431,477
898.095886,472
898.212341,472
898.328674,462
898.445129,465
898.561462,468
898.677795,472
898.794312,474
898.910645,475
899.026978,461
899.143433,456
899.259766,476
899.37616,477
899.492493,454
899.608765,468
899.725159,455
899.841553,465
899.957947,474
900.07428,452
900.190552,461
900.306946,461
900.423157,456
900.53949,468
900.655884,473
900.772156,480
900.888489,455
901.004822,475
901.121033,473
901.237366,463
901.353699,473
901.46991,468
901.586304,484
901.702515,471
901.818787,460
901.93512,468
902.051331,486
902.167603,472
902.283875,477
902.400085,471
902.516418,478
902.632629,485
902.74884,465
902.865112,476
902.981384,475
903.097595,487
903.213867,475
903.330017,490
903.446289,481
903.5625,486
903.67865,482
903.794922,492
903.911072,461
904.027344,474
904.143494,470
904.259705,503
904.375916,483
904.492065,474
904.608215,466
904.724426,472
904.840576,446
904.956726,488
905.072876,452
905.189087,479
905.305176,456
905.421387,465
905.537537,459
905.653687,458
905.769775,468
905.885925,487
906.002014,465
906.118164,482
906.234314,459
906.350403,472
906.466492,468
906.582642,477
906.69873,455
906.814758,464
906.930908,466
907.046936,483
907.163086,463
907.279175,460
907.395264,465
907.511353,479
907.62738,474
907.743408,449
907.859497,481
907.975525,465
908.091553,450
908.207703,465
908.32373,465
908.439758,477
908.555786,449
908.671814,472
908.787842,469
908.90387,464
909.019775,454
909.135864,474
909.251892,462
909.367859,461
909.483826,483
909.599854,462
909.715881,469
909.831848,456
909.947815,450
910.063782,483
910.179749,479
910.295776,471
910.411743,481
910.527649,474
910.643616,456
910.759583,468
910.875488,461
910.991455,467
911.107361,471
911.223267,469
911.339294,472
911.4552,478
911.571106,479
911.687073,499
911.802979,463
911.918823,468
912.034729,444
912.150635,479
912.266602,458
912.382446,478
912.498352,472
912.614197,453
912.730103,467
912.846008,465
792.44574,715
792.56488,712
792.68396,748
792.80304,725
792.92218,672
793.041199,674
793.160339,669
793.279419,662
793.398499,683
793.517578,659
793.636658,627
793.755737,646
793.874817,649
793.993896,650
794.112976,630
794.232056,624
794.351074,627
794.470215,630
794.589233,663
794.708313,603
794.827393,644
794.946411,640
795.065552,620
795.18457,633
795.303589,641
795.422668,618
795.541687,619
795.660767,635
795.779846,601
795.898865,596
796.017883,599
796.136963,596
796.255981,593
796.375061,617
796.49408,621
796.613037,609
796.732117,587
796.851135,600
796.970154,595
797.089233,601
797.208191,620
797.327271,594
797.446228,613
797.565186,602
797.684265,620
797.803223,607
797.922241,639
798.04126,585
798.160278,625
798.279297,591
798.398315,612
798.517273,590
798.636292,595
798.75531,601
798.874268,609
798.993286,587
799.112244,572
799.231323,594
799.350281,608
799.469238,592
799.588257,591
799.707153,573
799.826111,597
799.945129,592
800.064087,594
800.183044,570
800.302063,614
800.421021,594
800.539978,597
800.658936,603
800.777893,602
800.896912,602
801.015747,584
801.134705,614
801.253723,600
801.37262,598
801.491638,584
801.610535,577
801.729492,599
801.84845,595
801.967407,581
802.086243,596
802.205261,594
802.324158,604
802.443115,577
802.562073,594
802.680969,612
802.799927,598
802.918762,601
803.037659,605
803.156677,596
803.275574,587
803.39447,591
803.513428,609
803.632263,594
803.751221,608
803.870117,609
803.989014,599
804.107971,604
804.226746,605
804.345642,621
804.4646,629
804.583496,616
804.702393,566
804.821228,604
804.940125,603
805.059021,586
805.177917,571
805.296814,612
805.415649,604
805.534546,585
805.653442,613
805.772278,604
805.891113,626
806.01001,605
806.128906,600
806.247742,586
806.366577,606
806.485413,616
806.604309,610
806.723145,629
806.84198,607
806.960876,588
807.079712,605
807.198486,635
807.317383,614
807.436218,622
807.554993,599
807.673889,608
807.792725,589
807.91156,619
808.030396,600
808.14917,641
808.268005,609
808.386841,604
808.505676,616
808.624451,598
808.743286,626
808.862122,605
808.980896,627
809.099731,604
809.218506,607
809.337341,623
809.456116,620
809.57489,607
809.693726,620
809.8125,614
809.931274,611
810.050049,644
810.168884,600
810.287659,619
810.406372,604
810.525269,621
810.643982,615
810.762756,645
810.881531,605
811.000305,625
811.11908,620
811.237854,603
811.356567,619
811.475403,650
811.594116,623
811.71283,610
811.831604,651
811.950378,601
812.069153,633
812.187927,650
812.30658,632
812.425415,647
812.544128,619
812.662781,636
812.781616,622
812.900269,624
813.019043,628
813.137756,620
813.256531,604
813.375244,609
813.493896,635
813.612671,622
813.731384,612
813.850037,608
813.96875,626
814.087524,646
814.206238,607
814.324951,619
814.443604,621
814.562256,597
814.68103,627
814.799683,594
814.918335,628
815.037109,617
815.155762,606
815.274475,616
815.393188,631
815.511841,638
815.630554,612
815.749146,611
815.867859,602
815.986572,614
816.105164,601
816.223877,607
816.342529,600
816.461182,582
816.579895,613
816.698486,650
816.817139,627
816.935791,618
817.054504,597
817.173096,604
817.291748,599
817.4104,610
817.529053,610
817.647644,600
817.766235,584
817.884949,583
818.00354,551
818.122192,566
818.240845,554
818.359436,554
818.478088,535
818.59668,537
818.715271,538
818.833923,510
818.952515,534
819.071106,532
819.189758,508
819.30835,522
819.426941,523
819.545532,520
819.664124,505
819.782715,508
819.901306,482
820.019897,511
820.138489,510
820.25708,518
820.375671,509
820.494202,508
820.612732,506
820.731384,500
820.849915,506
820.968506,510
821.087097,498
821.205627,479
821.324158,488
821.442749,509
821.561279,489
821.679871,466
821.798401,520
821.916931,516
822.035461,464
822.154053,511
822.272583,475
822.391174,496
822.509583,487
822.628174,493
822.746704,493
822.865234,496
822.983765,484
823.102295,487
823.220825,488
823.339294,484
823.457825,506
823.576355,500
823.694824,476
823.813354,509
823.931885,489
824.050354,469
824.168884,509
824.287354,477
824.405823,493
824.524353,520
824.642822,503
824.761353,501
824.879822,511
824.998291,500
825.116699,490
825.235291,500
825.353699,479
825.472168,485
825.590637,492
825.709106,481
825.827576,464
825.946045,494
826.064453,493
826.182983,492
826.301392,470
826.4198,488
826.53833,457
826.656738,495
826.775208,470
826.893677,475
827.012024,486
827.130493,472
827.248962,480
827.36731,470
827.485779,487
827.604248,461
827.722595,477
827.841064,469
827.959412,461
828.077942,475
828.196289,486
828.314636,456
828.433105,471
828.551514,472
828.669861,477
828.78833,468
828.906677,470
829.025085,468
829.143433,461
829.261841,491
829.38031,456
829.498657,458
829.617004,480
829.735413,473
829.85376,476
829.972107,483
830.090515,470
830.208862,481
830.327209,468
830.445557,461
830.563904,452
830.682312,468
830.800659,483
830.919006,467
831.037354,457
831.155701,472
831.274048,444
831.392395,474
831.51062,469
831.629028,463
831.747314,463
831.865662,455
831.984009,489
832.102356,480
832.220642,464
832.338928,481
832.457275,467
832.575623,465
832.693909,461
832.812134,471
832.930481,467
833.048828,442
833.167114,460
833.2854,487
833.403687,468
833.521973,458
833.640259,484
833.758545,458
833.876831,454
833.995056,459
834.113281,472
834.231628,478
834.349915,459
834.468201,489
834.586426,472
834.704651,474
834.822998,471
834.941162,465
835.059448,468
835.177673,462
835.295959,482
835.414246,454
835.53241,469
835.650635,471
835.768921,466
835.887146,471
836.005371,473
836.123596,475
836.241821,444
836.360046,483
836.478271,474
836.596497,464
836.714722,485
836.832886,482
836.95105,484
837.069336,490
837.1875,490
837.305725,495
837.423889,479
837.542053,470
837.660339,487
837.778503,505
837.896667,490
838.014832,490
838.132996,489
838.25116,493
838.369385,481
838.487488,476
838.605713,466
838.723877,504
838.84198,473
838.960205,481
839.078308,484
839.196472,464
839.314636,475
839.4328,488
839.550964,470
839.669067,479
839.787231,483
839.905396,481
840.023499,481
840.141602,490
840.259766,461
840.377869,487
840.495972,484
840.614136,478
840.732239,486
840.850342,475
840.968445,479
841.086548,487
841.204651,489
841.322754,488
841.440918,473
841.55896,499
841.677002,474
841.795166,479
841.913208,460
842.031311,501
842.149353,473
842.267456,483
842.385498,474
842.503601,451
842.621643,481
842.739746,466
842.857788,447
842.97583,456
843.093933,457
843.211975,463
843.330017,465
843.44812,492
843.566101,467
843.684204,455
843.802246,461
843.920227,473
844.038269,472
844.156311,465
844.274292,473
844.392395,449
844.510376,450
844.628357,469
844.74646,450
844.864441,478
844.982422,460
845.100403,475
845.218384,467
845.336426,478
845.454468,465
845.572449,466
845.69043,448
845.808411,473
845.926453,464
846.044373,465
846.162354,467
846.280396,465
846.398315,463
846.516296,465
846.634216,465
846.752197,469
846.870178,454
846.988098,455
847.106079,460
847.22406,464
847.34198,476
847.4599,445
847.577881,472
847.695801,465
847.813782,453
847.931641,451
848.049561,456
848.167603,476
848.285461,469
848.403381,464
848.521362,472
848.639221,475
848.75708,447
848.875,475
848.99292,456
849.110901,458
849.22876,468
849.34668,463
849.464539,473
849.582458,453
849.700317,466
849.818176,479
849.936096,479
850.053955,460
850.171875,459
850.289673,462
850.407593,452
850.525452,479
850.643311,457
850.761169,445
850.878967,464
850.996887,463
851.114746,437
851.232544,461
851.350403,447
851.468262,434
851.58606,469
851.703979,452
851.821777,482
851.939636,457
852.057434,464
852.175232,474
852.293091,468
852.410889,463
852.528687,464
852.646545,473
852.764343,483
852.88208,490
852.999939,459
853.117676,483
853.235535,464
853.353271,462
853.471069,461
853.588928,456
853.706604,469
853.824402,451
853.9422,441
854.059998,453
854.177734,471
854.295532,457
854.413269,486
854.531006,471
854.648804,459
854.766541,459
854.884277,461
855.002014,470
855.119751,442
855.237549,467
855.355225,456
855.473022,463
855.590698,455
855.708435,475
855.826172,462
855.943848,472
856.061646,467
856.179321,472
856.296997,480
856.414795,488
856.53241,460
856.650085,485
856.767822,477
856.885559,460
857.003174,469
857.120911,470
857.238586,453
857.356201,499
857.473938,472
857.591614,472
857.709351,486
857.826965,475
857.944641,449
858.062317,484
858.179993,491
858.297668,482
858.415283,447
858.532959,479
858.650574,479
858.768188,473
858.885803,456
859.003479,476
859.121094,468
859.23877,478
859.356384,464
859.473999,483
859.591675,466
859.709229,479
859.826843,467
859.944458,465
860.062012,462
860.179626,464
860.297302,451
860.414856,466
860.532471,471
860.650024,484
860.767639,448
860.885193,479
861.002808,448
861.120361,472
861.237976,466
861.35553,442
861.473022,471
861.590698,456
861.708191,461
861.825745,464
861.943298,452
862.060852,450
862.178406,452
862.295959,458
862.413513,458
862.531006,446
862.64856,458
862.766113,453
862.883667,438
863.00116,477
863.118713,461
863.236206,474
863.353699,444
863.471252,457
863.588745,469
863.706177,452
863.82373,440
863.941162,469
864.058716,460
864.176208,470
864.29364,475
864.411194,460
864.528687,454
864.646118,467
864.763611,459
864.881042,468
864.998535,473
865.116028,465
865.233459,456
865.350891,465
865.468384,461
865.585754,476
865.703308,476
865.820679,466
865.938171,458
866.055542,466
866.173035,474
866.290466,464
866.407837,459
866.52533,460
866.6427,454
866.760071,460
866.877563,451
866.994934,461
867.112305,446
867.229736,457
867.347107,479
867.464539,474
867.58197,463
867.699341,476
867.81665,468
867.934082,487
868.051453,467
868.168823,481
868.286194,452
868.403564,461
868.520935,462
868.638306,459
868.755676,436
868.872986,465
868.990295,458
869.107727,471
869.225037,452
869.342346,502
869.459717,469
869.577026,457
869.694336,449
869.811707,473
869.929016,480
870.046326,472
870.163635,459
870.280945,479
870.398254,464
870.515564,472
870.632812,480
870.750183,453
870.867432,470
870.984741,464
871.102051,476
871.219299,482
871.336609,470
871.453918,465
871.571106,459
871.688416,451
871.805664,470
871.922852,491
872.040222,471
872.157471,489
872.274719,466
872.391968,476
872.509155,472
872.626465,471
872.743652,466
872.860962,484
872.978149,461
873.095337,463
873.212646,469
873.329834,470
873.44696,456
873.564209,488
873.681396,463
873.798645,468
873.915894,452
874.03302,467
874.150208,471
874.267456,477
874.384583,470
874.501831,485
874.618958,462
874.736145,470
874.853333,466
874.970459,463
875.087646,466
875.204834,492
875.32196,475
875.439148,452
875.556274,476
875.673401,474
875.790527,473
875.907715,456
876.024841,464
876.141968,471
876.259094,476
876.376282,451
876.493347,436
876.610474,487
876.7276,465
876.844727,458
876.961853,439
877.078918,468
877.195984,450
877.313171,473
877.430237,462
877.547302,473
877.664368,459
877.781433,476
877.898499,478
878.015625,465
878.13269,470
878.249695,452
878.366821,470
878.483887,472
878.600952,462
878.717957,467
878.834961,474
878.952087,435
879.069092,469
879.186157,481
879.303162,447
879.420227,476
879.537231,457
879.654236,465
879.77124,452
879.888306,462
880.005249,467
880.122314,474
880.239319,449
880.356323,473
880.473328,453
880.590271,466
880.707275,468
880.824341,452
880.941284,443
881.058228,456
881.175232,449
881.292236,464
881.40918,470
881.526123,455
881.643066,455
881.760071,458
881.877014,444
881.993958,478
882.11084,456
882.227783,482
882.344727,451
882.46167,448
882.578613,473
882.695618,451
882.812439,455
882.929382,451
883.046326,477
883.163208,441
883.280151,450
883.397034,472
883.513916,463
883.630798,478
883.747742,469
883.864563,467
883.981506,458
884.098389,458
884.21521,464
884.332153,467
884.448975,455
884.565796,498
884.682678,459
884.7995,456
884.916443,480
885.033264,491
885.150085,462
885.266968,461
885.383789,492
885.500671,490
885.617493,483
885.734314,503
885.851196,474
885.967896,493
886.084717,481
886.201599,508
886.318359,475
886.435181,477
886.552002,488
886.668762,482
886.785645,487
886.902344,483
887.019165,474
887.135925,495
887.252747,472
887.369446,500
887.486267,480
887.603027,485
887.719788,445
887.836548,466
887.953247,469
888.070068,492
888.186829,477
888.303528,468
888.420288,473
888.536987,456
888.653687,465
888.770447,451
888.887146,455
889.003967,456
889.120667,456
889.237305,445
889.354065,449
889.470703,437
889.587463,450
889.704163,471
889.820862,445
889.937561,466
890.054199,466
890.170837,456
890.287598,453
890.404236,471
890.520874,460
890.637634,463
890.754211,465
890.87085,462
890.987549,453
891.104187,476
891.220886,460
891.337463,474
891.454102,456
891.57074,473
891.687378,480
891.804077,458
891.920654,466
892.037231,472
892.15387,480
892.270447,453
892.387085,468
892.503723,466
892.6203,456
892.736877,453
892.853516,456
892.970032,480
893.08667,444
893.203186,458
893.319763,455
893.43634,458
893.552917,451
893.669556,479
893.786011,471
893.902588,461
894.019165,447
894.135681,482
894.252197,468
894.368835,474
894.485291,470
894.601868,482
894.718384,464
894.8349,456
894.951355,450
895.067932,485
895.184448,466
895.300964,467
895.417419,454
895.533936,454
895.650452,457
895.766907,463
895.883423,460
895.999878,485
896.116333,452
896.232849,471
896.349304,484
896.465759,452
896.582214,460
896.698669,460
896.815125,470
896.931641,487
897.048035,457
897.164551,472
897.280884,465
897.397339,467
897.513794,475
897.630249,482
897.746582,458
897.863098,472
897.979431,454
898.095886,464
898.212341,482
898.328674,464
898.445129,462
898.561462,474
898.677795,467
898.794312,465
898.910645,477
899.026978,467
899.143433,465
899.259766,463
899.37616,468
899.492493,481
899.608765,478
899.725159,451
899.841553,458
899.957947,465
900.07428,471
900.190552,462
900.306946,463
900.423157,467
900.53949,467
900.655884,470
900.772156,445
900.888489,469
901.004822,472
901.121033,467
901.237366,468
901.353699,461
901.46991,466
901.586304,478
901.702515,464
901.818787,469
901.93512,467
902.051331,484
902.167603,481
902.283875,490
902.400085,472
902.516418,478
902.632629,473
902.74884,486
902.865112,480
902.981384,474
903.097595,479
903.213867,481
903.330017,492
903.446289,481
903.5625,486
903.67865,491
903.794922,457
903.911072,470
904.027344,465
904.143494,477
904.259705,462
904.375916,484
904.492065,454
904.608215,486
904.724426,474
904.840576,485
904.956726,460
905.072876,465
905.189087,464
905.305176,474
905.421387,458
905.537537,463
905.653687,470
905.769775,468
905.885925,466
906.002014,467
906.118164,460
906.234314,463
906.350403,485
906.466492,473
906.582642,460
906.69873,467
906.814758,462
906.930908,473
907.046936,478
907.163086,475
907.279175,462
907.395264,489
907.511353,476
907.62738,475
907.743408,457
907.859497,469
907.975525,475
908.091553,477
908.207703,466
908.32373,481
908.439758,476
908.555786,453
908.671814,461
908.787842,465
908.90387,476
909.019775,484
909.135864,464
909.251892,484
909.367859,460
909.483826,474
909.599854,459
909.715881,472
909.831848,464
909.947815,490
910.063782,482
910.179749,478
910.295776,478
910.411743,491
910.527649,465
910.643616,466
910.759583,455
910.875488,472
910.991455,478
911.107361,488
911.223267,466
911.339294,476
911.4552,470
911.571106,464
911.687073,475
911.802979,488
911.918823,480
912.034729,494
912.150635,461
912.266602,474
912.382446,471
912.498352,451
912.614197,463
912.730103,483
912.846008,459
