792.44574,1152
792.56488,1136
792.68396,1161
792.80304,1136
792.92218,1035
793.041199,998
793.160339,996
793.279419,962
793.398499,966
793.517578,929
793.636658,919
793.755737,945
793.874817,928
793.993896,906
794.112976,880
794.232056,854
794.351074,847
794.470215,830
794.589233,839
794.708313,802
794.827393,809
794.946411,811
795.065552,776
795.18457,797
795.303589,794
795.422668,762
795.541687,756
795.660767,740
795.779846,767
795.898865,722
796.017883,774
796.136963,727
796.255981,721
796.375061,724
796.49408,718
796.613037,723
796.732117,735
796.851135,721
796.970154,703
797.089233,710
797.208191,682
797.327271,674
797.446228,662
797.565186,691
797.684265,690
797.803223,666
797.922241,677
798.04126,672
798.160278,669
798.279297,686
798.398315,686
798.517273,635
798.636292,665
798.75531,651
798.874268,685
798.993286,650
799.112244,667
799.231323,664
799.350281,655
799.469238,651
799.588257,658
799.707153,642
799.826111,620
799.945129,670
800.064087,653
800.183044,647
800.302063,646
800.421021,641
800.539978,626
800.658936,628
800.777893,633
800.896912,592
801.015747,632
801.134705,632
801.253723,637
801.37262,639
801.491638,605
801.610535,589
801.729492,622
801.84845,628
801.967407,629
802.086243,616
802.205261,578
802.324158,616
802.443115,587
802.562073,580
802.680969,601
802.799927,594
802.918762,617
803.037659,570
803.156677,604
803.275574,589
803.39447,580
803.513428,598
803.632263,602
803.751221,604
803.870117,605
803.989014,604
804.107971,594
804.226746,590
804.345642,571
804.4646,606
804.583496,609
804.702393,601
804.821228,576
804.940125,579
805.059021,565
805.177917,556
805.296814,595
805.415649,597
805.534546,608
805.653442,585
805.772278,570
805.891113,610
806.01001,571
806.128906,577
806.247742,601
806.366577,561
806.485413,596
806.604309,566
806.723145,597
806.84198,586
806.960876,565
807.079712,582
807.198486,592
807.317383,574
807.436218,560
807.554993,579
807.673889,575
807.792725,582
807.91156,574
808.030396,585
808.14917,558
808.268005,575
808.386841,574
808.505676,579
808.624451,573
808.743286,585
808.862122,569
808.980896,568
809.099731,575
809.218506,569
809.337341,574
809.456116,566
809.57489,579
809.693726,605
809.8125,571
809.931274,549
810.050049,570
810.168884,572
810.287659,575
810.406372,573
810.525269,584
810.643982,573
810.762756,512
810.881531,572
811.000305,567
811.11908,573
811.237854,577
811.356567,556
811.475403,596
811.594116,609
811.71283,596
811.831604,571
811.950378,567
812.069153,574
812.187927,571
812.30658,581
812.425415,590
812.544128,592
812.662781,573
812.781616,593
812.900269,589
813.019043,609
813.137756,561
813.256531,572
813.375244,541
813.493896,562
813.612671,543
813.731384,569
813.850037,548
813.96875,563
814.087524,564
814.206238,553
814.324951,580
814.443604,578
814.562256,571
814.68103,562
814.799683,556
814.918335,570
815.037109,558
815.155762,570
815.274475,553
815.393188,568
815.511841,559
815.630554,582
815.749146,548
815.867859,567
815.986572,566
816.105164,558
816.223877,568
816.342529,555
816.461182,562
816.579895,589
816.698486,587
816.817139,578
816.935791,578
817.054504,584
817.173096,584
817.291748,571
817.4104,566
817.529053,563
817.647644,560
817.766235,550
817.884949,537
818.00354,548
818.122192,552
818.240845,547
818.359436,544
818.478088,558
818.59668,554
818.715271,521
818.833923,540
818.952515,541
819.071106,531
819.189758,520
819.30835,525
819.426941,525
819.545532,528
819.664124,535
819.782715,526
819.901306,521
820.019897,515
820.138489,518
820.25708,533
820.375671,520
820.494202,518
820.612732,522
820.731384,537
820.849915,522
820.968506,520
821.087097,539
821.205627,529
821.324158,502
821.442749,505
821.561279,501
821.679871,520
821.798401,515
821.916931,515
822.035461,519
822.154053,514
822.272583,526
822.391174,513
822.509583,534
822.628174,508
822.746704,509
822.865234,508
822.983765,500
823.102295,510
823.220825,506
823.339294,486
823.457825,493
823.576355,494
823.694824,498
823.813354,495
823.931885,500
824.050354,523
824.168884,503
824.287354,503
824.405823,513
824.524353,518
824.642822,520
824.761353,513
824.879822,510
824.998291,520
825.116699,508
825.235291,493
825.353699,502
825.472168,485
825.590637,503
825.709106,501
825.827576,508
825.946045,496
826.064453,498
826.182983,494
826.301392,500
826.4198,483
826.53833,488
826.656738,497
826.775208,492
826.893677,505
827.012024,493
827.130493,481
827.248962,519
827.36731,477
827.485779,487
827.604248,499
827.722595,483
827.841064,468
827.959412,511
828.077942,528
828.196289,488
828.314636,498
828.433105,495
828.551514,504
828.669861,484
828.78833,483
828.906677,492
829.025085,495
829.143433,479
829.261841,498
829.38031,503
829.498657,483
829.617004,489
829.735413,477
829.85376,494
829.972107,497
830.090515,479
830.208862,504
830.327209,499
830.445557,481
830.563904,506
830.682312,502
830.800659,490
830.919006,506
831.037354,507
831.155701,490
831.274048,513
831.392395,515
831.51062,511
831.629028,509
831.747314,501
831.865662,490
831.984009,522
832.102356,506
832.220642,503
832.338928,506
832.457275,496
832.575623,489
832.693909,510
832.812134,498
832.930481,514
833.048828,491
833.167114,485
833.2854,504
833.403687,505
833.521973,481
833.640259,506
833.758545,489
833.876831,495
833.995056,501
834.113281,519
834.231628,489
834.349915,504
834.468201,481
834.586426,504
834.704651,509
834.822998,515
834.941162,489
835.059448,504
835.177673,496
835.295959,502
835.414246,494
835.53241,518
835.650635,492
835.768921,511
835.887146,505
836.005371,505
836.123596,499
836.241821,493
836.360046,491
836.478271,522
836.596497,474
836.714722,498
836.832886,484
836.95105,518
837.069336,483
837.1875,504
837.305725,504
837.423889,513
837.542053,508
837.660339,484
837.778503,506
837.896667,508
838.014832,496
838.132996,497
838.25116,511
838.369385,501
838.487488,510
838.605713,509
838.723877,513
838.84198,510
838.960205,520
839.078308,510
839.196472,489
839.314636,508
839.4328,499
839.550964,515
839.669067,520
839.787231,513
839.905396,514
840.023499,514
840.141602,519
840.259766,507
840.377869,538
840.495972,522
840.614136,537
840.732239,527
840.850342,538
840.968445,539
841.086548,532
841.204651,561
841.322754,524
841.440918,535
841.55896,565
841.677002,561
841.795166,532
841.913208,546
842.031311,555
842.149353,548
842.267456,530
842.385498,552
842.503601,545
842.621643,546
842.739746,536
842.857788,538
842.97583,540
843.093933,526
843.211975,533
843.330017,544
843.44812,534
843.566101,525
843.684204,532
843.802246,537
843.920227,526
844.038269,534
844.156311,520
844.274292,559
844.392395,529
844.510376,522
844.628357,517
844.74646,521
844.864441,505
844.982422,530
845.100403,512
845.218384,505
845.336426,527
845.454468,502
845.572449,518
845.69043,511
845.808411,518
845.926453,537
846.044373,523
846.162354,538
846.280396,528
846.398315,521
846.516296,529
846.634216,517
846.752197,537
846.870178,547
846.988098,538
847.106079,550
847.22406,531
847.34198,552
847.4599,544
847.577881,526
847.695801,525
847.813782,510
847.931641,541
848.049561,535
848.167603,544
848.285461,540
848.403381,525
848.521362,518
848.639221,519
848.75708,531
848.875,519
848.99292,540
849.110901,513
849.22876,525
849.34668,536
849.464539,559
849.582458,507
849.700317,525
849.818176,522
849.936096,538
850.053955,531
850.171875,514
850.289673,527
850.407593,537
850.525452,529
850.643311,531
850.761169,520
850.878967,532
850.996887,544
851.114746,515
851.232544,543
851.350403,528
851.468262,503
851.58606,505
851.703979,516
851.821777,518
851.939636,528
852.057434,553
852.175232,530
852.293091,524
852.410889,523
852.528687,543
852.646545,537
852.764343,548
852.88208,562
852.999939,538
853.117676,522
853.235535,529
853.353271,532
853.471069,543
853.588928,508
853.706604,517
853.824402,511
853.9422,528
854.059998,500
854.177734,538
854.295532,522
854.413269,529
854.531006,535
854.648804,550
854.766541,551
854.884277,545
855.002014,521
855.119751,537
855.237549,522
855.355225,524
855.473022,523
855.590698,516
855.708435,520
855.826172,531
855.943848,531
856.061646,543
856.179321,538
856.296997,549
856.414795,564
856.53241,544
856.650085,558
856.767822,539
856.885559,535
857.003174,543
857.120911,554
857.238586,554
857.356201,568
857.473938,549
857.591614,556
857.709351,532
857.826965,528
857.944641,547
858.062317,538
858.179993,527
858.297668,561
858.415283,563
858.532959,541
858.650574,543
858.768188,565
858.885803,552
859.003479,556
859.121094,530
859.23877,531
859.356384,535
859.473999,550
859.591675,519
859.709229,521
859.826843,535
859.944458,538
860.062012,535
860.179626,527
860.297302,545
860.414856,500
860.532471,524
860.650024,526
860.767639,522
860.885193,501
861.002808,512
861.120361,525
861.237976,553
861.35553,523
861.473022,514
861.590698,516
861.708191,529
861.825745,521
861.943298,524
862.060852,512
862.178406,512
862.295959,515
862.413513,490
862.531006,504
862.64856,514
862.766113,487
862.883667,492
863.00116,508
863.118713,492
863.236206,501
863.353699,509
863.471252,503
863.588745,502
863.706177,503
863.82373,501
863.941162,497
864.058716,508
864.176208,501
864.29364,527
864.411194,501
864.528687,512
864.646118,486
864.763611,492
864.881042,492
864.998535,480
865.116028,509
865.233459,513
865.350891,490
865.468384,510
865.585754,522
865.703308,500
865.820679,499
865.938171,509
866.055542,497
866.173035,508
866.290466,517
866.407837,508
866.52533,491
866.6427,493
866.760071,498
866.877563,497
866.994934,509
867.112305,493
867.229736,512
867.347107,494
867.464539,493
867.58197,512
867.699341,512
867.81665,515
867.934082,506
868.051453,511
868.168823,522
868.286194,509
868.403564,483
868.520935,515
868.638306,517
868.755676,534
868.872986,513
868.990295,497
869.107727,519
869.225037,498
869.342346,495
869.459717,533
869.577026,522
869.694336,527
869.811707,533
869.929016,507
870.046326,524
870.163635,542
870.280945,522
870.398254,540
870.515564,529
870.632812,534
870.750183,536
870.867432,545
870.984741,557
871.102051,538
871.219299,558
871.336609,541
871.453918,556
871.571106,553
871.688416,537
871.805664,556
871.922852,571
872.040222,543
872.157471,530
872.274719,568
872.391968,555
872.509155,556
872.626465,533
872.743652,541
872.860962,567
872.978149,523
873.095337,550
873.212646,536
873.329834,523
873.44696,523
873.564209,543
873.681396,528
873.798645,538
873.915894,553
874.03302,554
874.150208,562
874.267456,535
874.384583,552
874.501831,543
874.618958,567
874.736145,552
874.853333,550
874.970459,564
875.087646,561
875.204834,543
875.32196,534
875.439148,526
875.556274,543
875.673401,528
875.790527,536
875.907715,546
876.024841,520
876.141968,544
876.259094,547
876.376282,542
876.493347,532
876.610474,518
876.7276,533
876.844727,515
876.961853,530
877.078918,527
877.195984,531
877.313171,526
877.430237,517
877.547302,525
877.664368,518
877.781433,512
877.898499,554
878.015625,528
878.13269,544
878.249695,516
878.366821,510
878.483887,522
878.600952,521
878.717957,496
878.834961,495
878.952087,498
879.069092,493
879.186157,526
879.303162,486
879.420227,497
879.537231,508
879.654236,510
879.77124,494
879.888306,482
880.005249,516
880.122314,474
880.239319,515
880.356323,469
880.473328,503
880.590271,500
880.707275,495
880.824341,493
880.941284,496
881.058228,509
881.175232,477
881.292236,508
881.40918,502
881.526123,502
881.643066,506
881.760071,478
881.877014,490
881.993958,519
882.11084,486
882.227783,504
882.344727,483
882.46167,482
882.578613,500
882.695618,482
882.812439,488
882.929382,503
883.046326,489
883.163208,477
883.280151,489
883.397034,489
883.513916,500
883.630798,491
883.747742,485
883.864563,496
883.981506,506
884.098389,516
884.21521,524
884.332153,515
884.448975,516
884.565796,506
884.682678,518
884.7995,551
884.916443,562
885.033264,563
885.150085,572
885.266968,603
885.383789,590
885.500671,636
885.617493,613
885.734314,612
885.851196,607
885.967896,586
886.084717,615
886.201599,599
886.318359,592
886.435181,634
886.552002,581
886.668762,575
886.785645,563
886.902344,579
887.019165,579
887.135925,587
887.252747,560
887.369446,564
887.486267,575
887.603027,545
887.719788,546
887.836548,526
887.953247,521
888.070068,518
888.186829,515
888.303528,501
888.420288,515
888.536987,486
888.653687,510
888.770447,487
888.887146,507
889.003967,476
889.120667,494
889.237305,484
889.354065,481
889.470703,478
889.587463,482
889.704163,474
889.820862,492
889.937561,489
890.054199,463
890.170837,472
890.287598,466
890.404236,456
890.520874,479
890.637634,468
890.754211,450
890.87085,465
890.987549,478
891.104187,481
891.220886,495
891.337463,464
891.454102,476
891.57074,473
891.687378,477
891.804077,507
891.920654,504
892.037231,490
892.15387,485
892.270447,489
892.387085,485
892.503723,494
892.6203,461
892.736877,487
892.853516,488
892.970032,471
893.08667,484
893.203186,447
893.319763,469
893.43634,481
893.552917,484
893.669556,480
893.786011,476
893.902588,480
894.019165,481
894.135681,473
894.252197,484
894.368835,494
894.485291,495
894.601868,466
894.718384,470
894.8349,476
894.951355,476
895.067932,467
895.184448,443
895.300964,462
895.417419,469
895.533936,466
895.650452,482
895.766907,461
895.883423,489
895.999878,457
896.116333,491
896.232849,484
896.349304,476
896.465759,477
896.582214,483
896.698669,461
896.815125,496
896.931641,457
897.048035,475
897.164551,488
897.280884,485
897.397339,463
897.513794,470
897.630249,474
897.746582,475
897.863098,459
897.979431,492
898.095886,469
898.212341,487
898.328674,489
898.445129,457
898.561462,480
898.677795,485
898.794312,460
898.910645,467
899.026978,474
899.143433,471
899.259766,486
899.37616,475
899.492493,468
899.608765,503
899.725159,476
899.841553,488
899.957947,485
900.07428,487
900.190552,462
900.306946,490
900.423157,491
900.53949,473
900.655884,482
900.772156,490
900.888489,493
901.004822,487
901.121033,481
901.237366,484
901.353699,501
901.46991,491
901.586304,488
901.702515,488
901.818787,496
901.93512,505
902.051331,507
902.167603,518
902.283875,512
902.400085,524
902.516418,530
902.632629,538
902.74884,515
902.865112,549
902.981384,530
903.097595,542
903.213867,530
903.330017,549
903.446289,515
903.5625,526
903.67865,517
903.794922,520
903.911072,520
904.027344,510
904.143494,507
904.259705,524
904.375916,496
904.492065,523
904.608215,506
904.724426,499
904.840576,471
904.956726,487
905.072876,484
905.189087,495
905.305176,471
905.421387,499
905.537537,479
905.653687,482
905.769775,469
905.885925,481
906.002014,479
906.118164,464
906.234314,465
906.350403,475
906.466492,465
906.582642,490
906.69873,475
906.814758,469
906.930908,479
907.046936,458
907.163086,462
907.279175,469
907.395264,475
907.511353,469
907.62738,462
907.743408,475
907.859497,473
907.975525,461
908.091553,457
908.207703,471
908.32373,456
908.439758,480
908.555786,468
908.671814,473
908.787842,454
908.90387,483
909.019775,489
909.135864,449
909.251892,480
909.367859,483
909.483826,487
909.599854,473
909.715881,489
909.831848,479
909.947815,455
910.063782,456
910.179749,480
910.295776,486
910.411743,473
910.527649,474
910.643616,470
910.759583,458
910.875488,481
910.991455,470
911.107361,466
911.223267,492
911.339294,461
911.4552,477
911.571106,451
911.687073,464
911.802979,454
911.918823,472
912.034729,462
912.150635,467
912.266602,477
912.382446,470
912.498352,469
912.614197,468
912.730103,467
912.846008,480
792.44574,1138
792.56488,1117
792.68396,1119
792.80304,1111
792.92218,1076
793.041199,1004
793.160339,985
793.279419,989
793.398499,968
793.517578,945
793.636658,916
793.755737,932
793.874817,905
793.993896,888
794.112976,858
794.232056,869
794.351074,844
794.470215,852
794.589233,815
794.708313,805
794.827393,783
794.946411,808
795.065552,810
795.18457,806
795.303589,792
795.422668,753
795.541687,785
795.660767,754
795.779846,787
795.898865,740
796.017883,747
796.136963,749
796.255981,742
796.375061,732
796.49408,725
796.613037,724
796.732117,712
796.851135,696
796.970154,677
797.089233,713
797.208191,685
797.327271,685
797.446228,694
797.565186,668
797.684265,703
797.803223,667
797.922241,656
798.04126,683
798.160278,660
798.279297,657
798.398315,660
798.517273,644
798.636292,650
798.75531,668
798.874268,660
798.993286,644
799.112244,667
799.231323,620
799.350281,634
799.469238,635
799.588257,651
799.707153,632
799.826111,663
799.945129,650
800.064087,632
800.183044,636
800.302063,611
800.421021,631
800.539978,620
800.658936,633
800.777893,613
800.896912,635
801.015747,629
801.134705,595
801.253723,621
801.37262,638
801.491638,608
801.610535,647
801.729492,601
801.84845,627
801.967407,600
802.086243,613
802.205261,630
802.324158,605
802.443115,587
802.562073,615
802.680969,598
802.799927,605
802.918762,604
803.037659,609
803.156677,603
803.275574,624
803.39447,605
803.513428,609
803.632263,606
803.751221,606
803.870117,592
803.989014,607
804.107971,603
804.226746,601
804.345642,600
804.4646,588
804.583496,594
804.702393,578
804.821228,575
804.940125,583
805.059021,564
805.177917,590
805.296814,578
805.415649,581
805.534546,598
805.653442,584
805.772278,602
805.891113,597
806.01001,602
806.128906,577
806.247742,582
806.366577,587
806.485413,597
806.604309,597
806.723145,581
806.84198,576
806.960876,574
807.079712,590
807.198486,562
807.317383,565
807.436218,576
807.554993,564
807.673889,580
807.792725,569
807.91156,571
808.030396,558
808.14917,591
808.268005,596
808.386841,558
808.505676,566
808.624451,579
808.743286,564
808.862122,573
808.980896,578
809.099731,591
809.218506,562
809.337341,569
809.456116,580
809.57489,562
809.693726,590
809.8125,585
809.931274,556
810.050049,573
810.168884,586
810.287659,547
810.406372,580
810.525269,569
810.643982,571
810.762756,583
810.881531,585
811.000305,586
811.11908,603
811.237854,562
811.356567,593
811.475403,563
811.594116,567
811.71283,577
811.831604,583
811.950378,569
812.069153,585
812.187927,574
812.30658,572
812.425415,592
812.544128,576
812.662781,556
812.781616,583
812.900269,587
813.019043,594
813.137756,592
813.256531,576
813.375244,570
813.493896,567
813.612671,564
813.731384,565
813.850037,572
813.96875,555
814.087524,563
814.206238,565
814.324951,582
814.443604,567
814.562256,572
814.68103,562
814.799683,563
814.918335,585
815.037109,565
815.155762,557
815.274475,540
815.393188,554
815.511841,579
815.630554,559
815.749146,563
815.867859,566
815.986572,581
816.105164,569
816.223877,552
816.342529,598
816.461182,571
816.579895,577
816.698486,581
816.817139,559
816.935791,583
817.054504,594
817.173096,542
817.291748,550
817.4104,585
817.529053,573
817.647644,565
817.766235,572
817.884949,542
818.00354,565
818.122192,556
818.240845,550
818.359436,558
818.478088,564
818.59668,538
818.715271,533
818.833923,545
818.952515,547
819.071106,536
819.189758,540
819.30835,546
819.426941,519
819.545532,533
819.664124,511
819.782715,520
819.901306,528
820.019897,531
820.138489,506
820.25708,531
820.375671,526
820.494202,537
820.612732,523
820.731384,515
820.849915,520
820.968506,538
821.087097,511
821.205627,507
821.324158,517
821.442749,502
821.561279,525
821.679871,526
821.798401,499
821.916931,532
822.035461,501
822.154053,524
822.272583,519
822.391174,520
822.509583,503
822.628174,505
822.746704,502
822.865234,513
822.983765,520
823.102295,485
823.220825,507
823.339294,509
823.457825,491
823.576355,505
823.694824,507
823.813354,500
823.931885,494
824.050354,518
824.168884,519
824.287354,504
824.405823,522
824.524353,533
824.642822,507
824.761353,503
824.879822,496
824.998291,518
825.116699,529
825.235291,510
825.353699,520
825.472168,481
825.590637,514
825.709106,506
825.827576,514
825.946045,513
826.064453,518
826.182983,503
826.301392,488
826.4198,506
826.53833,484
826.656738,482
826.775208,483
826.893677,520
827.012024,512
827.130493,498
827.248962,496
827.36731,505
827.485779,521
827.604248,513
827.722595,504
827.841064,476
827.959412,497
828.077942,487
828.196289,505
828.314636,516
828.433105,459
828.551514,489
828.669861,485
828.78833,496
828.906677,480
829.025085,488
829.143433,500
829.261841,499
829.38031,499
829.498657,508
829.617004,499
829.735413,494
829.85376,500
829.972107,477
830.090515,499
830.208862,496
830.327209,488
830.445557,499
830.563904,517
830.682312,483
830.800659,501
830.919006,491
831.037354,517
831.155701,507
831.274048,527
831.392395,485
831.51062,479
831.629028,505
831.747314,503
831.865662,492
831.984009,482
832.102356,501
832.220642,502
832.338928,507
832.457275,522
832.575623,505
832.693909,516
832.812134,502
832.930481,499
833.048828,497
833.167114,516
833.2854,495
833.403687,491
833.521973,497
833.640259,503
833.758545,474
833.876831,480
833.995056,497
834.113281,516
834.231628,505
834.349915,508
834.468201,460
834.586426,504
834.704651,509
834.822998,469
834.941162,484
835.059448,516
835.177673,497
835.295959,510
835.414246,492
835.53241,497
835.650635,497
835.768921,493
835.887146,484
836.005371,508
836.123596,492
836.241821,497
836.360046,484
836.478271,492
836.596497,473
836.714722,507
836.832886,509
836.95105,502
837.069336,506
837.1875,466
837.305725,495
837.423889,502
837.542053,481
837.660339,528
837.778503,483
837.896667,483
838.014832,512
838.132996,501
838.25116,511
838.369385,508
838.487488,492
838.605713,528
838.723877,499
838.84198,502
838.960205,495
839.078308,503
839.196472,487
839.314636,493
839.4328,499
839.550964,515
839.669067,532
839.787231,528
839.905396,525
840.023499,527
840.141602,519
840.259766,528
840.377869,539
840.495972,521
840.614136,538
840.732239,549
840.850342,522
840.968445,534
841.086548,507
841.204651,527
841.322754,524
841.440918,549
841.55896,524
841.677002,551
841.795166,557
841.913208,551
842.031311,553
842.149353,550
842.267456,526
842.385498,552
842.503601,542
842.621643,532
842.739746,530
842.857788,515
842.97583,538
843.093933,552
843.211975,526
843.330017,540
843.44812,535
843.566101,545
843.684204,536
843.802246,518
843.920227,539
844.038269,546
844.156311,504
844.274292,512
844.392395,534
844.510376,504
844.628357,524
844.74646,526
844.864441,529
844.982422,535
845.100403,535
845.218384,501
845.336426,516
845.454468,520
845.572449,495
845.69043,528
845.808411,507
845.926453,528
846.044373,515
846.162354,536
846.280396,527
846.398315,511
846.516296,528
846.634216,542
846.752197,534
846.870178,536
846.988098,538
847.106079,525
847.22406,515
847.34198,544
847.4599,537
847.577881,518
847.695801,538
847.813782,543
847.931641,488
848.049561,521
848.167603,536
848.285461,544
848.403381,521
848.521362,532
848.639221,519
848.75708,514
848.875,537
848.99292,541
849.110901,522
849.22876,516
849.34668,523
849.464539,544
849.582458,538
849.700317,534
849.818176,508
849.936096,520
850.053955,524
850.171875,546
850.289673,549
850.407593,530
850.525452,513
850.643311,526
850.761169,533
850.878967,524
850.996887,520
851.114746,521
851.232544,521
851.350403,515
851.468262,522
851.58606,529
851.703979,508
851.821777,532
851.939636,501
852.057434,511
852.175232,521
852.293091,532
852.410889,545
852.528687,550
852.646545,558
852.764343,551
852.88208,547
852.999939,561
853.117676,524
853.235535,549
853.353271,541
853.471069,525
853.588928,506
853.706604,533
853.824402,520
853.9422,527
854.059998,518
854.177734,536
854.295532,514
854.413269,541
854.531006,543
854.648804,544
854.766541,552
854.884277,538
855.002014,550
855.119751,524
855.237549,530
855.355225,523
855.473022,520
855.590698,537
855.708435,521
855.826172,539
855.943848,538
856.061646,534
856.179321,534
856.296997,522
856.414795,544
856.53241,527
856.650085,526
856.767822,540
856.885559,551
857.003174,545
857.120911,547
857.238586,548
857.356201,563
857.473938,555
857.591614,530
857.709351,555
857.826965,517
857.944641,555
858.062317,558
858.179993,548
858.297668,523
858.415283,555
858.532959,557
858.650574,542
858.768188,543
858.885803,555
859.003479,532
859.121094,549
859.23877,540
859.356384,532
859.473999,510
859.591675,525
859.709229,525
859.826843,535
859.944458,523
860.062012,528
860.179626,525
860.297302,525
860.414856,519
860.532471,521
860.650024,525
860.767639,526
860.885193,537
861.002808,513
861.120361,525
861.237976,533
861.35553,524
861.473022,522
861.590698,523
861.708191,552
861.825745,499
861.943298,514
862.060852,492
862.178406,527
862.295959,518
862.413513,506
862.531006,500
862.64856,502
862.766113,490
862.883667,504
863.00116,483
863.118713,489
863.236206,496
863.353699,505
863.471252,506
863.588745,504
863.706177,499
863.82373,515
863.941162,523
864.058716,508
864.176208,492
864.29364,526
864.411194,512
864.528687,502
864.646118,516
864.763611,499
864.881042,488
864.998535,511
865.116028,500
865.233459,487
865.350891,505
865.468384,494
865.585754,505
865.703308,518
865.820679,495
865.938171,492
866.055542,492
866.173035,511
866.290466,509
866.407837,494
866.52533,500
866.6427,500
866.760071,505
866.877563,493
866.994934,493
867.112305,507
867.229736,509
867.347107,494
867.464539,499
867.58197,516
867.699341,535
867.81665,496
867.934082,491
868.051453,510
868.168823,513
868.286194,521
868.403564,520
868.520935,491
868.638306,514
868.755676,520
868.872986,501
868.990295,509
869.107727,501
869.225037,514
869.342346,522
869.459717,514
869.577026,517
869.694336,523
869.811707,507
869.929016,526
870.046326,536
870.163635,523
870.280945,493
870.398254,520
870.515564,543
870.632812,539
870.750183,543
870.867432,530
870.984741,541
871.102051,530
871.219299,538
871.336609,559
871.453918,539
871.571106,547
871.688416,528
871.805664,550
871.922852,550
872.040222,554
872.157471,562
872.274719,527
872.391968,543
872.509155,567
872.626465,548
872.743652,553
872.860962,543
872.978149,543
873.095337,550
873.212646,549
873.329834,536
873.44696,559
873.564209,526
873.681396,552
873.798645,547
873.915894,537
874.03302,522
874.150208,541
874.267456,545
874.384583,556
874.501831,528
874.618958,548
874.736145,545
874.853333,595
874.970459,547
875.087646,574
875.204834,537
875.32196,566
875.439148,568
875.556274,551
875.673401,543
875.790527,549
875.907715,528
876.024841,536
876.141968,511
876.259094,530
876.376282,542
876.493347,535
876.610474,525
876.7276,516
876.844727,515
876.961853,535
877.078918,513
877.195984,553
877.313171,502
877.430237,534
877.547302,541
877.664368,529
877.781433,538
877.898499,520
878.015625,521
878.13269,496
878.249695,527
878.366821,518
878.483887,500
878.600952,499
878.717957,531
878.834961,520
878.952087,496
879.069092,521
879.186157,516
879.303162,496
879.420227,513
879.537231,501
879.654236,485
879.77124,504
879.888306,491
880.005249,499
880.122314,476
880.239319,485
880.356323,516
880.473328,490
880.590271,504
880.707275,514
880.824341,492
880.941284,490
881.058228,478
881.175232,485
881.292236,489
881.40918,497
881.526123,499
881.643066,511
881.760071,468
881.877014,499
881.993958,486
882.11084,502
882.227783,494
882.344727,473
882.46167,487
882.578613,505
882.695618,487
882.812439,515
882.929382,485
883.046326,492
883.163208,483
883.280151,482
883.397034,506
883.513916,504
883.630798,489
883.747742,517
883.864563,502
883.981506,496
884.098389,492
884.21521,541
884.332153,526
884.448975,523
884.565796,533
884.682678,549
884.7995,535
884.916443,549
885.033264,589
885.150085,567
885.266968,553
885.383789,587
885.500671,599
885.617493,627
885.734314,604
885.851196,600
885.967896,595
886.084717,619
886.201599,606
886.318359,599
886.435181,610
886.552002,578
886.668762,594
886.785645,585
886.902344,587
887.019165,592
887.135925,580
887.252747,563
887.369446,572
887.486267,552
887.603027,548
887.719788,545
887.836548,537
887.953247,557
888.070068,506
888.186829,539
888.303528,505
888.420288,510
888.536987,479
888.653687,463
888.770447,493
888.887146,498
889.003967,510
889.120667,509
889.237305,468
889.354065,470
889.470703,485
889.587463,486
889.704163,497
889.820862,463
889.937561,475
890.054199,468
890.170837,474
890.287598,479
890.404236,490
890.520874,481
890.637634,466
890.754211,451
890.87085,468
890.987549,486
891.104187,477
891.220886,475
891.337463,475
891.454102,492
891.57074,481
891.687378,473
891.804077,500
891.920654,473
892.037231,492
892.15387,473
892.270447,504
892.387085,484
892.503723,480
892.6203,481
892.736877,476
892.853516,473
892.970032,484
893.08667,477
893.203186,473
893.319763,468
893.43634,477
893.552917,509
893.669556,485
893.786011,508
893.902588,466
894.019165,472
894.135681,484
894.252197,476
894.368835,467
894.485291,475
894.601868,474
894.718384,469
894.8349,460
894.951355,480
895.067932,483
895.184448,491
895.300964,469
895.417419,469
895.533936,487
895.650452,470
895.766907,482
895.883423,462
895.999878,467
896.116333,470
896.232849,465
896.349304,464
896.465759,480
896.582214,483
896.698669,484
896.815125,492
896.931641,478
897.048035,470
897.164551,463
897.280884,467
897.397339,470
897.513794,472
897.630249,453
897.746582,484
897.863098,467
897.979431,479
898.095886,467
898.212341,471
898.328674,477
898.445129,462
898.561462,460
898.677795,477
898.794312,477
898.910645,479
899.026978,477
899.143433,496
899.259766,486
899.37616,473
899.492493,489
899.608765,475
899.725159,484
899.841553,496
899.957947,464
900.07428,481
900.190552,472
900.306946,482
900.423157,472
900.53949,475
900.655884,487
900.772156,498
900.888489,451
901.004822,496
901.121033,498
901.237366,494
901.353699,481
901.46991,492
901.586304,493
901.702515,512
901.818787,500
901.93512,517
902.051331,513
902.167603,521
902.283875,524
902.400085,544
902.516418,536
902.632629,531
902.74884,543
902.865112,564
902.981384,561
903.097595,559
903.213867,543
903.330017,526
903.446289,548
903.5625,533
903.67865,538
903.794922,511
903.911072,526
904.027344,527
904.143494,505
904.259705,502
904.375916,503
904.492065,503
904.608215,492
904.724426,519
904.840576,457
904.956726,479
905.072876,506
905.189087,478
905.305176,494
905.421387,486
905.537537,483
905.653687,479
905.769775,482
905.885925,498
906.002014,467
906.118164,476
906.234314,478
906.350403,466
906.466492,475
906.582642,474
906.69873,455
906.814758,466
906.930908,480
907.046936,481
907.163086,471
907.279175,456
907.395264,486
907.511353,476
907.62738,461
907.743408,459
907.859497,475
907.975525,486
908.091553,482
908.207703,476
908.32373,488
908.439758,478
908.555786,487
908.671814,478
908.787842,489
908.90387,480
909.019775,497
909.135864,468
909.251892,500
909.367859,460
909.483826,458
909.599854,474
909.715881,496
909.831848,493
909.947815,477
910.063782,484
910.179749,476
910.295776,472
910.411743,468
910.527649,492
910.643616,497
910.759583,484
910.875488,466
910.991455,483
911.107361,464
911.223267,481
911.339294,471
911.4552,475
911.571106,457
911.687073,486
911.802979,470
911.918823,442
912.034729,465
912.150635,482
912.266602,472
912.382446,475
912.498352,478
912.614197,465
912.730103,464
912.846008,467
792.44574,1147
792.56488,1143
792.68396,1194
792.80304,1103
792.92218,1064
793.041199,1031
793.160339,980
793.279419,992
793.398499,943
793.517578,948
793.636658,915
793.755737,907
793.874817,914
793.993896,889
794.112976,871
794.232056,815
794.351074,848
794.470215,816
794.589233,807
794.708313,813
794.827393,807
794.946411,804
795.065552,810
795.18457,811
795.303589,784
795.422668,786
795.541687,761
795.660767,775
795.779846,780
795.898865,734
796.017883,752
796.136963,730
796.255981,739
796.375061,738
796.49408,728
796.613037,729
796.732117,730
796.851135,702
796.970154,703
797.089233,704
797.208191,701
797.327271,733
797.446228,690
797.565186,676
797.684265,694
797.803223,678
797.922241,663
798.04126,652
798.160278,676
798.279297,663
798.398315,635
798.517273,669
798.636292,645
798.75531,669
798.874268,669
798.993286,634
799.112244,646
799.231323,625
799.350281,635
799.469238,662
799.588257,634
799.707153,646
799.826111,637
799.945129,638
800.064087,630
800.183044,628
800.302063,628
800.421021,621
800.539978,621
800.658936,620
800.777893,612
800.896912,640
801.015747,633
801.134705,630
801.253723,628
801.37262,634
801.491638,632
801.610535,627
801.729492,622
801.84845,627
801.967407,623
802.086243,627
802.205261,593
802.324158,626
802.443115,592
802.562073,599
802.680969,605
802.799927,599
802.918762,593
803.037659,615
803.156677,593
803.275574,624
803.39447,605
803.513428,620
803.632263,592
803.751221,605
803.870117,592
803.989014,577
804.107971,585
804.226746,590
804.345642,584
804.4646,581
804.583496,583
804.702393,606
804.821228,598
804.940125,614
805.059021,577
805.177917,610
805.296814,589
805.415649,588
805.534546,586
805.653442,605
805.772278,595
805.891113,574
806.01001,567
806.128906,605
806.247742,580
806.366577,584
806.485413,570
806.604309,577
806.723145,616
806.84198,589
806.960876,581
807.079712,572
807.198486,564
807.317383,592
807.436218,578
807.554993,582
807.673889,568
807.792725,568
807.91156,565
808.030396,592
808.14917,574
808.268005,585
808.386841,594
808.505676,546
808.624451,574
808.743286,558
808.862122,577
808.980896,589
809.099731,569
809.218506,569
809.337341,569
809.456116,564
809.57489,571
809.693726,592
809.8125,568
809.931274,577
810.050049,572
810.168884,584
810.287659,572
810.406372,547
810.525269,571
810.643982,589
810.762756,570
810.881531,578
811.000305,566
811.11908,596
811.237854,599
811.356567,592
811.475403,581
811.594116,586
811.71283,591
811.831604,599
811.950378,582
812.069153,599
812.187927,598
812.30658,572
812.425415,563
812.544128,564
812.662781,596
812.781616,564
812.900269,586
813.019043,568
813.137756,583
813.256531,571
813.375244,564
813.493896,551
813.612671,579
813.731384,574
813.850037,563
813.96875,572
814.087524,562
814.206238,556
814.324951,558
814.443604,569
814.562256,563
814.68103,575
814.799683,578
814.918335,566
815.037109,564
815.155762,548
815.274475,576
815.393188,573
815.511841,562
815.630554,563
815.749146,571
815.867859,572
815.986572,570
816.105164,550
816.223877,590
816.342529,575
816.461182,558
816.579895,583
816.698486,565
816.817139,567
816.935791,563
817.054504,583
817.173096,584
817.291748,566
817.4104,556
817.529053,555
817.647644,556
817.766235,552
817.884949,563
818.00354,567
818.122192,548
818.240845,544
818.359436,529
818.478088,530
818.59668,553
818.715271,526
818.833923,537
818.952515,532
819.071106,532
819.189758,515
819.30835,518
819.426941,523
819.545532,518
819.664124,507
819.782715,539
819.901306,530
820.019897,513
820.138489,511
820.25708,522
820.375671,505
820.494202,527
820.612732,528
820.731384,516
820.849915,512
820.968506,504
821.087097,534
821.205627,503
821.324158,520
821.442749,502
821.561279,515
821.679871,517
821.798401,517
821.916931,529
822.035461,510
822.154053,515
822.272583,513
822.391174,505
822.509583,503
822.628174,516
822.746704,500
822.865234,506
822.983765,505
823.102295,497
823.220825,508
823.339294,503
823.457825,499
823.576355,495
823.694824,496
823.813354,477
823.931885,496
824.050354,509
824.168884,508
824.287354,504
824.405823,485
824.524353,508
824.642822,509
824.761353,518
824.879822,511
824.998291,519
825.116699,517
825.235291,503
825.353699,537
825.472168,486
825.590637,493
825.709106,502
825.827576,472
825.946045,502
826.064453,501
826.182983,488
826.301392,497
826.4198,498
826.53833,486
826.656738,500
826.775208,473
826.893677,485
827.012024,507
827.130493,494
827.248962,524
827.36731,499
827.485779,483
827.604248,480
827.722595,484
827.841064,484
827.959412,490
828.077942,506
828.196289,500
828.314636,484
828.433105,485
828.551514,497
828.669861,499
828.78833,492
828.906677,489
829.025085,505
829.143433,492
829.261841,503
829.38031,507
829.498657,483
829.617004,499
829.735413,484
829.85376,485
829.972107,484
830.090515,498
830.208862,496
830.327209,492
830.445557,493
830.563904,495
830.682312,492
830.800659,472
830.919006,491
831.037354,495
831.155701,504
831.274048,510
831.392395,508
831.51062,504
831.629028,501
831.747314,482
831.865662,490
831.984009,475
832.102356,514
832.220642,515
832.338928,511
832.457275,502
832.575623,487
832.693909,504
832.812134,497
832.930481,515
833.048828,504
833.167114,490
833.2854,494
833.403687,495
833.521973,514
833.640259,487
833.758545,511
833.876831,496
833.995056,479
834.113281,494
834.231628,503
834.349915,500
834.468201,498
834.586426,499
834.704651,489
834.822998,506
834.941162,494
835.059448,490
835.177673,486
835.295959,476
835.414246,493
835.53241,500
835.650635,498
835.768921,511
835.887146,500
836.005371,494
836.123596,499
836.241821,498
836.360046,515
836.478271,485
836.596497,499
836.714722,493
836.832886,481
836.95105,491
837.069336,489
837.1875,495
837.305725,485
837.423889,490
837.542053,476
837.660339,490
837.778503,470
837.896667,493
838.014832,502
838.132996,527
838.25116,487
838.369385,507
838.487488,511
838.605713,517
838.723877,493
838.84198,512
838.960205,494
839.078308,488
839.196472,501
839.314636,501
839.4328,531
839.550964,499
839.669067,500
839.787231,534
839.905396,507
840.023499,527
840.141602,532
840.259766,536
840.377869,530
840.495972,537
840.614136,505
840.732239,519
840.850342,518
840.968445,518
841.086548,529
841.204651,538
841.322754,530
841.440918,551
841.55896,532
841.677002,558
841.795166,546
841.913208,520
842.031311,553
842.149353,553
842.267456,559
842.385498,537
842.503601,524
842.621643,530
842.739746,542
842.857788,536
842.97583,526
843.093933,531
843.211975,558
843.330017,572
843.44812,529
843.566101,549
843.684204,526
843.802246,539
843.920227,508
844.038269,548
844.156311,514
844.274292,541
844.392395,528
844.510376,524
844.628357,535
844.74646,527
844.864441,530
844.982422,523
845.100403,532
845.218384,509
845.336426,508
845.454468,532
845.572449,516
845.69043,510
845.808411,548
845.926453,525
846.044373,512
846.162354,523
846.280396,538
846.398315,508
846.516296,508
846.634216,533
846.752197,534
846.870178,535
846.988098,526
847.106079,506
847.22406,510
847.34198,524
847.4599,528
847.577881,522
847.695801,524
847.813782,517
847.931641,528
848.049561,517
848.167603,517
848.285461,543
848.403381,501
848.521362,511
848.639221,504
848.75708,512
848.875,519
848.99292,524
849.110901,546
849.22876,519
849.34668,509
849.464539,534
849.582458,528
849.700317,531
849.818176,519
849.936096,536
850.053955,528
850.171875,532
850.289673,499
850.407593,534
850.525452,543
850.643311,542
850.761169,532
850.878967,533
850.996887,533
851.114746,527
851.232544,508
851.350403,519
851.468262,532
851.58606,526
851.703979,519
851.821777,513
851.939636,512
852.057434,525
852.175232,510
852.293091,541
852.410889,546
852.528687,547
852.646545,558
852.764343,586
852.88208,554
852.999939,518
853.117676,535
853.235535,524
853.353271,551
853.471069,546
853.588928,529
853.706604,531
853.824402,507
853.9422,528
854.059998,527
854.177734,536
854.295532,541
854.413269,561
854.531006,536
854.648804,533
854.766541,530
854.884277,526
855.002014,538
855.119751,520
855.237549,515
855.355225,532
855.473022,527
855.590698,532
855.708435,534
855.826172,546
855.943848,515
856.061646,527
856.179321,517
856.296997,534
856.414795,553
856.53241,531
856.650085,535
856.767822,553
856.885559,550
857.003174,575
857.120911,537
857.238586,546
857.356201,557
857.473938,549
857.591614,545
857.709351,548
857.826965,544
857.944641,552
858.062317,550
858.179993,568
858.297668,540
858.415283,535
858.532959,538
858.650574,548
858.768188,549
858.885803,526
859.003479,533
859.121094,546
859.23877,541
859.356384,550
859.473999,538
859.591675,524
859.709229,520
859.826843,523
859.944458,498
860.062012,520
860.179626,530
860.297302,535
860.414856,533
860.532471,542
860.650024,522
860.767639,544
860.885193,513
861.002808,528
861.120361,525
861.237976,511
861.35553,538
861.473022,518
861.590698,522
861.708191,557
861.825745,538
861.943298,525
862.060852,521
862.178406,497
862.295959,498
862.413513,506
862.531006,508
862.64856,513
862.766113,506
862.883667,489
863.00116,491
863.118713,512
863.236206,522
863.353699,510
863.471252,502
863.588745,519
863.706177,504
863.82373,521
863.941162,522
864.058716,492
864.176208,510
864.29364,507
864.411194,509
864.528687,505
864.646118,508
864.763611,487
864.881042,496
864.998535,509
865.116028,516
865.233459,522
865.350891,527
865.468384,505
865.585754,510
865.703308,509
865.820679,499
865.938171,478
866.055542,507
866.173035,516
866.290466,505
866.407837,518
866.52533,512
866.6427,507
866.760071,497
866.877563,490
866.994934,496
867.112305,505
867.229736,522
867.347107,500
867.464539,503
867.58197,506
867.699341,504
867.81665,502
867.934082,529
868.051453,508
868.168823,504
868.286194,506
868.403564,510
868.520935,506
868.638306,520
868.755676,515
868.872986,506
868.990295,525
869.107727,527
869.225037,503
869.342346,519
869.459717,527
869.577026,502
869.694336,520
869.811707,503
869.929016,534
870.046326,532
870.163635,524
870.280945,529
870.398254,536
870.515564,527
870.632812,510
870.750183,539
870.867432,563
870.984741,537
871.102051,543
871.219299,529
871.336609,541
871.453918,532
871.571106,555
871.688416,544
871.805664,571
871.922852,550
872.040222,566
872.157471,554
872.274719,546
872.391968,559
872.509155,545
872.626465,550
872.743652,544
872.860962,555
872.978149,531
873.095337,551
873.212646,541
873.329834,536
873.44696,545
873.564209,560
873.681396,533
873.798645,533
873.915894,550
874.03302,536
874.150208,537
874.267456,570
874.384583,568
874.501831,546
874.618958,553
874.736145,545
874.853333,552
874.970459,551
875.087646,563
875.204834,550
875.32196,549
875.439148,554
875.556274,545
875.673401,518
875.790527,544
875.907715,532
876.024841,540
876.141968,513
876.259094,538
876.376282,527
876.493347,510
876.610474,519
876.7276,523
876.844727,513
876.961853,552
877.078918,531
877.195984,525
877.313171,520
877.430237,544
877.547302,538
877.664368,520
877.781433,506
877.898499,510
878.015625,515
878.13269,535
878.249695,507
878.366821,523
878.483887,503
878.600952,493
878.717957,514
878.834961,513
878.952087,526
879.069092,512
879.186157,505
879.303162,512
879.420227,494
879.537231,496
879.654236,504
879.77124,499
879.888306,503
880.005249,499
880.122314,499
880.239319,524
880.356323,487
880.473328,500
880.590271,499
880.707275,489
880.824341,487
880.941284,495
881.058228,492
881.175232,486
881.292236,482
881.40918,494
881.526123,489
881.643066,486
881.760071,483
881.877014,505
881.993958,529
882.11084,503
882.227783,497
882.344727,507
882.46167,492
882.578613,494
882.695618,481
882.812439,504
882.929382,476
883.046326,514
883.163208,488
883.280151,500
883.397034,501
883.513916,495
883.630798,496
883.747742,528
883.864563,494
883.981506,517
884.098389,503
884.21521,520
884.332153,534
884.448975,527
884.565796,530
884.682678,534
884.7995,545
884.916443,552
885.033264,567
885.150085,617
885.266968,554
885.383789,584
885.500671,621
885.617493,625
885.734314,613
885.851196,622
885.967896,608
886.084717,607
886.201599,565
886.318359,621
886.435181,589
886.552002,562
886.668762,588
886.785645,568
886.902344,583
887.019165,576
887.135925,566
887.252747,590
887.369446,558
887.486267,553
887.603027,568
887.719788,548
887.836548,529
887.953247,553
888.070068,532
888.186829,531
888.303528,511
888.420288,509
888.536987,496
888.653687,510
888.770447,487
888.887146,491
889.003967,485
889.120667,493
889.237305,475
889.354065,508
889.470703,463
889.587463,491
889.704163,492
889.820862,488
889.937561,492
890.054199,487
890.170837,470
890.287598,482
890.404236,478
890.520874,480
890.637634,465
890.754211,487
890.87085,478
890.987549,483
891.104187,484
891.220886,499
891.337463,478
891.454102,492
891.57074,496
891.687378,489
891.804077,493
891.920654,493
892.037231,468
892.15387,472
892.270447,490
892.387085,492
892.503723,480
892.6203,484
892.736877,488
892.853516,484
892.970032,461
893.08667,485
893.203186,478
893.319763,498
893.43634,481
893.552917,496
893.669556,490
893.786011,484
893.902588,469
894.019165,450
894.135681,496
894.252197,487
894.368835,464
894.485291,485
894.601868,482
894.718384,474
894.8349,478
894.951355,482
895.067932,487
895.184448,496
895.300964,475
895.417419,465
895.533936,470
895.650452,482
895.766907,482
895.883423,480
895.999878,470
896.116333,500
896.232849,483
896.349304,483
896.465759,487
896.582214,480
896.698669,489
896.815125,480
896.931641,475
897.048035,481
897.164551,482
897.280884,476
897.397339,464
897.513794,459
897.630249,465
897.746582,488
897.863098,462
897.979431,491
898.095886,471
898.212341,472
898.328674,480
898.445129,474
898.561462,483
898.677795,493
898.794312,498
898.910645,487
899.026978,495
899.143433,504
899.259766,491
899.37616,478
899.492493,488
899.608765,478
899.725159,469
899.841553,490
899.957947,471
900.07428,490
900.190552,482
900.306946,468
900.423157,457
900.53949,474
900.655884,490
900.772156,494
900.888489,484
901.004822,472
901.121033,482
901.237366,493
901.353699,482
901.46991,502
901.586304,502
901.702515,493
901.818787,504
901.93512,510
902.051331,520
902.167603,521
902.283875,511
902.400085,537
902.516418,544
902.632629,561
902.74884,558
902.865112,530
902.981384,551
903.097595,557
903.213867,555
903.330017,534
903.446289,530
903.5625,559
903.67865,520
903.794922,539
903.911072,514
904.027344,506
904.143494,515
904.259705,524
904.375916,499
904.492065,515
904.608215,501
904.724426,513
904.840576,466
904.956726,474
905.072876,487
905.189087,509
905.305176,469
905.421387,498
905.537537,495
905.653687,491
905.769775,473
905.885925,501
906.002014,483
906.118164,489
906.234314,472
906.350403,462
906.466492,485
906.582642,469
906.69873,473
906.814758,475
906.930908,463
907.046936,457
907.163086,477
907.279175,481
907.395264,492
907.511353,465
907.62738,472
907.743408,490
907.859497,477
907.975525,465
908.091553,474
908.207703,473
908.32373,473
908.439758,476
908.555786,483
908.671814,492
908.787842,483
908.90387,464
909.019775,464
909.135864,474
909.251892,473
909.367859,476
909.483826,482
909.599854,482
909.715881,468
909.831848,480
909.947815,488
910.063782,497
910.179749,476
910.295776,475
910.411743,491
910.527649,478
910.643616,480
910.759583,491
910.875488,465
910.991455,459
911.107361,488
911.223267,484
911.339294,478
911.4552,460
911.571106,457
911.687073,476
911.802979,452
911.918823,452
912.034729,466
912.150635,485
912.266602,470
912.382446,481
912.498352,476
912.614197,471
912.730103,479
912.846008,470
