792.44574,1140
792.56488,1092
792.68396,1125
792.80304,1032
792.92218,1009
793.041199,992
793.160339,948
793.279419,971
793.398499,936
793.517578,888
793.636658,890
793.755737,901
793.874817,876
793.993896,875
794.112976,854
794.232056,802
794.351074,855
794.470215,808
794.589233,821
794.708313,804
794.827393,790
794.946411,774
795.065552,765
795.18457,782
795.303589,751
795.422668,761
795.541687,749
795.660767,736
795.779846,776
795.898865,719
796.017883,736
796.136963,734
796.255981,699
796.375061,708
796.49408,714
796.613037,684
796.732117,720
796.851135,692
796.970154,711
797.089233,695
797.208191,645
797.327271,654
797.446228,662
797.565186,684
797.684265,681
797.803223,642
797.922241,654
798.04126,654
798.160278,646
798.279297,660
798.398315,631
798.517273,637
798.636292,629
798.75531,660
798.874268,642
798.993286,652
799.112244,596
799.231323,617
799.350281,643
799.469238,651
799.588257,604
799.707153,656
799.826111,630
799.945129,627
800.064087,621
800.183044,613
800.302063,614
800.421021,607
800.539978,610
800.658936,617
800.777893,614
800.896912,600
801.015747,614
801.134705,604
801.253723,596
801.37262,595
801.491638,636
801.610535,609
801.729492,597
801.84845,583
801.967407,596
802.086243,572
802.205261,591
802.324158,594
802.443115,595
802.562073,580
802.680969,591
802.799927,588
802.918762,587
803.037659,589
803.156677,573
803.275574,576
803.39447,603
803.513428,581
803.632263,590
803.751221,593
803.870117,575
803.989014,554
804.107971,586
804.226746,572
804.345642,557
804.4646,578
804.583496,572
804.702393,586
804.821228,580
804.940125,577
805.059021,600
805.177917,582
805.296814,580
805.415649,556
805.534546,588
805.653442,579
805.772278,572
805.891113,566
806.01001,570
806.128906,584
806.247742,583
806.366577,556
806.485413,574
806.604309,561
806.723145,570
806.84198,544
806.960876,556
807.079712,565
807.198486,566
807.317383,548
807.436218,574
807.554993,562
807.673889,572
807.792725,561
807.91156,577
808.030396,574
808.14917,543
808.268005,567
808.386841,556
808.505676,566
808.624451,568
808.743286,524
808.862122,564
808.980896,556
809.099731,548
809.218506,540
809.337341,559
809.456116,547
809.57489,552
809.693726,548
809.8125,554
809.931274,538
810.050049,556
810.168884,558
810.287659,540
810.406372,559
810.525269,543
810.643982,532
810.762756,574
810.881531,552
811.000305,564
811.11908,530
811.237854,554
811.356567,543
811.475403,559
811.594116,573
811.71283,569
811.831604,558
811.950378,566
812.069153,550
812.187927,569
812.30658,568
812.425415,575
812.544128,579
812.662781,565
812.781616,555
812.900269,581
813.019043,578
813.137756,571
813.256531,548
813.375244,554
813.493896,570
813.612671,558
813.731384,561
813.850037,545
813.96875,558
814.087524,550
814.206238,536
814.324951,554
814.443604,555
814.562256,546
814.68103,560
814.799683,536
814.918335,540
815.037109,575
815.155762,556
815.274475,552
815.393188,543
815.511841,540
815.630554,522
815.749146,562
815.867859,554
815.986572,545
816.105164,531
816.223877,551
816.342529,535
816.461182,552
816.579895,540
816.698486,557
816.817139,568
816.935791,567
817.054504,573
817.173096,563
817.291748,541
817.4104,559
817.529053,549
817.647644,531
817.766235,538
817.884949,535
818.00354,546
818.122192,553
818.240845,526
818.359436,555
818.478088,533
818.59668,526
818.715271,533
818.833923,537
818.952515,518
819.071106,509
819.189758,519
819.30835,508
819.426941,496
819.545532,516
819.664124,481
819.782715,510
819.901306,503
820.019897,517
820.138489,486
820.25708,519
820.375671,509
820.494202,521
820.612732,511
820.731384,521
820.849915,505
820.968506,505
821.087097,510
821.205627,493
821.324158,507
821.442749,500
821.561279,516
821.679871,485
821.798401,510
821.916931,509
822.035461,500
822.154053,504
822.272583,491
822.391174,482
822.509583,508
822.628174,516
822.746704,487
822.865234,493
822.983765,489
823.102295,511
823.220825,486
823.339294,487
823.457825,490
823.576355,500
823.694824,508
823.813354,499
823.931885,490
824.050354,493
824.168884,496
824.287354,503
824.405823,474
824.524353,519
824.642822,488
824.761353,510
824.879822,511
824.998291,484
825.116699,510
825.235291,506
825.353699,476
825.472168,487
825.590637,490
825.709106,499
825.827576,506
825.946045,509
826.064453,485
826.182983,502
826.301392,481
826.4198,476
826.53833,481
826.656738,500
826.775208,477
826.893677,496
827.012024,493
827.130493,476
827.248962,486
827.36731,480
827.485779,492
827.604248,469
827.722595,465
827.841064,480
827.959412,489
828.077942,478
828.196289,481
828.314636,495
828.433105,478
828.551514,471
828.669861,493
828.78833,494
828.906677,483
829.025085,477
829.143433,459
829.261841,467
829.38031,469
829.498657,477
829.617004,478
829.735413,484
829.85376,488
829.972107,473
830.090515,483
830.208862,512
830.327209,464
830.445557,488
830.563904,470
830.682312,470
830.800659,502
830.919006,480
831.037354,478
831.155701,503
831.274048,519
831.392395,515
831.51062,503
831.629028,515
831.747314,493
831.865662,482
831.984009,488
832.102356,506
832.220642,476
832.338928,487
832.457275,483
832.575623,513
832.693909,490
832.812134,500
832.930481,491
833.048828,482
833.167114,479
833.2854,504
833.403687,469
833.521973,474
833.640259,473
833.758545,493
833.876831,491
833.995056,475
834.113281,470
834.231628,502
834.349915,488
834.468201,481
834.586426,492
834.704651,507
834.822998,482
834.941162,506
835.059448,470
835.177673,512
835.295959,489
835.414246,485
835.53241,496
835.650635,473
835.768921,491
835.887146,481
836.005371,477
836.123596,488
836.241821,474
836.360046,497
836.478271,484
836.596497,506
836.714722,466
836.832886,503
836.95105,471
837.069336,484
837.1875,488
837.305725,506
837.423889,471
837.542053,487
837.660339,478
837.778503,496
837.896667,489
838.014832,487
838.132996,480
838.25116,496
838.369385,486
838.487488,501
838.605713,498
838.723877,490
838.84198,502
838.960205,520
839.078308,510
839.196472,496
839.314636,497
839.4328,511
839.550964,477
839.669067,521
839.787231,507
839.905396,506
840.023499,515
840.141602,520
840.259766,496
840.377869,528
840.495972,515
840.614136,497
840.732239,501
840.850342,507
840.968445,522
841.086548,513
841.204651,528
841.322754,512
841.440918,527
841.55896,541
841.677002,540
841.795166,531
841.913208,509
842.031311,528
842.149353,503
842.267456,541
842.385498,532
842.503601,530
842.621643,528
842.739746,501
842.857788,514
842.97583,518
843.093933,518
843.211975,527
843.330017,527
843.44812,521
843.566101,522
843.684204,513
843.802246,532
843.920227,517
844.038269,517
844.156311,512
844.274292,506
844.392395,490
844.510376,519
844.628357,507
844.74646,510
844.864441,525
844.982422,505
845.100403,500
845.218384,516
845.336426,501
845.454468,501
845.572449,489
845.69043,484
845.808411,492
845.926453,502
846.044373,503
846.162354,503
846.280396,512
846.398315,511
846.516296,508
846.634216,507
846.752197,514
846.870178,520
846.988098,511
847.106079,518
847.22406,503
847.34198,516
847.4599,505
847.577881,503
847.695801,518
847.813782,500
847.931641,507
848.049561,509
848.167603,515
848.285461,516
848.403381,504
848.521362,503
848.639221,519
848.75708,514
848.875,513
848.99292,508
849.110901,515
849.22876,538
849.34668,516
849.464539,494
849.582458,508
849.700317,492
849.818176,518
849.936096,508
850.053955,514
850.171875,498
850.289673,513
850.407593,511
850.525452,500
850.643311,504
850.761169,515
850.878967,516
850.996887,487
851.114746,497
851.232544,520
851.350403,491
851.468262,495
851.58606,506
851.703979,518
851.821777,497
851.939636,504
852.057434,516
852.175232,491
852.293091,514
852.410889,501
852.528687,533
852.646545,524
852.764343,547
852.88208,546
852.999939,529
853.117676,539
853.235535,527
853.353271,523
853.471069,501
853.588928,497
853.706604,494
853.824402,519
853.9422,493
854.059998,508
854.177734,485
854.295532,514
854.413269,511
854.531006,533
854.648804,517
854.766541,510
854.884277,528
855.002014,507
855.119751,512
855.237549,521
855.355225,508
855.473022,516
855.590698,511
855.708435,525
855.826172,511
855.943848,519
856.061646,519
856.179321,528
856.296997,514
856.414795,510
856.53241,521
856.650085,517
856.767822,517
856.885559,534
857.003174,528
857.120911,525
857.238586,534
857.356201,520
857.473938,502
857.591614,505
857.709351,522
857.826965,547
857.944641,523
858.062317,538
858.179993,522
858.297668,544
858.415283,531
858.532959,537
858.650574,531
858.768188,535
858.885803,505
859.003479,531
859.121094,506
859.23877,549
859.356384,528
859.473999,529
859.591675,498
859.709229,530
859.826843,507
859.944458,509
860.062012,487
860.179626,496
860.297302,527
860.414856,506
860.532471,507
860.650024,500
860.767639,479
860.885193,487
861.002808,517
861.120361,497
861.237976,529
861.35553,503
861.473022,515
861.590698,515
861.708191,507
861.825745,509
861.943298,515
862.060852,510
862.178406,494
862.295959,497
862.413513,510
862.531006,496
862.64856,486
862.766113,476
862.883667,483
863.00116,506
863.118713,464
863.236206,499
863.353699,502
863.471252,502
863.588745,491
863.706177,508
863.82373,491
863.941162,497
864.058716,499
864.176208,494
864.29364,487
864.411194,489
864.528687,478
864.646118,484
864.763611,495
864.881042,497
864.998535,490
865.116028,500
865.233459,506
865.350891,490
865.468384,467
865.585754,493
865.703308,494
865.820679,510
865.938171,481
866.055542,481
866.173035,496
866.290466,484
866.407837,501
866.52533,490
866.6427,487
866.760071,501
866.877563,489
866.994934,498
867.112305,501
867.229736,505
867.347107,492
867.464539,510
867.58197,514
867.699341,515
867.81665,505
867.934082,529
868.051453,511
868.168823,476
868.286194,503
868.403564,525
868.520935,485
868.638306,509
868.755676,489
868.872986,490
868.990295,501
869.107727,513
869.225037,514
869.342346,524
869.459717,517
869.577026,501
869.694336,499
869.811707,516
869.929016,519
870.046326,507
870.163635,523
870.280945,516
870.398254,533
870.515564,516
870.632812,496
870.750183,515
870.867432,533
870.984741,534
871.102051,525
871.219299,548
871.336609,545
871.453918,527
871.571106,527
871.688416,553
871.805664,521
871.922852,541
872.040222,551
872.157471,554
872.274719,551
872.391968,531
872.509155,515
872.626465,545
872.743652,542
872.860962,543
872.978149,527
873.095337,534
873.212646,539
873.329834,531
873.44696,517
873.564209,534
873.681396,523
873.798645,517
873.915894,510
874.03302,534
874.150208,515
874.267456,530
874.384583,543
874.501831,541
874.618958,544
874.736145,557
874.853333,514
874.970459,554
875.087646,544
875.204834,520
875.32196,530
875.439148,533
875.556274,526
875.673401,537
875.790527,526
875.907715,516
876.024841,509
876.141968,530
876.259094,511
876.376282,521
876.493347,508
876.610474,507
876.7276,507
876.844727,509
876.961853,507
877.078918,497
877.195984,512
877.313171,517
877.430237,508
877.547302,505
877.664368,515
877.781433,503
877.898499,488
878.015625,517
878.13269,499
878.249695,521
878.366821,493
878.483887,511
878.600952,511
878.717957,505
878.834961,504
878.952087,502
879.069092,488
879.186157,493
879.303162,494
879.420227,506
879.537231,470
879.654236,473
879.77124,475
879.888306,497
880.005249,481
880.122314,489
880.239319,484
880.356323,488
880.473328,501
880.590271,507
880.707275,491
880.824341,497
880.941284,471
881.058228,483
881.175232,484
881.292236,483
881.40918,471
881.526123,498
881.643066,485
881.760071,477
881.877014,481
881.993958,509
882.11084,453
882.227783,490
882.344727,478
882.46167,489
882.578613,468
882.695618,494
882.812439,509
882.929382,483
883.046326,494
883.163208,485
883.280151,484
883.397034,479
883.513916,512
883.630798,475
883.747742,495
883.864563,496
883.981506,505
884.098389,493
884.21521,500
884.332153,512
884.448975,508
884.565796,516
884.682678,501
884.7995,533
884.916443,522
885.033264,592
885.150085,566
885.266968,602
885.383789,583
885.500671,612
885.617493,598
885.734314,613
885.851196,611
885.967896,604
886.084717,609
886.201599,598
886.318359,557
886.435181,588
886.552002,582
886.668762,575
886.785645,562
886.902344,564
887.019165,568
887.135925,548
887.252747,565
887.369446,573
887.486267,528
887.603027,538
887.719788,516
887.836548,545
887.953247,542
888.070068,526
888.186829,509
888.303528,516
888.420288,513
888.536987,492
888.653687,501
888.770447,478
888.887146,468
889.003967,469
889.120667,482
889.237305,485
889.354065,472
889.470703,490
889.587463,454
889.704163,467
889.820862,459
889.937561,463
890.054199,475
890.170837,474
890.287598,466
890.404236,476
890.520874,477
890.637634,472
890.754211,455
890.87085,476
890.987549,473
891.104187,504
891.220886,478
891.337463,470
891.454102,464
891.57074,469
891.687378,462
891.804077,471
891.920654,479
892.037231,459
892.15387,466
892.270447,464
892.387085,464
892.503723,474
892.6203,487
892.736877,469
892.853516,461
892.970032,475
893.08667,483
893.203186,471
893.319763,457
893.43634,460
893.552917,471
893.669556,468
893.786011,479
893.902588,465
894.019165,457
894.135681,465
894.252197,463
894.368835,480
894.485291,467
894.601868,462
894.718384,466
894.8349,469
894.951355,460
895.067932,437
895.184448,462
895.300964,473
895.417419,471
895.533936,480
895.650452,469
895.766907,470
895.883423,464
895.999878,492
896.116333,468
896.232849,464
896.349304,460
896.465759,476
896.582214,475
896.698669,479
896.815125,476
896.931641,480
897.048035,478
897.164551,470
897.280884,488
897.397339,483
897.513794,487
897.630249,462
897.746582,463
897.863098,470
897.979431,486
898.095886,469
898.212341,471
898.328674,480
898.445129,476
898.561462,482
898.677795,452
898.794312,473
898.910645,483
899.026978,479
899.143433,460
899.259766,477
899.37616,480
899.492493,459
899.608765,476
899.725159,511
899.841553,482
899.957947,472
900.07428,481
900.190552,476
900.306946,458
900.423157,482
900.53949,490
900.655884,468
900.772156,477
900.888489,463
901.004822,478
901.121033,482
901.237366,485
901.353699,492
901.46991,450
901.586304,477
901.702515,471
901.818787,486
901.93512,493
902.051331,489
902.167603,496
902.283875,531
902.400085,512
902.516418,533
902.632629,544
902.74884,540
902.865112,524
902.981384,540
903.097595,538
903.213867,527
903.330017,519
903.446289,531
903.5625,523
903.67865,522
903.794922,516
903.911072,472
904.027344,488
904.143494,505
904.259705,506
904.375916,526
904.492065,493
904.608215,482
904.724426,492
904.840576,491
904.956726,473
905.072876,516
905.189087,494
905.305176,478
905.421387,473
905.537537,479
905.653687,472
905.769775,477
905.885925,466
906.002014,501
906.118164,464
906.234314,470
906.350403,465
906.466492,495
906.582642,478
906.69873,457
906.814758,486
906.930908,472
907.046936,461
907.163086,463
907.279175,458
907.395264,473
907.511353,464
907.62738,485
907.743408,461
907.859497,469
907.975525,481
908.091553,462
908.207703,473
908.32373,482
908.439758,461
908.555786,448
908.671814,455
908.787842,463
908.90387,475
909.019775,464
909.135864,469
909.251892,476
909.367859,471
909.483826,474
909.599854,474
909.715881,472
909.831848,458
909.947815,487
910.063782,454
910.179749,479
910.295776,461
910.411743,460
910.527649,462
910.643616,462
910.759583,470
910.875488,467
910.991455,458
911.107361,470
911.223267,474
911.339294,457
911.4552,461
911.571106,472
911.687073,472
911.802979,463
911.918823,460
912.034729,463
912.150635,475
912.266602,473
912.382446,471
912.498352,469
912.614197,459
912.730103,460
912.846008,447
792.44574,1132
792.56488,1077
792.68396,1109
792.80304,1087
792.92218,1006
793.041199,1009
793.160339,982
793.279419,961
793.398499,946
793.517578,912
793.636658,907
793.755737,917
793.874817,887
793.993896,863
794.112976,861
794.232056,847
794.351074,842
794.470215,819
794.589233,815
794.708313,776
794.827393,772
794.946411,787
795.065552,784
795.18457,788
795.303589,767
795.422668,757
795.541687,746
795.660767,753
795.779846,730
795.898865,730
796.017883,711
796.136963,716
796.255981,704
796.375061,690
796.49408,698
796.613037,693
796.732117,689
796.851135,688
796.970154,673
797.089233,662
797.208191,651
797.327271,651
797.446228,654
797.565186,702
797.684265,670
797.803223,672
797.922241,641
798.04126,655
798.160278,636
798.279297,643
798.398315,645
798.517273,646
798.636292,626
798.75531,642
798.874268,634
798.993286,638
799.112244,638
799.231323,635
799.350281,613
799.469238,634
799.588257,599
799.707153,621
799.826111,623
799.945129,604
800.064087,638
800.183044,607
800.302063,620
800.421021,639
800.539978,611
800.658936,605
800.777893,590
800.896912,609
801.015747,622
801.134705,604
801.253723,615
801.37262,599
801.491638,590
801.610535,578
801.729492,591
801.84845,625
801.967407,591
802.086243,588
802.205261,604
802.324158,585
802.443115,596
802.562073,604
802.680969,584
802.799927,582
802.918762,599
803.037659,603
803.156677,596
803.275574,588
803.39447,569
803.513428,584
803.632263,558
803.751221,570
803.870117,580
803.989014,589
804.107971,561
804.226746,595
804.345642,603
804.4646,568
804.583496,563
804.702393,589
804.821228,565
804.940125,590
805.059021,595
805.177917,554
805.296814,580
805.415649,579
805.534546,576
805.653442,591
805.772278,567
805.891113,586
806.01001,574
806.128906,542
806.247742,557
806.366577,573
806.485413,567
806.604309,557
806.723145,555
806.84198,561
806.960876,581
807.079712,558
807.198486,565
807.317383,565
807.436218,547
807.554993,555
807.673889,544
807.792725,554
807.91156,579
808.030396,547
808.14917,549
808.268005,579
808.386841,557
808.505676,555
808.624451,567
808.743286,529
808.862122,549
808.980896,563
809.099731,556
809.218506,550
809.337341,553
809.456116,543
809.57489,559
809.693726,572
809.8125,553
809.931274,525
810.050049,544
810.168884,584
810.287659,564
810.406372,545
810.525269,570
810.643982,547
810.762756,559
810.881531,543
811.000305,545
811.11908,568
811.237854,556
811.356567,559
811.475403,558
811.594116,531
811.71283,568
811.831604,585
811.950378,567
812.069153,566
812.187927,570
812.30658,569
812.425415,576
812.544128,566
812.662781,561
812.781616,563
812.900269,569
813.019043,573
813.137756,557
813.256531,569
813.375244,568
813.493896,546
813.612671,556
813.731384,541
813.850037,545
813.96875,540
814.087524,543
814.206238,536
814.324951,534
814.443604,537
814.562256,557
814.68103,542
814.799683,532
814.918335,549
815.037109,545
815.155762,544
815.274475,525
815.393188,547
815.511841,543
815.630554,580
815.749146,547
815.867859,547
815.986572,532
816.105164,556
816.223877,551
816.342529,541
816.461182,544
816.579895,545
816.698486,550
816.817139,567
816.935791,550
817.054504,539
817.173096,567
817.291748,560
817.4104,565
817.529053,544
817.647644,518
817.766235,551
817.884949,564
818.00354,530
818.122192,534
818.240845,529
818.359436,535
818.478088,535
818.59668,544
818.715271,528
818.833923,510
818.952515,524
819.071106,523
819.189758,514
819.30835,528
819.426941,500
819.545532,487
819.664124,521
819.782715,526
819.901306,515
820.019897,495
820.138489,511
820.25708,504
820.375671,514
820.494202,520
820.612732,530
820.731384,504
820.849915,485
820.968506,491
821.087097,510
821.205627,504
821.324158,498
821.442749,494
821.561279,498
821.679871,497
821.798401,489
821.916931,499
822.035461,500
822.154053,508
822.272583,502
822.391174,511
822.509583,478
822.628174,510
822.746704,484
822.865234,494
822.983765,480
823.102295,488
823.220825,484
823.339294,482
823.457825,485
823.576355,491
823.694824,494
823.813354,495
823.931885,507
824.050354,504
824.168884,491
824.287354,485
824.405823,502
824.524353,525
824.642822,486
824.761353,484
824.879822,504
824.998291,466
825.116699,496
825.235291,504
825.353699,492
825.472168,483
825.590637,510
825.709106,479
825.827576,501
825.946045,477
826.064453,482
826.182983,490
826.301392,485
826.4198,481
826.53833,486
826.656738,491
826.775208,467
826.893677,475
827.012024,491
827.130493,482
827.248962,489
827.36731,471
827.485779,485
827.604248,480
827.722595,478
827.841064,473
827.959412,475
828.077942,484
828.196289,491
828.314636,486
828.433105,494
828.551514,479
828.669861,469
828.78833,492
828.906677,484
829.025085,476
829.143433,477
829.261841,476
829.38031,485
829.498657,486
829.617004,497
829.735413,473
829.85376,487
829.972107,488
830.090515,491
830.208862,468
830.327209,481
830.445557,487
830.563904,493
830.682312,491
830.800659,497
830.919006,489
831.037354,491
831.155701,512
831.274048,495
831.392395,505
831.51062,496
831.629028,479
831.747314,483
831.865662,473
831.984009,503
832.102356,503
832.220642,492
832.338928,488
832.457275,509
832.575623,491
832.693909,477
832.812134,491
832.930481,499
833.048828,491
833.167114,488
833.2854,510
833.403687,474
833.521973,514
833.640259,480
833.758545,490
833.876831,484
833.995056,474
834.113281,483
834.231628,484
834.349915,478
834.468201,474
834.586426,494
834.704651,488
834.822998,477
834.941162,504
835.059448,491
835.177673,474
835.295959,487
835.414246,498
835.53241,482
835.650635,491
835.768921,486
835.887146,484
836.005371,478
836.123596,473
836.241821,477
836.360046,488
836.478271,461
836.596497,476
836.714722,484
836.832886,486
836.95105,507
837.069336,463
837.1875,481
837.305725,468
837.423889,483
837.542053,482
837.660339,488
837.778503,497
837.896667,490
838.014832,478
838.132996,476
838.25116,492
838.369385,484
838.487488,502
838.605713,497
838.723877,490
838.84198,505
838.960205,502
839.078308,482
839.196472,484
839.314636,504
839.4328,475
839.550964,490
839.669067,502
839.787231,519
839.905396,503
840.023499,514
840.141602,506
840.259766,519
840.377869,501
840.495972,501
840.614136,499
840.732239,505
840.850342,508
840.968445,513
841.086548,507
841.204651,520
841.322754,528
841.440918,529
841.55896,522
841.677002,529
841.795166,514
841.913208,532
842.031311,521
842.149353,527
842.267456,522
842.385498,529
842.503601,511
842.621643,501
842.739746,532
842.857788,519
842.97583,503
843.093933,519
843.211975,508
843.330017,534
843.44812,515
843.566101,515
843.684204,514
843.802246,508
843.920227,507
844.038269,505
844.156311,521
844.274292,523
844.392395,539
844.510376,508
844.628357,504
844.74646,495
844.864441,493
844.982422,509
845.100403,505
845.218384,516
845.336426,505
845.454468,510
845.572449,490
845.69043,504
845.808411,497
845.926453,509
846.044373,512
846.162354,518
846.280396,514
846.398315,510
846.516296,518
846.634216,515
846.752197,506
846.870178,533
846.988098,524
847.106079,521
847.22406,507
847.34198,527
847.4599,512
847.577881,528
847.695801,509
847.813782,517
847.931641,503
848.049561,526
848.167603,501
848.285461,499
848.403381,478
848.521362,521
848.639221,521
848.75708,513
848.875,519
848.99292,507
849.110901,524
849.22876,505
849.34668,518
849.464539,527
849.582458,484
849.700317,514
849.818176,513
849.936096,516
850.053955,518
850.171875,494
850.289673,513
850.407593,510
850.525452,510
850.643311,532
850.761169,487
850.878967,512
850.996887,501
851.114746,514
851.232544,509
851.350403,506
851.468262,496
851.58606,491
851.703979,523
851.821777,492
851.939636,498
852.057434,509
852.175232,512
852.293091,534
852.410889,543
852.528687,529
852.646545,543
852.764343,551
852.88208,547
852.999939,527
853.117676,502
853.235535,538
853.353271,528
853.471069,520
853.588928,509
853.706604,519
853.824402,523
853.9422,503
854.059998,508
854.177734,520
854.295532,515
854.413269,537
854.531006,520
854.648804,513
854.766541,533
854.884277,517
855.002014,537
855.119751,503
855.237549,504
855.355225,527
855.473022,515
855.590698,524
855.708435,516
855.826172,496
855.943848,515
856.061646,510
856.179321,524
856.296997,526
856.414795,514
856.53241,521
856.650085,527
856.767822,508
856.885559,503
857.003174,528
857.120911,521
857.238586,554
857.356201,542
857.473938,523
857.591614,519
857.709351,538
857.826965,539
857.944641,547
858.062317,523
858.179993,531
858.297668,517
858.415283,528
858.532959,538
858.650574,531
858.768188,531
858.885803,537
859.003479,539
859.121094,519
859.23877,502
859.356384,542
859.473999,521
859.591675,513
859.709229,512
859.826843,501
859.944458,491
860.062012,505
860.179626,505
860.297302,528
860.414856,497
860.532471,495
860.650024,507
860.767639,494
860.885193,503
861.002808,517
861.120361,525
861.237976,512
861.35553,508
861.473022,523
861.590698,500
861.708191,535
861.825745,527
861.943298,504
862.060852,501
862.178406,502
862.295959,501
862.413513,482
862.531006,498
862.64856,479
862.766113,475
862.883667,488
863.00116,475
863.118713,498
863.236206,508
863.353699,492
863.471252,490
863.588745,489
863.706177,516
863.82373,490
863.941162,503
864.058716,502
864.176208,497
864.29364,512
864.411194,500
864.528687,475
864.646118,475
864.763611,502
864.881042,499
864.998535,480
865.116028,482
865.233459,482
865.350891,495
865.468384,475
865.585754,479
865.703308,496
865.820679,493
865.938171,496
866.055542,497
866.173035,498
866.290466,510
866.407837,489
866.52533,481
866.6427,493
866.760071,485
866.877563,514
866.994934,493
867.112305,486
867.229736,483
867.347107,495
867.464539,499
867.58197,498
867.699341,513
867.81665,527
867.934082,489
868.051453,495
868.168823,512
868.286194,494
868.403564,489
868.520935,495
868.638306,494
868.755676,492
868.872986,514
868.990295,502
869.107727,487
869.225037,487
869.342346,505
869.459717,517
869.577026,498
869.694336,527
869.811707,506
869.929016,515
870.046326,503
870.163635,510
870.280945,533
870.398254,552
870.515564,525
870.632812,530
870.750183,527
870.867432,532
870.984741,520
871.102051,522
871.219299,543
871.336609,509
871.453918,526
871.571106,532
871.688416,549
871.805664,545
871.922852,523
872.040222,551
872.157471,548
872.274719,520
872.391968,557
872.509155,514
872.626465,530
872.743652,537
872.860962,518
872.978149,513
873.095337,542
873.212646,543
873.329834,515
873.44696,534
873.564209,514
873.681396,531
873.798645,534
873.915894,546
874.03302,519
874.150208,546
874.267456,545
874.384583,527
874.501831,554
874.618958,532
874.736145,526
874.853333,553
874.970459,547
875.087646,539
875.204834,541
875.32196,523
875.439148,503
875.556274,521
875.673401,517
875.790527,523
875.907715,518
876.024841,529
876.141968,517
876.259094,522
876.376282,523
876.493347,539
876.610474,498
876.7276,508
876.844727,505
876.961853,500
877.078918,522
877.195984,490
877.313171,498
877.430237,489
877.547302,489
877.664368,490
877.781433,532
877.898499,521
878.015625,505
878.13269,503
878.249695,502
878.366821,514
878.483887,495
878.600952,497
878.717957,488
878.834961,510
878.952087,511
879.069092,506
879.186157,496
879.303162,517
879.420227,496
879.537231,493
879.654236,474
879.77124,507
879.888306,472
880.005249,483
880.122314,503
880.239319,484
880.356323,486
880.473328,506
880.590271,485
880.707275,485
880.824341,481
880.941284,498
881.058228,485
881.175232,477
881.292236,499
881.40918,488
881.526123,477
881.643066,492
881.760071,449
881.877014,485
881.993958,479
882.11084,477
882.227783,477
882.344727,471
882.46167,468
882.578613,497
882.695618,473
882.812439,483
882.929382,492
883.046326,490
883.163208,484
883.280151,488
883.397034,486
883.513916,504
883.630798,488
883.747742,503
883.864563,505
883.981506,500
884.098389,481
884.21521,500
884.332153,520
884.448975,522
884.565796,506
884.682678,545
884.7995,520
884.916443,538
885.033264,574
885.150085,571
885.266968,602
885.383789,597
885.500671,578
885.617493,618
885.734314,603
885.851196,615
885.967896,615
886.084717,612
886.201599,568
886.318359,577
886.435181,578
886.552002,575
886.668762,577
886.785645,549
886.902344,566
887.019165,543
887.135925,559
887.252747,574
887.369446,560
887.486267,576
887.603027,553
887.719788,536
887.836548,526
887.953247,521
888.070068,522
888.186829,509
888.303528,504
888.420288,496
888.536987,500
888.653687,495
888.770447,487
888.887146,455
889.003967,497
889.120667,470
889.237305,471
889.354065,480
889.470703,480
889.587463,473
889.704163,476
889.820862,480
889.937561,441
890.054199,454
890.170837,477
890.287598,479
890.404236,472
890.520874,472
890.637634,468
890.754211,488
890.87085,459
890.987549,479
891.104187,466
891.220886,479
891.337463,459
891.454102,469
891.57074,447
891.687378,469
891.804077,502
891.920654,478
892.037231,461
892.15387,485
892.270447,473
892.387085,489
892.503723,478
892.6203,457
892.736877,477
892.853516,474
892.970032,468
893.08667,487
893.203186,466
893.319763,466
893.43634,463
893.552917,491
893.669556,457
893.786011,465
893.902588,488
894.019165,459
894.135681,458
894.252197,463
894.368835,474
894.485291,490
894.601868,472
894.718384,472
894.8349,482
894.951355,454
895.067932,471
895.184448,469
895.300964,445
895.417419,477
895.533936,460
895.650452,462
895.766907,461
895.883423,473
895.999878,463
896.116333,489
896.232849,468
896.349304,470
896.465759,467
896.582214,444
896.698669,454
896.815125,462
896.931641,458
897.048035,465
897.164551,472
897.280884,490
897.397339,469
897.513794,471
897.630249,461
897.746582,470
897.863098,487
897.979431,451
898.095886,477
898.212341,473
898.328674,487
898.445129,469
898.561462,471
898.677795,476
898.794312,490
898.910645,469
899.026978,466
899.143433,453
899.259766,471
899.37616,482
899.492493,474
899.608765,489
899.725159,477
899.841553,472
899.957947,462
900.07428,495
900.190552,458
900.306946,477
900.423157,464
900.53949,479
900.655884,474
900.772156,495
900.888489,482
901.004822,484
901.121033,480
901.237366,475
901.353699,461
901.46991,486
901.586304,465
901.702515,487
901.818787,494
901.93512,491
902.051331,502
902.167603,521
902.283875,534
902.400085,511
902.516418,533
902.632629,533
902.74884,524
902.865112,541
902.981384,523
903.097595,531
903.213867,534
903.330017,543
903.446289,522
903.5625,539
903.67865,526
903.794922,516
903.911072,531
904.027344,534
904.143494,517
904.259705,508
904.375916,490
904.492065,492
904.608215,486
904.724426,490
904.840576,479
904.956726,488
905.072876,459
905.189087,489
905.305176,474
905.421387,484
905.537537,471
905.653687,481
905.769775,466
905.885925,490
906.002014,476
906.118164,469
906.234314,481
906.350403,465
906.466492,459
906.582642,442
906.69873,461
906.814758,462
906.930908,448
907.046936,460
907.163086,461
907.279175,442
907.395264,459
907.511353,467
907.62738,478
907.743408,466
907.859497,480
907.975525,467
908.091553,464
908.207703,460
908.32373,446
908.439758,440
908.555786,456
908.671814,461
908.787842,463
908.90387,473
909.019775,458
909.135864,476
909.251892,477
909.367859,494
909.483826,459
909.599854,494
909.715881,460
909.831848,469
909.947815,450
910.063782,467
910.179749,483
910.295776,471
910.411743,470
910.527649,478
910.643616,483
910.759583,483
910.875488,468
910.991455,451
911.107361,446
911.223267,442
911.339294,468
911.4552,473
911.571106,439
911.687073,465
911.802979,466
911.918823,444
912.034729,473
912.150635,450
912.266602,457
912.382446,458
912.498352,461
912.614197,474
912.730103,442
912.846008,477
792.44574,1118
792.56488,1103
792.68396,1121
792.80304,1060
792.92218,1004
793.041199,995
793.160339,974
793.279419,977
793.398499,937
793.517578,918
793.636658,881
793.755737,907
793.874817,901
793.993896,875
794.112976,865
794.232056,856
794.351074,818
794.470215,842
794.589233,809
794.708313,798
794.827393,783
794.946411,782
795.065552,800
795.18457,781
795.303589,777
795.422668,785
795.541687,751
795.660767,749
795.779846,732
795.898865,713
796.017883,722
796.136963,711
796.255981,735
796.375061,726
796.49408,698
796.613037,684
796.732117,708
796.851135,673
796.970154,656
797.089233,670
797.208191,661
797.327271,672
797.446228,655
797.565186,671
797.684265,674
797.803223,658
797.922241,671
798.04126,671
798.160278,657
798.279297,657
798.398315,632
798.517273,626
798.636292,641
798.75531,622
798.874268,630
798.993286,638
799.112244,622
799.231323,647
799.350281,643
799.469238,657
799.588257,633
799.707153,623
799.826111,636
799.945129,624
800.064087,613
800.183044,624
800.302063,627
800.421021,610
800.539978,608
800.658936,594
800.777893,654
800.896912,608
801.015747,616
801.134705,625
801.253723,611
801.37262,616
801.491638,575
801.610535,598
801.729492,617
801.84845,601
801.967407,614
802.086243,594
802.205261,611
802.324158,604
802.443115,588
802.562073,598
802.680969,599
802.799927,601
802.918762,592
803.037659,590
803.156677,568
803.275574,592
803.39447,589
803.513428,601
803.632263,588
803.751221,582
803.870117,593
803.989014,573
804.107971,571
804.226746,597
804.345642,554
804.4646,598
804.583496,561
804.702393,580
804.821228,571
804.940125,585
805.059021,571
805.177917,578
805.296814,557
805.415649,567
805.534546,567
805.653442,573
805.772278,567
805.891113,576
806.01001,555
806.128906,575
806.247742,543
806.366577,577
806.485413,578
806.604309,569
806.723145,555
806.84198,583
806.960876,559
807.079712,564
807.198486,574
807.317383,574
807.436218,561
807.554993,581
807.673889,549
807.792725,587
807.91156,569
808.030396,567
808.14917,568
808.268005,571
808.386841,544
808.505676,564
808.624451,559
808.743286,565
808.862122,572
808.980896,551
809.099731,561
809.218506,540
809.337341,570
809.456116,546
809.57489,548
809.693726,564
809.8125,555
809.931274,576
810.050049,568
810.168884,569
810.287659,555
810.406372,572
810.525269,562
810.643982,566
810.762756,550
810.881531,551
811.000305,578
811.11908,568
811.237854,565
811.356567,578
811.475403,556
811.594116,571
811.71283,571
811.831604,565
811.950378,552
812.069153,558
812.187927,543
812.30658,553
812.425415,574
812.544128,570
812.662781,570
812.781616,550
812.900269,591
813.019043,556
813.137756,564
813.256531,581
813.375244,556
813.493896,539
813.612671,557
813.731384,572
813.850037,554
813.96875,554
814.087524,566
814.206238,556
814.324951,551
814.443604,552
814.562256,554
814.68103,568
814.799683,539
814.918335,554
815.037109,525
815.155762,542
815.274475,548
815.393188,578
815.511841,549
815.630554,542
815.749146,539
815.867859,547
815.986572,548
816.105164,540
816.223877,556
816.342529,514
816.461182,542
816.579895,551
816.698486,554
816.817139,548
816.935791,557
817.054504,569
817.173096,580
817.291748,559
817.4104,541
817.529053,545
817.647644,516
817.766235,537
817.884949,515
818.00354,540
818.122192,546
818.240845,514
818.359436,515
818.478088,534
818.59668,539
818.715271,519
818.833923,511
818.952515,494
819.071106,503
819.189758,494
819.30835,516
819.426941,500
819.545532,493
819.664124,522
819.782715,511
819.901306,526
820.019897,504
820.138489,536
820.25708,500
820.375671,516
820.494202,520
820.612732,514
820.731384,517
820.849915,511
820.968506,501
821.087097,532
821.205627,509
821.324158,501
821.442749,494
821.561279,486
821.679871,500
821.798401,515
821.916931,488
822.035461,497
822.154053,517
822.272583,518
822.391174,496
822.509583,494
822.628174,486
822.746704,518
822.865234,488
822.983765,489
823.102295,470
823.220825,481
823.339294,502
823.457825,485
823.576355,487
823.694824,488
823.813354,481
823.931885,515
824.050354,491
824.168884,480
824.287354,491
824.405823,512
824.524353,502
824.642822,497
824.761353,498
824.879822,509
824.998291,519
825.116699,498
825.235291,509
825.353699,483
825.472168,489
825.590637,481
825.709106,490
825.827576,486
825.946045,495
826.064453,514
826.182983,486
826.301392,498
826.4198,475
826.53833,494
826.656738,471
826.775208,491
826.893677,504
827.012024,490
827.130493,469
827.248962,489
827.36731,470
827.485779,498
827.604248,475
827.722595,476
827.841064,493
827.959412,481
828.077942,475
828.196289,486
828.314636,473
828.433105,474
828.551514,478
828.669861,478
828.78833,474
828.906677,480
829.025085,490
829.143433,467
829.261841,471
829.38031,478
829.498657,489
829.617004,489
829.735413,466
829.85376,477
829.972107,482
830.090515,474
830.208862,485
830.327209,478
830.445557,477
830.563904,477
830.682312,487
830.800659,458
830.919006,488
831.037354,487
831.155701,496
831.274048,499
831.392395,511
831.51062,531
831.629028,463
831.747314,494
831.865662,496
831.984009,500
832.102356,492
832.220642,481
832.338928,494
832.457275,483
832.575623,483
832.693909,487
832.812134,458
832.930481,483
833.048828,471
833.167114,473
833.2854,495
833.403687,495
833.521973,484
833.640259,497
833.758545,503
833.876831,487
833.995056,490
834.113281,494
834.231628,511
834.349915,482
834.468201,493
834.586426,500
834.704651,503
834.822998,482
834.941162,492
835.059448,494
835.177673,494
835.295959,498
835.414246,491
835.53241,495
835.650635,482
835.768921,472
835.887146,489
836.005371,479
836.123596,480
836.241821,477
836.360046,478
836.478271,483
836.596497,475
836.714722,490
836.832886,500
836.95105,486
837.069336,481
837.1875,480
837.305725,486
837.423889,467
837.542053,484
837.660339,497
837.778503,488
837.896667,479
838.014832,482
838.132996,488
838.25116,484
838.369385,474
838.487488,481
838.605713,486
838.723877,499
838.84198,481
838.960205,499
839.078308,489
839.196472,490
839.314636,496
839.4328,515
839.550964,489
839.669067,517
839.787231,495
839.905396,505
840.023499,516
840.141602,491
840.259766,516
840.377869,506
840.495972,496
840.614136,516
840.732239,540
840.850342,492
840.968445,525
841.086548,507
841.204651,536
841.322754,520
841.440918,525
841.55896,523
841.677002,517
841.795166,533
841.913208,512
842.031311,513
842.149353,521
842.267456,503
842.385498,524
842.503601,490
842.621643,515
842.739746,525
842.857788,526
842.97583,530
843.093933,524
843.211975,494
843.330017,525
843.44812,540
843.566101,523
843.684204,521
843.802246,519
843.920227,534
844.038269,525
844.156311,512
844.274292,520
844.392395,511
844.510376,499
844.628357,485
844.74646,510
844.864441,494
844.982422,519
845.100403,507
845.218384,504
845.336426,500
845.454468,506
845.572449,481
845.69043,505
845.808411,502
845.926453,523
846.044373,503
846.162354,505
846.280396,507
846.398315,519
846.516296,507
846.634216,517
846.752197,506
846.870178,520
846.988098,525
847.106079,523
847.22406,511
847.34198,493
847.4599,517
847.577881,543
847.695801,521
847.813782,522
847.931641,488
848.049561,514
848.167603,506
848.285461,490
848.403381,520
848.521362,507
848.639221,498
848.75708,520
848.875,496
848.99292,529
849.110901,503
849.22876,531
849.34668,508
849.464539,496
849.582458,519
849.700317,522
849.818176,511
849.936096,511
850.053955,520
850.171875,506
850.289673,506
850.407593,498
850.525452,498
850.643311,498
850.761169,514
850.878967,515
850.996887,513
851.114746,494
851.232544,514
851.350403,505
851.468262,493
851.58606,495
851.703979,509
851.821777,506
851.939636,494
852.057434,499
852.175232,504
852.293091,539
852.410889,535
852.528687,528
852.646545,543
852.764343,554
852.88208,529
852.999939,531
853.117676,534
853.235535,517
853.353271,502
853.471069,508
853.588928,510
853.706604,521
853.824402,523
853.9422,519
854.059998,495
854.177734,514
854.295532,507
854.413269,522
854.531006,520
854.648804,520
854.766541,518
854.884277,521
855.002014,513
855.119751,504
855.237549,505
855.355225,487
855.473022,504
855.590698,497
855.708435,518
855.826172,529
855.943848,494
856.061646,527
856.179321,506
856.296997,506
856.414795,516
856.53241,528
856.650085,530
856.767822,527
856.885559,527
857.003174,519
857.120911,534
857.238586,534
857.356201,522
857.473938,526
857.591614,537
857.709351,536
857.826965,531
857.944641,532
858.062317,543
858.179993,517
858.297668,534
858.415283,536
858.532959,540
858.650574,533
858.768188,541
858.885803,522
859.003479,523
859.121094,548
859.23877,525
859.356384,530
859.473999,516
859.591675,521
859.709229,525
859.826843,507
859.944458,475
860.062012,517
860.179626,500
860.297302,493
860.414856,494
860.532471,501
860.650024,512
860.767639,501
860.885193,507
861.002808,511
861.120361,496
861.237976,513
861.35553,497
861.473022,554
861.590698,516
861.708191,517
861.825745,496
861.943298,512
862.060852,491
862.178406,519
862.295959,501
862.413513,502
862.531006,514
862.64856,495
862.766113,474
862.883667,494
863.00116,483
863.118713,493
863.236206,473
863.353699,482
863.471252,500
863.588745,526
863.706177,510
863.82373,505
863.941162,500
864.058716,515
864.176208,507
864.29364,501
864.411194,511
864.528687,495
864.646118,498
864.763611,501
864.881042,504
864.998535,495
865.116028,498
865.233459,491
865.350891,494
865.468384,495
865.585754,481
865.703308,489
865.820679,479
865.938171,485
866.055542,499
866.173035,483
866.290466,521
866.407837,493
866.52533,504
866.6427,494
866.760071,499
866.877563,497
866.994934,493
867.112305,488
867.229736,496
867.347107,477
867.464539,510
867.58197,518
867.699341,517
867.81665,495
867.934082,490
868.051453,502
868.168823,490
868.286194,503
868.403564,493
868.520935,506
868.638306,504
868.755676,493
868.872986,522
868.990295,503
869.107727,499
869.225037,513
869.342346,497
869.459717,484
869.577026,503
869.694336,504
869.811707,507
869.929016,503
870.046326,519
870.163635,515
870.280945,519
870.398254,535
870.515564,528
870.632812,535
870.750183,538
870.867432,543
870.984741,546
871.102051,552
871.219299,552
871.336609,531
871.453918,532
871.571106,550
871.688416,551
871.805664,531
871.922852,516
872.040222,565
872.157471,560
872.274719,542
872.391968,531
872.509155,556
872.626465,540
872.743652,540
872.860962,539
872.978149,535
873.095337,543
873.212646,503
873.329834,540
873.44696,543
873.564209,504
873.681396,534
873.798645,523
873.915894,538
874.03302,515
874.150208,548
874.267456,520
874.384583,545
874.501831,554
874.618958,554
874.736145,561
874.853333,573
874.970459,527
875.087646,567
875.204834,539
875.32196,554
875.439148,532
875.556274,532
875.673401,529
875.790527,524
875.907715,517
876.024841,523
876.141968,504
876.259094,534
876.376282,530
876.493347,528
876.610474,498
876.7276,521
876.844727,518
876.961853,522
877.078918,524
877.195984,515
877.313171,496
877.430237,501
877.547302,503
877.664368,509
877.781433,494
877.898499,508
878.015625,517
878.13269,520
878.249695,507
878.366821,512
878.483887,511
878.600952,511
878.717957,505
878.834961,529
878.952087,511
879.069092,499
879.186157,527
879.303162,494
879.420227,508
879.537231,487
879.654236,481
879.77124,478
879.888306,474
880.005249,476
880.122314,486
880.239319,474
880.356323,489
880.473328,464
880.590271,492
880.707275,488
880.824341,474
880.941284,464
881.058228,491
881.175232,499
881.292236,495
881.40918,461
881.526123,475
881.643066,495
881.760071,470
881.877014,469
881.993958,479
882.11084,492
882.227783,481
882.344727,504
882.46167,513
882.578613,462
882.695618,494
882.812439,497
882.929382,475
883.046326,509
883.163208,483
883.280151,492
883.397034,482
883.513916,498
883.630798,492
883.747742,488
883.864563,481
883.981506,506
884.098389,494
884.21521,486
884.332153,486
884.448975,534
884.565796,533
884.682678,524
884.7995,530
884.916443,556
885.033264,578
885.150085,564
885.266968,598
885.383789,598
885.500671,631
885.617493,620
885.734314,590
885.851196,594
885.967896,606
886.084717,612
886.201599,609
886.318359,587
886.435181,587
886.552002,578
886.668762,593
886.785645,570
886.902344,562
887.019165,554
887.135925,558
887.252747,573
887.369446,534
887.486267,558
887.603027,541
887.719788,536
887.836548,556
887.953247,530
888.070068,507
888.186829,510
888.303528,505
888.420288,506
888.536987,493
888.653687,484
888.770447,481
888.887146,470
889.003967,476
889.120667,487
889.237305,468
889.354065,485
889.470703,456
889.587463,465
889.704163,475
889.820862,442
889.937561,458
890.054199,481
890.170837,463
890.287598,491
890.404236,480
890.520874,475
890.637634,477
890.754211,458
890.87085,475
890.987549,463
891.104187,486
891.220886,484
891.337463,470
891.454102,471
891.57074,499
891.687378,498
891.804077,462
891.920654,484
892.037231,475
892.15387,488
892.270447,483
892.387085,477
892.503723,461
892.6203,490
892.736877,476
892.853516,493
892.970032,493
893.08667,495
893.203186,487
893.319763,461
893.43634,487
893.552917,477
893.669556,474
893.786011,475
893.902588,475
894.019165,483
894.135681,466
894.252197,486
894.368835,468
894.485291,455
894.601868,483
894.718384,484
894.8349,486
894.951355,466
895.067932,452
895.184448,455
895.300964,470
895.417419,465
895.533936,443
895.650452,458
895.766907,466
895.883423,494
895.999878,460
896.116333,484
896.232849,454
896.349304,481
896.465759,480
896.582214,462
896.698669,471
896.815125,482
896.931641,475
897.048035,489
897.164551,477
897.280884,466
897.397339,466
897.513794,478
897.630249,467
897.746582,471
897.863098,458
897.979431,478
898.095886,487
898.212341,472
898.328674,472
898.445129,464
898.561462,445
898.677795,478
898.794312,467
898.910645,465
899.026978,479
899.143433,494
899.259766,463
899.37616,452
899.492493,482
899.608765,487
899.725159,484
899.841553,481
899.957947,466
900.07428,489
900.190552,501
900.306946,473
900.423157,478
900.53949,467
900.655884,473
900.772156,484
900.888489,473
901.004822,488
901.121033,471
901.237366,488
901.353699,502
901.46991,484
901.586304,473
901.702515,488
901.818787,486
901.93512,490
902.051331,516
902.167603,510
902.283875,507
902.400085,507
902.516418,533
902.632629,530
902.74884,539
902.865112,552
902.981384,526
903.097595,552
903.213867,517
903.330017,526
903.446289,509
903.5625,516
903.67865,500
903.794922,532
903.911072,526
904.027344,530
904.143494,517
904.259705,491
904.375916,501
904.492065,481
904.608215,482
904.724426,497
904.840576,489
904.956726,493
905.072876,482
905.189087,479
905.305176,480
905.421387,476
905.537537,471
905.653687,475
905.769775,488
905.885925,481
906.002014,473
906.118164,481
906.234314,469
906.350403,480
906.466492,468
906.582642,473
906.69873,458
906.814758,470
906.930908,457
907.046936,466
907.163086,479
907.279175,481
907.395264,463
907.511353,479
907.62738,459
907.743408,453
907.859497,478
907.975525,460
908.091553,460
908.207703,479
908.32373,477
908.439758,464
908.555786,467
908.671814,462
908.787842,474
908.90387,459
909.019775,473
909.135864,486
909.251892,473
909.367859,468
909.483826,484
909.599854,479
909.715881,483
909.831848,486
909.947815,489
910.063782,471
910.179749,468
910.295776,495
910.411743,484
910.527649,458
910.643616,472
910.759583,472
910.875488,485
910.991455,469
911.107361,474
911.223267,479
911.339294,478
911.4552,443
911.571106,466
911.687073,485
911.802979,470
911.918823,470
912.034729,483
912.150635,480
912.266602,465
912.382446,458
912.498352,461
912.614197,482
912.730103,460
912.846008,454
