792.44574,1190
792.56488,1131
792.68396,1167
792.80304,1155
792.92218,1071
793.041199,1066
793.160339,1020
793.279419,1004
793.398499,982
793.517578,977
793.636658,944
793.755737,923
793.874817,933
793.993896,927
794.112976,920
794.232056,889
794.351074,831
794.470215,850
794.589233,853
794.708313,860
794.827393,807
794.946411,812
795.065552,847
795.18457,818
795.303589,782
795.422668,781
795.541687,773
795.660767,753
795.779846,762
795.898865,787
796.017883,757
796.136963,762
796.255981,761
796.375061,716
796.49408,726
796.613037,735
796.732117,731
796.851135,701
796.970154,676
797.089233,720
797.208191,682
797.327271,683
797.446228,711
797.565186,684
797.684265,675
797.803223,671
797.922241,685
798.04126,672
798.160278,670
798.279297,658
798.398315,664
798.517273,661
798.636292,666
798.75531,660
798.874268,656
798.993286,670
799.112244,661
799.231323,641
799.350281,652
799.469238,631
799.588257,652
799.707153,629
799.826111,664
799.945129,652
800.064087,643
800.183044,637
800.302063,639
800.421021,645
800.539978,638
800.658936,629
800.777893,629
800.896912,638
801.015747,613
801.134705,635
801.253723,625
801.37262,625
801.491638,612
801.610535,626
801.729492,607
801.84845,624
801.967407,632
802.086243,611
802.205261,619
802.324158,602
802.443115,619
802.562073,598
802.680969,601
802.799927,594
802.918762,620
803.037659,596
803.156677,590
803.275574,594
803.39447,591
803.513428,596
803.632263,599
803.751221,596
803.870117,555
803.989014,587
804.107971,576
804.226746,587
804.345642,592
804.4646,610
804.583496,579
804.702393,572
804.821228,571
804.940125,581
805.059021,588
805.177917,600
805.296814,582
805.415649,563
805.534546,567
805.653442,583
805.772278,582
805.891113,579
806.01001,567
806.128906,566
806.247742,591
806.366577,592
806.485413,576
806.604309,564
806.723145,578
806.84198,540
806.960876,561
807.079712,575
807.198486,554
807.317383,580
807.436218,571
807.554993,587
807.673889,569
807.792725,592
807.91156,540
808.030396,553
808.14917,565
808.268005,575
808.386841,571
808.505676,547
808.624451,584
808.743286,567
808.862122,567
808.980896,564
809.099731,566
809.218506,562
809.337341,591
809.456116,545
809.57489,573
809.693726,570
809.8125,564
809.931274,567
810.050049,555
810.168884,567
810.287659,580
810.406372,559
810.525269,567
810.643982,575
810.762756,559
810.881531,588
811.000305,570
811.11908,559
811.237854,556
811.356567,562
811.475403,572
811.594116,548
811.71283,570
811.831604,569
811.950378,565
812.069153,565
812.187927,577
812.30658,603
812.425415,576
812.544128,565
812.662781,561
812.781616,580
812.900269,562
813.019043,583
813.137756,558
813.256531,566
813.375244,567
813.493896,578
813.612671,583
813.731384,565
813.850037,574
813.96875,562
814.087524,565
814.206238,565
814.324951,546
814.443604,570
814.562256,563
814.68103,557
814.799683,553
814.918335,557
815.037109,562
815.155762,548
815.274475,582
815.393188,560
815.511841,545
815.630554,572
815.749146,562
815.867859,555
815.986572,557
816.105164,529
816.223877,558
816.342529,546
816.461182,538
816.579895,562
816.698486,549
816.817139,562
816.935791,580
817.054504,550
817.173096,570
817.291748,557
817.4104,540
817.529053,532
817.647644,548
817.766235,526
817.884949,551
818.00354,564
818.122192,536
818.240845,529
818.359436,511
818.478088,543
818.59668,524
818.715271,546
818.833923,542
818.952515,527
819.071106,517
819.189758,531
819.30835,535
819.426941,505
819.545532,511
819.664124,500
819.782715,496
819.901306,513
820.019897,519
820.138489,517
820.25708,510
820.375671,516
820.494202,513
820.612732,501
820.731384,518
820.849915,511
820.968506,517
821.087097,519
821.205627,505
821.324158,511
821.442749,493
821.561279,487
821.679871,502
821.798401,485
821.916931,491
822.035461,496
822.154053,505
822.272583,508
822.391174,495
822.509583,520
822.628174,514
822.746704,494
822.865234,489
822.983765,505
823.102295,503
823.220825,506
823.339294,477
823.457825,519
823.576355,513
823.694824,506
823.813354,517
823.931885,516
824.050354,495
824.168884,497
824.287354,514
824.405823,510
824.524353,506
824.642822,499
824.761353,504
824.879822,500
824.998291,487
825.116699,512
825.235291,514
825.353699,530
825.472168,496
825.590637,487
825.709106,497
825.827576,483
825.946045,501
826.064453,500
826.182983,492
826.301392,506
826.4198,496
826.53833,490
826.656738,490
826.775208,490
826.893677,495
827.012024,486
827.130493,478
827.248962,511
827.36731,509
827.485779,509
827.604248,508
827.722595,506
827.841064,484
827.959412,490
828.077942,500
828.196289,480
828.314636,493
828.433105,499
828.551514,479
828.669861,494
828.78833,465
828.906677,485
829.025085,500
829.143433,486
829.261841,482
829.38031,478
829.498657,491
829.617004,508
829.735413,485
829.85376,478
829.972107,497
830.090515,473
830.208862,483
830.327209,485
830.445557,485
830.563904,470
830.682312,501
830.800659,488
830.919006,488
831.037354,509
831.155701,504
831.274048,503
831.392395,511
831.51062,498
831.629028,476
831.747314,480
831.865662,496
831.984009,509
832.102356,466
832.220642,495
832.338928,501
832.457275,506
832.575623,494
832.693909,518
832.812134,508
832.930481,507
833.048828,470
833.167114,500
833.2854,504
833.403687,508
833.521973,496
833.640259,501
833.758545,477
833.876831,511
833.995056,489
834.113281,497
834.231628,485
834.349915,495
834.468201,505
834.586426,502
834.704651,488
834.822998,471
834.941162,512
835.059448,506
835.177673,497
835.295959,518
835.414246,498
835.53241,488
835.650635,490
835.768921,490
835.887146,479
836.005371,494
836.123596,507
836.241821,486
836.360046,489
836.478271,498
836.596497,503
836.714722,498
836.832886,490
836.95105,492
837.069336,471
837.1875,473
837.305725,481
837.423889,488
837.542053,494
837.660339,478
837.778503,485
837.896667,510
838.014832,495
838.132996,502
838.25116,487
838.369385,514
838.487488,489
838.605713,485
838.723877,522
838.84198,483
838.960205,483
839.078308,497
839.196472,497
839.314636,520
839.4328,502
839.550964,529
839.669067,498
839.787231,512
839.905396,531
840.023499,527
840.141602,524
840.259766,532
840.377869,511
840.495972,535
840.614136,538
840.732239,530
840.850342,502
840.968445,521
841.086548,522
841.204651,539
841.322754,526
841.440918,531
841.55896,543
841.677002,545
841.795166,527
841.913208,531
842.031311,538
842.149353,553
842.267456,541
842.385498,519
842.503601,510
842.621643,529
842.739746,505
842.857788,514
842.97583,538
843.093933,538
843.211975,561
843.330017,513
843.44812,533
843.566101,562
843.684204,548
843.802246,530
843.920227,530
844.038269,515
844.156311,528
844.274292,529
844.392395,523
844.510376,521
844.628357,539
844.74646,503
844.864441,522
844.982422,524
845.100403,519
845.218384,529
845.336426,499
845.454468,525
845.572449,511
845.69043,511
845.808411,536
845.926453,502
846.044373,533
846.162354,510
846.280396,515
846.398315,536
846.516296,492
846.634216,543
846.752197,516
846.870178,522
846.988098,521
847.106079,515
847.22406,519
847.34198,534
847.4599,533
847.577881,530
847.695801,510
847.813782,491
847.931641,505
848.049561,513
848.167603,499
848.285461,522
848.403381,512
848.521362,524
848.639221,529
848.75708,509
848.875,534
848.99292,529
849.110901,518
849.22876,519
849.34668,533
849.464539,532
849.582458,534
849.700317,533
849.818176,518
849.936096,522
850.053955,522
850.171875,521
850.289673,514
850.407593,518
850.525452,508
850.643311,517
850.761169,559
850.878967,493
850.996887,512
851.114746,530
851.232544,505
851.350403,532
851.468262,512
851.58606,508
851.703979,518
851.821777,518
851.939636,501
852.057434,511
852.175232,520
852.293091,528
852.410889,532
852.528687,567
852.646545,578
852.764343,546
852.88208,532
852.999939,529
853.117676,535
853.235535,537
853.353271,529
853.471069,532
853.588928,530
853.706604,512
853.824402,511
853.9422,531
854.059998,513
854.177734,508
854.295532,519
854.413269,528
854.531006,504
854.648804,541
854.766541,547
854.884277,527
855.002014,520
855.119751,508
855.237549,520
855.355225,529
855.473022,531
855.590698,532
855.708435,523
855.826172,561
855.943848,528
856.061646,537
856.179321,530
856.296997,527
856.414795,533
856.53241,544
856.650085,539
856.767822,520
856.885559,535
857.003174,563
857.120911,548
857.238586,539
857.356201,544
857.473938,532
857.591614,536
857.709351,534
857.826965,539
857.944641,526
858.062317,541
858.179993,530
858.297668,536
858.415283,522
858.532959,529
858.650574,550
858.768188,528
858.885803,538
859.003479,543
859.121094,547
859.23877,516
859.356384,530
859.473999,530
859.591675,513
859.709229,521
859.826843,519
859.944458,496
860.062012,505
860.179626,519
860.297302,512
860.414856,511
860.532471,519
860.650024,514
860.767639,520
860.885193,541
861.002808,508
861.120361,531
861.237976,505
861.35553,518
861.473022,529
861.590698,530
861.708191,527
861.825745,508
861.943298,501
862.060852,508
862.178406,520
862.295959,524
862.413513,487
862.531006,497
862.64856,500
862.766113,481
862.883667,503
863.00116,496
863.118713,502
863.236206,481
863.353699,491
863.471252,495
863.588745,507
863.706177,485
863.82373,506
863.941162,512
864.058716,492
864.176208,508
864.29364,507
864.411194,515
864.528687,499
864.646118,504
864.763611,510
864.881042,511
864.998535,500
865.116028,498
865.233459,497
865.350891,492
865.468384,507
865.585754,512
865.703308,501
865.820679,491
865.938171,507
866.055542,494
866.173035,488
866.290466,498
866.407837,503
866.52533,504
866.6427,489
866.760071,489
866.877563,487
866.994934,498
867.112305,496
867.229736,490
867.347107,512
867.464539,526
867.58197,503
867.699341,516
867.81665,517
867.934082,498
868.051453,516
868.168823,510
868.286194,517
868.403564,509
868.520935,518
868.638306,501
868.755676,510
868.872986,525
868.990295,508
869.107727,524
869.225037,528
869.342346,515
869.459717,532
869.577026,501
869.694336,528
869.811707,535
869.929016,527
870.046326,510
870.163635,528
870.280945,545
870.398254,534
870.515564,535
870.632812,549
870.750183,541
870.867432,560
870.984741,536
871.102051,515
871.219299,527
871.336609,526
871.453918,537
871.571106,540
871.688416,546
871.805664,541
871.922852,546
872.040222,563
872.157471,554
872.274719,537
872.391968,538
872.509155,545
872.626465,559
872.743652,551
872.860962,537
872.978149,536
873.095337,535
873.212646,540
873.329834,514
873.44696,568
873.564209,532
873.681396,538
873.798645,528
873.915894,534
874.03302,542
874.150208,532
874.267456,540
874.384583,560
874.501831,553
874.618958,538
874.736145,560
874.853333,557
874.970459,563
875.087646,558
875.204834,558
875.32196,543
875.439148,551
875.556274,530
875.673401,552
875.790527,544
875.907715,533
876.024841,535
876.141968,539
876.259094,546
876.376282,524
876.493347,526
876.610474,512
876.7276,522
876.844727,529
876.961853,527
877.078918,532
877.195984,514
877.313171,535
877.430237,519
877.547302,505
877.664368,524
877.781433,546
877.898499,522
878.015625,512
878.13269,524
878.249695,493
878.366821,503
878.483887,502
878.600952,502
878.717957,515
878.834961,508
878.952087,493
879.069092,517
879.186157,508
879.303162,511
879.420227,500
879.537231,485
879.654236,489
879.77124,488
879.888306,519
880.005249,504
880.122314,499
880.239319,491
880.356323,479
880.473328,490
880.590271,496
880.707275,487
880.824341,491
880.941284,492
881.058228,483
881.175232,489
881.292236,494
881.40918,492
881.526123,495
881.643066,514
881.760071,479
881.877014,499
881.993958,509
882.11084,494
882.227783,493
882.344727,502
882.46167,506
882.578613,506
882.695618,494
882.812439,490
882.929382,479
883.046326,503
883.163208,504
883.280151,500
883.397034,473
883.513916,497
883.630798,501
883.747742,505
883.864563,511
883.981506,509
884.098389,505
884.21521,515
884.332153,504
884.448975,538
884.565796,516
884.682678,519
884.7995,549
884.916443,547
885.033264,564
885.150085,596
885.266968,573
885.383789,618
885.500671,589
885.617493,576
885.734314,592
885.851196,622
885.967896,570
886.084717,578
886.201599,616
886.318359,605
886.435181,576
886.552002,595
886.668762,577
886.785645,575
886.902344,566
887.019165,576
887.135925,565
887.252747,573
887.369446,546
887.486267,542
887.603027,522
887.719788,528
887.836548,521
887.953247,521
888.070068,509
888.186829,544
888.303528,520
888.420288,506
888.536987,477
888.653687,498
888.770447,468
888.887146,480
889.003967,498
889.120667,475
889.237305,464
889.354065,469
889.470703,483
889.587463,474
889.704163,469
889.820862,453
889.937561,474
890.054199,470
890.170837,494
890.287598,455
890.404236,462
890.520874,479
890.637634,478
890.754211,468
890.87085,487
890.987549,478
891.104187,489
891.220886,487
891.337463,470
891.454102,491
891.57074,471
891.687378,481
891.804077,507
891.920654,473
892.037231,470
892.15387,488
892.270447,478
892.387085,500
892.503723,471
892.6203,473
892.736877,484
892.853516,475
892.970032,478
893.08667,462
893.203186,489
893.319763,490
893.43634,472
893.552917,473
893.669556,487
893.786011,480
893.902588,488
894.019165,493
894.135681,469
894.252197,481
894.368835,462
894.485291,458
894.601868,478
894.718384,489
894.8349,479
894.951355,482
895.067932,480
895.184448,486
895.300964,466
895.417419,467
895.533936,465
895.650452,482
895.766907,479
895.883423,476
895.999878,443
896.116333,473
896.232849,466
896.349304,470
896.465759,485
896.582214,471
896.698669,459
896.815125,482
896.931641,469
897.048035,479
897.164551,491
897.280884,470
897.397339,468
897.513794,467
897.630249,495
897.746582,478
897.863098,498
897.979431,475
898.095886,473
898.212341,479
898.328674,478
898.445129,484
898.561462,481
898.677795,482
898.794312,484
898.910645,461
899.026978,491
899.143433,483
899.259766,471
899.37616,484
899.492493,477
899.608765,470
899.725159,495
899.841553,461
899.957947,488
900.07428,492
900.190552,458
900.306946,492
900.423157,470
900.53949,479
900.655884,487
900.772156,468
900.888489,470
901.004822,481
901.121033,467
901.237366,503
901.353699,494
901.46991,508
901.586304,501
901.702515,494
901.818787,492
901.93512,485
902.051331,496
902.167603,500
902.283875,516
902.400085,526
902.516418,524
902.632629,518
902.74884,544
902.865112,564
902.981384,543
903.097595,543
903.213867,559
903.330017,545
903.446289,515
903.5625,520
903.67865,560
903.794922,514
903.911072,501
904.027344,521
904.143494,517
904.259705,517
904.375916,496
904.492065,503
904.608215,511
904.724426,483
904.840576,486
904.956726,497
905.072876,485
905.189087,489
905.305176,487
905.421387,475
905.537537,490
905.653687,491
905.769775,474
905.885925,491
906.002014,479
906.118164,479
906.234314,467
906.350403,493
906.466492,467
906.582642,476
906.69873,465
906.814758,477
906.930908,465
907.046936,476
907.163086,478
907.279175,453
907.395264,449
907.511353,474
907.62738,463
907.743408,449
907.859497,472
907.975525,451
908.091553,464
908.207703,455
908.32373,468
908.439758,465
908.555786,466
908.671814,481
908.787842,454
908.90387,466
909.019775,473
909.135864,480
909.251892,463
909.367859,489
909.483826,468
909.599854,498
909.715881,469
909.831848,481
909.947815,465
910.063782,475
910.179749,485
910.295776,479
910.411743,472
910.527649,488
910.643616,476
910.759583,503
910.875488,490
910.991455,480
911.107361,474
911.223267,462
911.339294,449
911.4552,459
911.571106,478
911.687073,470
911.802979,469
911.918823,483
912.034729,480
912.150635,488
912.266602,484
912.382446,477
912.498352,476
912.614197,464
912.730103,458
912.846008,454
792.44574,1180
792.56488,1197
792.68396,1231
792.80304,1132
792.92218,1067
793.041199,1005
793.160339,988
793.279419,975
793.398499,988
793.517578,976
793.636658,960
793.755737,951
793.874817,931
793.993896,921
794.112976,888
794.232056,874
794.351074,860
794.470215,862
794.589233,844
794.708313,844
794.827393,849
794.946411,830
795.065552,825
795.18457,818
795.303589,788
795.422668,783
795.541687,779
795.660767,773
795.779846,732
795.898865,758
796.017883,760
796.136963,737
796.255981,777
796.375061,718
796.49408,745
796.613037,702
796.732117,737
796.851135,690
796.970154,715
797.089233,700
797.208191,703
797.327271,696
797.446228,728
797.565186,681
797.684265,667
797.803223,664
797.922241,650
798.04126,654
798.160278,664
798.279297,680
798.398315,634
798.517273,648
798.636292,674
798.75531,686
798.874268,672
798.993286,626
799.112244,673
799.231323,672
799.350281,650
799.469238,634
799.588257,632
799.707153,642
799.826111,625
799.945129,645
800.064087,625
800.183044,620
800.302063,635
800.421021,605
800.539978,623
800.658936,623
800.777893,640
800.896912,622
801.015747,611
801.134705,613
801.253723,627
801.37262,637
801.491638,605
801.610535,618
801.729492,596
801.84845,612
801.967407,603
802.086243,605
802.205261,617
802.324158,584
802.443115,623
802.562073,620
802.680969,598
802.799927,612
802.918762,588
803.037659,586
803.156677,614
803.275574,589
803.39447,599
803.513428,592
803.632263,601
803.751221,598
803.870117,584
803.989014,591
804.107971,600
804.226746,574
804.345642,599
804.4646,590
804.583496,595
804.702393,604
804.821228,588
804.940125,589
805.059021,592
805.177917,602
805.296814,584
805.415649,594
805.534546,589
805.653442,596
805.772278,573
805.891113,591
806.01001,580
806.128906,561
806.247742,565
806.366577,576
806.485413,578
806.604309,586
806.723145,564
806.84198,561
806.960876,581
807.079712,572
807.198486,583
807.317383,573
807.436218,584
807.554993,570
807.673889,558
807.792725,570
807.91156,555
808.030396,587
808.14917,578
808.268005,562
808.386841,584
808.505676,583
808.624451,587
808.743286,567
808.862122,547
808.980896,569
809.099731,574
809.218506,542
809.337341,566
809.456116,552
809.57489,561
809.693726,543
809.8125,570
809.931274,570
810.050049,575
810.168884,565
810.287659,574
810.406372,566
810.525269,561
810.643982,562
810.762756,558
810.881531,571
811.000305,552
811.11908,584
811.237854,560
811.356567,569
811.475403,549
811.594116,582
811.71283,575
811.831604,573
811.950378,567
812.069153,544
812.187927,590
812.30658,591
812.425415,595
812.544128,568
812.662781,585
812.781616,599
812.900269,576
813.019043,570
813.137756,573
813.256531,561
813.375244,581
813.493896,555
813.612671,568
813.731384,577
813.850037,543
813.96875,560
814.087524,573
814.206238,559
814.324951,561
814.443604,554
814.562256,572
814.68103,518
814.799683,537
814.918335,567
815.037109,562
815.155762,570
815.274475,570
815.393188,565
815.511841,550
815.630554,577
815.749146,561
815.867859,539
815.986572,548
816.105164,537
816.223877,559
816.342529,547
816.461182,542
816.579895,549
816.698486,570
816.817139,568
816.935791,564
817.054504,583
817.173096,576
817.291748,550
817.4104,544
817.529053,561
817.647644,547
817.766235,547
817.884949,555
818.00354,533
818.122192,560
818.240845,552
818.359436,533
818.478088,552
818.59668,551
818.715271,519
818.833923,531
818.952515,517
819.071106,530
819.189758,515
819.30835,519
819.426941,502
819.545532,523
819.664124,536
819.782715,512
819.901306,500
820.019897,527
820.138489,470
820.25708,527
820.375671,508
820.494202,515
820.612732,512
820.731384,528
820.849915,482
820.968506,508
821.087097,512
821.205627,501
821.324158,493
821.442749,516
821.561279,503
821.679871,497
821.798401,520
821.916931,525
822.035461,503
822.154053,510
822.272583,500
822.391174,514
822.509583,506
822.628174,519
822.746704,489
822.865234,494
822.983765,498
823.102295,502
823.220825,512
823.339294,500
823.457825,497
823.576355,481
823.694824,507
823.813354,497
823.931885,486
824.050354,508
824.168884,485
824.287354,506
824.405823,512
824.524353,508
824.642822,490
824.761353,523
824.879822,507
824.998291,505
825.116699,514
825.235291,498
825.353699,485
825.472168,490
825.590637,495
825.709106,511
825.827576,484
825.946045,509
826.064453,515
826.182983,497
826.301392,512
826.4198,494
826.53833,471
826.656738,485
826.775208,482
826.893677,483
827.012024,509
827.130493,484
827.248962,499
827.36731,498
827.485779,489
827.604248,497
827.722595,482
827.841064,511
827.959412,490
828.077942,483
828.196289,492
828.314636,476
828.433105,491
828.551514,477
828.669861,501
828.78833,494
828.906677,479
829.025085,490
829.143433,484
829.261841,500
829.38031,505
829.498657,480
829.617004,482
829.735413,503
829.85376,482
829.972107,487
830.090515,487
830.208862,508
830.327209,482
830.445557,483
830.563904,485
830.682312,480
830.800659,501
830.919006,496
831.037354,488
831.155701,505
831.274048,502
831.392395,484
831.51062,495
831.629028,487
831.747314,498
831.865662,498
831.984009,489
832.102356,524
832.220642,495
832.338928,507
832.457275,494
832.575623,506
832.693909,494
832.812134,522
832.930481,501
833.048828,507
833.167114,484
833.2854,491
833.403687,491
833.521973,507
833.640259,504
833.758545,470
833.876831,489
833.995056,484
834.113281,479
834.231628,514
834.349915,495
834.468201,514
834.586426,495
834.704651,494
834.822998,499
834.941162,494
835.059448,509
835.177673,498
835.295959,501
835.414246,503
835.53241,486
835.650635,491
835.768921,506
835.887146,508
836.005371,514
836.123596,516
836.241821,488
836.360046,467
836.478271,490
836.596497,495
836.714722,495
836.832886,504
836.95105,497
837.069336,492
837.1875,474
837.305725,483
837.423889,501
837.542053,500
837.660339,489
837.778503,530
837.896667,487
838.014832,483
838.132996,496
838.25116,484
838.369385,481
838.487488,526
838.605713,486
838.723877,509
838.84198,500
838.960205,486
839.078308,496
839.196472,504
839.314636,499
839.4328,526
839.550964,515
839.669067,509
839.787231,507
839.905396,531
840.023499,519
840.141602,520
840.259766,519
840.377869,527
840.495972,521
840.614136,528
840.732239,523
840.850342,518
840.968445,530
841.086548,528
841.204651,533
841.322754,552
841.440918,549
841.55896,548
841.677002,523
841.795166,535
841.913208,523
842.031311,551
842.149353,539
842.267456,536
842.385498,535
842.503601,533
842.621643,533
842.739746,556
842.857788,525
842.97583,527
843.093933,520
843.211975,525
843.330017,515
843.44812,528
843.566101,529
843.684204,522
843.802246,516
843.920227,505
844.038269,525
844.156311,534
844.274292,516
844.392395,534
844.510376,527
844.628357,503
844.74646,514
844.864441,519
844.982422,506
845.100403,527
845.218384,517
845.336426,532
845.454468,527
845.572449,515
845.69043,496
845.808411,537
845.926453,520
846.044373,524
846.162354,505
846.280396,534
846.398315,519
846.516296,534
846.634216,522
846.752197,518
846.870178,524
846.988098,533
847.106079,518
847.22406,527
847.34198,516
847.4599,517
847.577881,523
847.695801,515
847.813782,527
847.931641,518
848.049561,517
848.167603,510
848.285461,522
848.403381,533
848.521362,511
848.639221,515
848.75708,540
848.875,521
848.99292,548
849.110901,544
849.22876,524
849.34668,521
849.464539,535
849.582458,519
849.700317,513
849.818176,535
849.936096,501
850.053955,527
850.171875,527
850.289673,533
850.407593,531
850.525452,523
850.643311,534
850.761169,524
850.878967,523
850.996887,504
851.114746,527
851.232544,512
851.350403,525
851.468262,505
851.58606,525
851.703979,521
851.821777,521
851.939636,519
852.057434,500
852.175232,512
852.293091,549
852.410889,529
852.528687,555
852.646545,572
852.764343,547
852.88208,569
852.999939,559
853.117676,529
853.235535,526
853.353271,535
853.471069,508
853.588928,530
853.706604,510
853.824402,536
853.9422,507
854.059998,515
854.177734,533
854.295532,535
854.413269,513
854.531006,507
854.648804,540
854.766541,530
854.884277,540
855.002014,521
855.119751,522
855.237549,514
855.355225,529
855.473022,514
855.590698,523
855.708435,520
855.826172,523
855.943848,548
856.061646,523
856.179321,534
856.296997,540
856.414795,524
856.53241,517
856.650085,522
856.767822,547
856.885559,543
857.003174,515
857.120911,566
857.238586,541
857.356201,539
857.473938,528
857.591614,549
857.709351,535
857.826965,536
857.944641,514
858.062317,550
858.179993,526
858.297668,527
858.415283,529
858.532959,542
858.650574,555
858.768188,551
858.885803,555
859.003479,552
859.121094,520
859.23877,529
859.356384,526
859.473999,544
859.591675,526
859.709229,524
859.826843,529
859.944458,527
860.062012,503
860.179626,533
860.297302,540
860.414856,504
860.532471,522
860.650024,551
860.767639,490
860.885193,488
861.002808,521
861.120361,522
861.237976,521
861.35553,525
861.473022,515
861.590698,514
861.708191,526
861.825745,517
861.943298,506
862.060852,516
862.178406,522
862.295959,498
862.413513,514
862.531006,494
862.64856,511
862.766113,496
862.883667,488
863.00116,509
863.118713,499
863.236206,491
863.353699,505
863.471252,518
863.588745,515
863.706177,502
863.82373,496
863.941162,489
864.058716,515
864.176208,510
864.29364,503
864.411194,500
864.528687,499
864.646118,524
864.763611,517
864.881042,475
864.998535,516
865.116028,501
865.233459,497
865.350891,505
865.468384,497
865.585754,504
865.703308,513
865.820679,506
865.938171,498
866.055542,500
866.173035,497
866.290466,497
866.407837,508
866.52533,522
866.6427,500
866.760071,505
866.877563,519
866.994934,531
867.112305,514
867.229736,498
867.347107,515
867.464539,509
867.58197,512
867.699341,517
867.81665,530
867.934082,484
868.051453,503
868.168823,514
868.286194,512
868.403564,492
868.520935,508
868.638306,509
868.755676,489
868.872986,510
868.990295,520
869.107727,531
869.225037,509
869.342346,521
869.459717,517
869.577026,521
869.694336,527
869.811707,545
869.929016,525
870.046326,524
870.163635,510
870.280945,520
870.398254,532
870.515564,547
870.632812,537
870.750183,539
870.867432,543
870.984741,552
871.102051,533
871.219299,562
871.336609,548
871.453918,537
871.571106,559
871.688416,566
871.805664,541
871.922852,557
872.040222,546
872.157471,548
872.274719,523
872.391968,555
872.509155,545
872.626465,536
872.743652,570
872.860962,551
872.978149,545
873.095337,517
873.212646,552
873.329834,562
873.44696,524
873.564209,521
873.681396,532
873.798645,532
873.915894,515
874.03302,529
874.150208,562
874.267456,541
874.384583,544
874.501831,552
874.618958,566
874.736145,578
874.853333,563
874.970459,549
875.087646,544
875.204834,551
875.32196,540
875.439148,536
875.556274,522
875.673401,545
875.790527,546
875.907715,548
876.024841,528
876.141968,509
876.259094,518
876.376282,540
876.493347,520
876.610474,516
876.7276,521
876.844727,503
876.961853,514
877.078918,510
877.195984,531
877.313171,501
877.430237,521
877.547302,512
877.664368,526
877.781433,504
877.898499,535
878.015625,520
878.13269,521
878.249695,499
878.366821,499
878.483887,521
878.600952,500
878.717957,517
878.834961,510
878.952087,522
879.069092,498
879.186157,534
879.303162,500
879.420227,510
879.537231,511
879.654236,485
879.77124,479
879.888306,496
880.005249,498
880.122314,493
880.239319,474
880.356323,498
880.473328,500
880.590271,506
880.707275,469
880.824341,503
880.941284,475
881.058228,511
881.175232,484
881.292236,502
881.40918,468
881.526123,474
881.643066,483
881.760071,520
881.877014,489
881.993958,490
882.11084,489
882.227783,485
882.344727,503
882.46167,500
882.578613,483
882.695618,474
882.812439,488
882.929382,487
883.046326,487
883.163208,521
883.280151,497
883.397034,489
883.513916,486
883.630798,516
883.747742,488
883.864563,506
883.981506,491
884.098389,486
884.21521,500
884.332153,509
884.448975,519
884.565796,543
884.682678,542
884.7995,530
884.916443,548
885.033264,587
885.150085,585
885.266968,601
885.383789,584
885.500671,609
885.617493,620
885.734314,606
885.851196,620
885.967896,598
886.084717,590
886.201599,592
886.318359,590
886.435181,588
886.552002,592
886.668762,568
886.785645,565
886.902344,569
887.019165,566
887.135925,566
887.252747,567
887.369446,553
887.486267,534
887.603027,542
887.719788,535
887.836548,550
887.953247,513
888.070068,504
888.186829,505
888.303528,505
888.420288,502
888.536987,512
888.653687,504
888.770447,497
888.887146,490
889.003967,479
889.120667,481
889.237305,492
889.354065,479
889.470703,472
889.587463,448
889.704163,485
889.820862,488
889.937561,479
890.054199,487
890.170837,493
890.287598,472
890.404236,470
890.520874,460
890.637634,487
890.754211,474
890.87085,476
890.987549,467
891.104187,475
891.220886,461
891.337463,483
891.454102,488
891.57074,504
891.687378,482
891.804077,493
891.920654,479
892.037231,465
892.15387,476
892.270447,487
892.387085,492
892.503723,499
892.6203,484
892.736877,479
892.853516,490
892.970032,479
893.08667,481
893.203186,486
893.319763,468
893.43634,460
893.552917,474
893.669556,482
893.786011,476
893.902588,471
894.019165,477
894.135681,484
894.252197,476
894.368835,505
894.485291,470
894.601868,458
894.718384,468
894.8349,480
894.951355,490
895.067932,472
895.184448,475
895.300964,481
895.417419,478
895.533936,487
895.650452,462
895.766907,487
895.883423,460
895.999878,478
896.116333,466
896.232849,467
896.349304,484
896.465759,467
896.582214,470
896.698669,481
896.815125,502
896.931641,473
897.048035,477
897.164551,473
897.280884,485
897.397339,462
897.513794,465
897.630249,497
897.746582,483
897.863098,470
897.979431,471
898.095886,469
898.212341,464
898.328674,494
898.445129,498
898.561462,502
898.677795,495
898.794312,464
898.910645,486
899.026978,481
899.143433,475
899.259766,495
899.37616,483
899.492493,468
899.608765,485
899.725159,491
899.841553,471
899.957947,459
900.07428,479
900.190552,482
900.306946,495
900.423157,485
900.53949,485
900.655884,504
900.772156,501
900.888489,480
901.004822,478
901.121033,485
901.237366,485
901.353699,492
901.46991,493
901.586304,502
901.702515,478
901.818787,487
901.93512,517
902.051331,516
902.167603,528
902.283875,519
902.400085,508
902.516418,538
902.632629,541
902.74884,550
902.865112,547
902.981384,529
903.097595,543
903.213867,515
903.330017,547
903.446289,564
903.5625,507
903.67865,525
903.794922,521
903.911072,524
904.027344,508
904.143494,502
904.259705,506
904.375916,508
904.492065,530
904.608215,503
904.724426,483
904.840576,491
904.956726,474
905.072876,523
905.189087,474
905.305176,502
905.421387,493
905.537537,484
905.653687,473
905.769775,494
905.885925,491
906.002014,504
906.118164,487
906.234314,473
906.350403,475
906.466492,475
906.582642,485
906.69873,468
906.814758,466
906.930908,474
907.046936,483
907.163086,468
907.279175,464
907.395264,470
907.511353,468
907.62738,465
907.743408,456
907.859497,473
907.975525,485
908.091553,475
908.207703,463
908.32373,475
908.439758,470
908.555786,482
908.671814,468
908.787842,462
908.90387,475
909.019775,489
909.135864,470
909.251892,486
909.367859,453
909.483826,473
909.599854,457
909.715881,476
909.831848,473
909.947815,477
910.063782,482
910.179749,479
910.295776,457
910.411743,479
910.527649,479
910.643616,474
910.759583,482
910.875488,475
910.991455,481
911.107361,469
911.223267,475
911.339294,484
911.4552,482
911.571106,475
911.687073,467
911.802979,467
911.918823,471
912.034729,478
912.150635,483
912.266602,468
912.382446,471
912.498352,482
912.614197,472
912.730103,457
912.846008,461
792.44574,1201
792.56488,1175
792.68396,1199
792.80304,1150
792.92218,1050
793.041199,1030
793.160339,1031
793.279419,1018
793.398499,987
793.517578,951
793.636658,980
793.755737,941
793.874817,944
793.993896,938
794.112976,880
794.232056,876
794.351074,871
794.470215,864
794.589233,838
794.708313,809
794.827393,799
794.946411,813
795.065552,816
795.18457,804
795.303589,800
795.422668,791
795.541687,799
795.660767,793
795.779846,796
795.898865,772
796.017883,748
796.136963,729
796.255981,738
796.375061,720
796.49408,734
796.613037,747
796.732117,755
796.851135,717
796.970154,726
797.089233,666
797.208191,688
797.327271,708
797.446228,673
797.565186,674
797.684265,659
797.803223,662
797.922241,704
798.04126,656
798.160278,678
798.279297,653
798.398315,680
798.517273,669
798.636292,664
798.75531,677
798.874268,658
798.993286,674
799.112244,652
799.231323,620
799.350281,656
799.469238,642
799.588257,639
799.707153,633
799.826111,622
799.945129,628
800.064087,618
800.183044,639
800.302063,601
800.421021,624
800.539978,624
800.658936,626
800.777893,630
800.896912,623
801.015747,629
801.134705,604
801.253723,608
801.37262,617
801.491638,632
801.610535,594
801.729492,611
801.84845,599
801.967407,609
802.086243,611
802.205261,629
802.324158,615
802.443115,621
802.562073,595
802.680969,602
802.799927,593
802.918762,612
803.037659,593
803.156677,595
803.275574,599
803.39447,628
803.513428,586
803.632263,606
803.751221,613
803.870117,612
803.989014,563
804.107971,586
804.226746,564
804.345642,588
804.4646,580
804.583496,599
804.702393,625
804.821228,583
804.940125,599
805.059021,584
805.177917,572
805.296814,589
805.415649,574
805.534546,580
805.653442,591
805.772278,561
805.891113,592
806.01001,586
806.128906,568
806.247742,554
806.366577,562
806.485413,591
806.604309,558
806.723145,567
806.84198,561
806.960876,579
807.079712,558
807.198486,557
807.317383,587
807.436218,570
807.554993,560
807.673889,565
807.792725,582
807.91156,568
808.030396,546
808.14917,576
808.268005,554
808.386841,577
808.505676,583
808.624451,573
808.743286,571
808.862122,565
808.980896,569
809.099731,563
809.218506,587
809.337341,583
809.456116,543
809.57489,545
809.693726,573
809.8125,549
809.931274,570
810.050049,589
810.168884,575
810.287659,564
810.406372,543
810.525269,571
810.643982,563
810.762756,568
810.881531,552
811.000305,564
811.11908,565
811.237854,556
811.356567,565
811.475403,594
811.594116,560
811.71283,574
811.831604,591
811.950378,572
812.069153,556
812.187927,562
812.30658,573
812.425415,594
812.544128,549
812.662781,561
812.781616,586
812.900269,560
813.019043,547
813.137756,586
813.256531,564
813.375244,574
813.493896,556
813.612671,563
813.731384,531
813.850037,599
813.96875,561
814.087524,558
814.206238,575
814.324951,568
814.443604,531
814.562256,570
814.68103,561
814.799683,577
814.918335,559
815.037109,551
815.155762,557
815.274475,537
815.393188,570
815.511841,568
815.630554,547
815.749146,556
815.867859,547
815.986572,547
816.105164,558
816.223877,540
816.342529,560
816.461182,571
816.579895,549
816.698486,573
816.817139,549
816.935791,554
817.054504,561
817.173096,575
817.291748,568
817.4104,564
817.529053,555
817.647644,567
817.766235,542
817.884949,557
818.00354,553
818.122192,556
818.240845,524
818.359436,519
818.478088,532
818.59668,520
818.715271,523
818.833923,515
818.952515,521
819.071106,504
819.189758,525
819.30835,536
819.426941,517
819.545532,511
819.664124,500
819.782715,528
819.901306,535
820.019897,509
820.138489,521
820.25708,514
820.375671,524
820.494202,527
820.612732,523
820.731384,525
820.849915,507
820.968506,532
821.087097,519
821.205627,532
821.324158,511
821.442749,512
821.561279,477
821.679871,518
821.798401,504
821.916931,509
822.035461,477
822.154053,495
822.272583,499
822.391174,532
822.509583,510
822.628174,507
822.746704,494
822.865234,509
822.983765,510
823.102295,507
823.220825,492
823.339294,520
823.457825,488
823.576355,502
823.694824,494
823.813354,491
823.931885,503
824.050354,497
824.168884,483
824.287354,489
824.405823,478
824.524353,513
824.642822,494
824.761353,516
824.879822,492
824.998291,503
825.116699,501
825.235291,492
825.353699,509
825.472168,482
825.590637,493
825.709106,472
825.827576,494
825.946045,483
826.064453,503
826.182983,518
826.301392,480
826.4198,474
826.53833,493
826.656738,487
826.775208,503
826.893677,490
827.012024,499
827.130493,490
827.248962,487
827.36731,471
827.485779,513
827.604248,497
827.722595,460
827.841064,497
827.959412,468
828.077942,499
828.196289,486
828.314636,494
828.433105,501
828.551514,493
828.669861,486
828.78833,504
828.906677,484
829.025085,491
829.143433,476
829.261841,519
829.38031,475
829.498657,484
829.617004,485
829.735413,482
829.85376,505
829.972107,478
830.090515,499
830.208862,486
830.327209,489
830.445557,481
830.563904,497
830.682312,491
830.800659,490
830.919006,505
831.037354,486
831.155701,502
831.274048,492
831.392395,503
831.51062,504
831.629028,511
831.747314,506
831.865662,484
831.984009,513
832.102356,499
832.220642,504
832.338928,500
832.457275,501
832.575623,511
832.693909,494
832.812134,501
832.930481,502
833.048828,495
833.167114,493
833.2854,488
833.403687,497
833.521973,500
833.640259,473
833.758545,509
833.876831,501
833.995056,490
834.113281,512
834.231628,500
834.349915,506
834.468201,476
834.586426,486
834.704651,506
834.822998,501
834.941162,503
835.059448,502
835.177673,493
835.295959,492
835.414246,520
835.53241,504
835.650635,495
835.768921,516
835.887146,515
836.005371,489
836.123596,484
836.241821,493
836.360046,478
836.478271,470
836.596497,518
836.714722,490
836.832886,494
836.95105,467
837.069336,506
837.1875,484
837.305725,514
837.423889,472
837.542053,474
837.660339,499
837.778503,492
837.896667,479
838.014832,497
838.132996,477
838.25116,483
838.369385,505
838.487488,493
838.605713,483
838.723877,502
838.84198,504
838.960205,499
839.078308,487
839.196472,502
839.314636,504
839.4328,508
839.550964,522
839.669067,501
839.787231,500
839.905396,503
840.023499,522
840.141602,521
840.259766,519
840.377869,527
840.495972,523
840.614136,526
840.732239,522
840.850342,538
840.968445,543
841.086548,537
841.204651,518
841.322754,538
841.440918,524
841.55896,534
841.677002,538
841.795166,552
841.913208,524
842.031311,527
842.149353,524
842.267456,535
842.385498,531
842.503601,541
842.621643,532
842.739746,519
842.857788,530
842.97583,515
843.093933,534
843.211975,538
843.330017,521
843.44812,520
843.566101,519
843.684204,540
843.802246,540
843.920227,528
844.038269,548
844.156311,520
844.274292,532
844.392395,517
844.510376,520
844.628357,518
844.74646,491
844.864441,520
844.982422,497
845.100403,514
845.218384,503
845.336426,536
845.454468,512
845.572449,533
845.69043,509
845.808411,492
845.926453,502
846.044373,524
846.162354,509
846.280396,511
846.398315,520
846.516296,524
846.634216,497
846.752197,533
846.870178,517
846.988098,532
847.106079,519
847.22406,531
847.34198,524
847.4599,542
847.577881,501
847.695801,526
847.813782,508
847.931641,521
848.049561,521
848.167603,513
848.285461,525
848.403381,520
848.521362,530
848.639221,560
848.75708,512
848.875,523
848.99292,521
849.110901,527
849.22876,513
849.34668,518
849.464539,505
849.582458,531
849.700317,510
849.818176,539
849.936096,519
850.053955,536
850.171875,546
850.289673,538
850.407593,519
850.525452,530
850.643311,524
850.761169,518
850.878967,528
850.996887,533
851.114746,500
851.232544,525
851.350403,517
851.468262,522
851.58606,506
851.703979,525
851.821777,508
851.939636,528
852.057434,509
852.175232,529
852.293091,515
852.410889,551
852.528687,552
852.646545,556
852.764343,564
852.88208,568
852.999939,526
853.117676,536
853.235535,536
853.353271,516
853.471069,521
853.588928,513
853.706604,517
853.824402,513
853.9422,507
854.059998,510
854.177734,522
854.295532,538
854.413269,532
854.531006,515
854.648804,516
854.766541,525
854.884277,517
855.002014,541
855.119751,517
855.237549,534
855.355225,530
855.473022,556
855.590698,549
855.708435,529
855.826172,524
855.943848,539
856.061646,508
856.179321,550
856.296997,545
856.414795,533
856.53241,527
856.650085,526
856.767822,516
856.885559,540
857.003174,537
857.120911,538
857.238586,548
857.356201,542
857.473938,541
857.591614,526
857.709351,532
857.826965,530
857.944641,542
858.062317,544
858.179993,542
858.297668,541
858.415283,546
858.532959,523
858.650574,539
858.768188,529
858.885803,538
859.003479,550
859.121094,549
859.23877,549
859.356384,533
859.473999,535
859.591675,545
859.709229,539
859.826843,509
859.944458,521
860.062012,523
860.179626,513
860.297302,513
860.414856,514
860.532471,510
860.650024,488
860.767639,495
860.885193,511
861.002808,506
861.120361,524
861.237976,515
861.35553,524
861.473022,516
861.590698,540
861.708191,526
861.825745,528
861.943298,513
862.060852,520
862.178406,497
862.295959,493
862.413513,502
862.531006,501
862.64856,496
862.766113,512
862.883667,480
863.00116,488
863.118713,492
863.236206,505
863.353699,499
863.471252,497
863.588745,494
863.706177,513
863.82373,521
863.941162,498
864.058716,503
864.176208,500
864.29364,496
864.411194,514
864.528687,504
864.646118,504
864.763611,496
864.881042,500
864.998535,486
865.116028,509
865.233459,483
865.350891,489
865.468384,484
865.585754,512
865.703308,494
865.820679,518
865.938171,495
866.055542,500
866.173035,503
866.290466,502
866.407837,490
866.52533,512
866.6427,499
866.760071,511
866.877563,487
866.994934,507
867.112305,492
867.229736,519
867.347107,521
867.464539,522
867.58197,501
867.699341,508
867.81665,507
867.934082,522
868.051453,509
868.168823,514
868.286194,504
868.403564,522
868.520935,498
868.638306,517
868.755676,518
868.872986,515
868.990295,532
869.107727,509
869.225037,516
869.342346,531
869.459717,497
869.577026,534
869.694336,539
869.811707,522
869.929016,517
870.046326,543
870.163635,518
870.280945,503
870.398254,524
870.515564,515
870.632812,538
870.750183,540
870.867432,548
870.984741,538
871.102051,542
871.219299,549
871.336609,549
871.453918,575
871.571106,552
871.688416,556
871.805664,577
871.922852,548
872.040222,534
872.157471,549
872.274719,562
872.391968,559
872.509155,559
872.626465,549
872.743652,553
872.860962,553
872.978149,548
873.095337,555
873.212646,537
873.329834,538
873.44696,535
873.564209,543
873.681396,522
873.798645,518
873.915894,527
874.03302,519
874.150208,541
874.267456,552
874.384583,531
874.501831,549
874.618958,511
874.736145,561
874.853333,548
874.970459,542
875.087646,541
875.204834,555
875.32196,530
875.439148,558
875.556274,549
875.673401,551
875.790527,538
875.907715,544
876.024841,523
876.141968,537
876.259094,518
876.376282,522
876.493347,523
876.610474,529
876.7276,516
876.844727,513
876.961853,512
877.078918,515
877.195984,522
877.313171,517
877.430237,547
877.547302,523
877.664368,505
877.781433,531
877.898499,495
878.015625,527
878.13269,529
878.249695,517
878.366821,519
878.483887,527
878.600952,514
878.717957,493
878.834961,520
878.952087,508
879.069092,521
879.186157,523
879.303162,506
879.420227,509
879.537231,510
879.654236,495
879.77124,488
879.888306,482
880.005249,482
880.122314,488
880.239319,495
880.356323,507
880.473328,491
880.590271,494
880.707275,488
880.824341,489
880.941284,480
881.058228,497
881.175232,477
881.292236,498
881.40918,479
881.526123,475
881.643066,473
881.760071,486
881.877014,483
881.993958,478
882.11084,471
882.227783,487
882.344727,511
882.46167,503
882.578613,465
882.695618,491
882.812439,487
882.929382,487
883.046326,500
883.163208,488
883.280151,481
883.397034,491
883.513916,477
883.630798,512
883.747742,505
883.864563,503
883.981506,504
884.098389,512
884.21521,496
884.332153,509
884.448975,520
884.565796,519
884.682678,535
884.7995,549
884.916443,560
885.033264,577
885.150085,584
885.266968,565
885.383789,600
885.500671,608
885.617493,608
885.734314,604
885.851196,581
885.967896,625
886.084717,595
886.201599,595
886.318359,588
886.435181,583
886.552002,591
886.668762,582
886.785645,571
886.902344,569
887.019165,562
887.135925,567
887.252747,579
887.369446,556
887.486267,556
887.603027,553
887.719788,541
887.836548,533
887.953247,546
888.070068,513
888.186829,520
888.303528,514
888.420288,506
888.536987,473
888.653687,489
888.770447,514
888.887146,494
889.003967,487
889.120667,481
889.237305,474
889.354065,486
889.470703,470
889.587463,475
889.704163,486
889.820862,484
889.937561,466
890.054199,467
890.170837,481
890.287598,488
890.404236,478
890.520874,477
890.637634,473
890.754211,483
890.87085,467
890.987549,480
891.104187,475
891.220886,485
891.337463,474
891.454102,482
891.57074,477
891.687378,479
891.804077,492
891.920654,494
892.037231,473
892.15387,469
892.270447,477
892.387085,482
892.503723,484
892.6203,478
892.736877,475
892.853516,471
892.970032,474
893.08667,508
893.203186,522
893.319763,472
893.43634,465
893.552917,487
893.669556,475
893.786011,487
893.902588,480
894.019165,465
894.135681,469
894.252197,486
894.368835,493
894.485291,465
894.601868,475
894.718384,471
894.8349,458
894.951355,469
895.067932,480
895.184448,448
895.300964,459
895.417419,482
895.533936,461
895.650452,481
895.766907,473
895.883423,473
895.999878,476
896.116333,484
896.232849,477
896.349304,488
896.465759,466
896.582214,470
896.698669,463
896.815125,471
896.931641,470
897.048035,483
897.164551,485
897.280884,469
897.397339,482
897.513794,469
897.630249,488
897.746582,475
897.863098,476
897.979431,468
898.095886,476
898.212341,469
898.328674,493
898.445129,480
898.561462,482
898.677795,457
898.794312,490
898.910645,466
899.026978,487
899.143433,463
899.259766,479
899.37616,493
899.492493,481
899.608765,470
899.725159,517
899.841553,494
899.957947,483
900.07428,452
900.190552,472
900.306946,477
900.423157,492
900.53949,481
900.655884,485
900.772156,476
900.888489,484
901.004822,480
901.121033,488
901.237366,481
901.353699,482
901.46991,491
901.586304,489
901.702515,495
901.818787,483
901.93512,483
902.051331,514
902.167603,532
902.283875,510
902.400085,534
902.516418,544
902.632629,525
902.74884,557
902.865112,534
902.981384,538
903.097595,524
903.213867,555
903.330017,540
903.446289,540
903.5625,515
903.67865,549
903.794922,520
903.911072,536
904.027344,528
904.143494,524
904.259705,508
904.375916,513
904.492065,507
904.608215,503
904.724426,505
904.840576,509
904.956726,509
905.072876,491
905.189087,465
905.305176,473
905.421387,486
905.537537,490
905.653687,485
905.769775,502
905.885925,482
906.002014,486
906.118164,489
906.234314,491
906.350403,486
906.466492,462
906.582642,483
906.69873,481
906.814758,466
906.930908,486
907.046936,490
907.163086,473
907.279175,460
907.395264,457
907.511353,460
907.62738,469
907.743408,474
907.859497,489
907.975525,469
908.091553,471
908.207703,455
908.32373,484
908.439758,474
908.555786,466
908.671814,461
908.787842,472
908.90387,488
909.019775,472
909.135864,460
909.251892,470
909.367859,482
909.483826,468
909.599854,475
909.715881,502
909.831848,474
909.947815,485
910.063782,492
910.179749,467
910.295776,474
910.411743,473
910.527649,469
910.643616,477
910.759583,480
910.875488,471
910.991455,464
911.107361,460
911.223267,457
911.339294,481
911.4552,486
911.571106,484
911.687073,481
911.802979,470
911.918823,463
912.034729,478
912.150635,463
912.266602,476
912.382446,458
912.498352,458
912.614197,452
912.730103,482
912.846008,458
