792.44574,624
792.56488,656
792.68396,660
792.80304,668
792.92218,613
793.041199,590
793.160339,593
793.279419,613
793.398499,629
793.517578,589
793.636658,597
793.755737,607
793.874817,634
793.993896,614
794.112976,596
794.232056,611
794.351074,596
794.470215,594
794.589233,596
794.708313,582
794.827393,577
794.946411,602
795.065552,595
795.18457,586
795.303589,584
795.422668,564
795.541687,581
795.660767,600
795.779846,593
795.898865,573
796.017883,590
796.136963,559
796.255981,578
796.375061,582
796.49408,597
796.613037,562
796.732117,609
796.851135,590
796.970154,583
797.089233,585
797.208191,571
797.327271,601
797.446228,586
797.565186,591
797.684265,588
797.803223,587
797.922241,583
798.04126,583
798.160278,592
798.279297,592
798.398315,574
798.517273,565
798.636292,591
798.75531,557
798.874268,580
798.993286,569
799.112244,582
799.231323,574
799.350281,588
799.469238,559
799.588257,572
799.707153,581
799.826111,585
799.945129,593
800.064087,603
800.183044,585
800.302063,594
800.421021,581
800.539978,558
800.658936,565
800.777893,571
800.896912,557
801.015747,602
801.134705,591
801.253723,560
801.37262,569
801.491638,593
801.610535,576
801.729492,558
801.84845,567
801.967407,583
802.086243,581
802.205261,597
802.324158,596
802.443115,600
802.562073,581
802.680969,593
802.799927,567
802.918762,588
803.037659,588
803.156677,585
803.275574,603
803.39447,608
803.513428,599
803.632263,601
803.751221,596
803.870117,603
803.989014,597
804.107971,608
804.226746,608
804.345642,609
804.4646,622
804.583496,595
804.702393,587
804.821228,608
804.940125,602
805.059021,581
805.177917,607
805.296814,613
805.415649,610
805.534546,609
805.653442,609
805.772278,609
805.891113,612
806.01001,619
806.128906,614
806.247742,620
806.366577,614
806.485413,617
806.604309,639
806.723145,601
806.84198,607
806.960876,614
807.079712,622
807.198486,600
807.317383,613
807.436218,598
807.554993,622
807.673889,626
807.792725,648
807.91156,620
808.030396,612
808.14917,606
808.268005,618
808.386841,616
808.505676,622
808.624451,613
808.743286,627
808.862122,624
808.980896,627
809.099731,629
809.218506,622
809.337341,631
809.456116,633
809.57489,635
809.693726,617
809.8125,624
809.931274,619
810.050049,646
810.168884,624
810.287659,627
810.406372,622
810.525269,617
810.643982,612
810.762756,629
810.881531,625
811.000305,619
811.11908,619
811.237854,641
811.356567,631
811.475403,631
811.594116,628
811.71283,631
811.831604,644
811.950378,635
812.069153,636
812.187927,644
812.30658,613
812.425415,637
812.544128,630
812.662781,617
812.781616,633
812.900269,635
813.019043,595
813.137756,638
813.256531,627
813.375244,633
813.493896,608
813.612671,630
813.731384,634
813.850037,628
813.96875,633
814.087524,644
814.206238,628
814.324951,608
814.443604,602
814.562256,643
814.68103,614
814.799683,647
814.918335,621
815.037109,632
815.155762,617
815.274475,635
815.393188,593
815.511841,624
815.630554,632
815.749146,609
815.867859,583
815.986572,628
816.105164,591
816.223877,623
816.342529,600
816.461182,622
816.579895,598
816.698486,619
816.817139,632
816.935791,630
817.054504,614
817.173096,626
817.291748,607
817.4104,618
817.529053,626
817.647644,624
817.766235,613
817.884949,589
818.00354,573
818.122192,587
818.240845,573
818.359436,537
818.478088,555
818.59668,534
818.715271,547
818.833923,530
818.952515,513
819.071106,533
819.189758,516
819.30835,512
819.426941,496
819.545532,505
819.664124,520
819.782715,495
819.901306,508
820.019897,494
820.138489,501
820.25708,519
820.375671,504
820.494202,532
820.612732,497
820.731384,485
820.849915,490
820.968506,492
821.087097,495
821.205627,499
821.324158,476
821.442749,491
821.561279,500
821.679871,489
821.798401,494
821.916931,488
822.035461,501
822.154053,501
822.272583,485
822.391174,488
822.509583,463
822.628174,480
822.746704,497
822.865234,474
822.983765,462
823.102295,485
823.220825,456
823.339294,480
823.457825,502
823.576355,494
823.694824,462
823.813354,469
823.931885,492
824.050354,485
824.168884,489
824.287354,490
824.405823,473
824.524353,491
824.642822,490
824.761353,495
824.879822,476
824.998291,485
825.116699,501
825.235291,482
825.353699,497
825.472168,481
825.590637,462
825.709106,462
825.827576,482
825.946045,476
826.064453,473
826.182983,456
826.301392,469
826.4198,472
826.53833,483
826.656738,474
826.775208,451
826.893677,474
827.012024,468
827.130493,467
827.248962,474
827.36731,468
827.485779,486
827.604248,470
827.722595,457
827.841064,470
827.959412,463
828.077942,463
828.196289,445
828.314636,482
828.433105,454
828.551514,481
828.669861,454
828.78833,459
828.906677,443
829.025085,461
829.143433,452
829.261841,470
829.38031,459
829.498657,453
829.617004,450
829.735413,464
829.85376,457
829.972107,474
830.090515,453
830.208862,463
830.327209,460
830.445557,478
830.563904,445
830.682312,471
830.800659,430
830.919006,462
831.037354,441
831.155701,456
831.274048,480
831.392395,461
831.51062,443
831.629028,474
831.747314,463
831.865662,463
831.984009,460
832.102356,439
832.220642,452
832.338928,470
832.457275,444
832.575623,457
832.693909,447
832.812134,455
832.930481,465
833.048828,482
833.167114,455
833.2854,460
833.403687,458
833.521973,465
833.640259,463
833.758545,455
833.876831,457
833.995056,463
834.113281,436
834.231628,463
834.349915,445
834.468201,448
834.586426,440
834.704651,447
834.822998,475
834.941162,439
835.059448,483
835.177673,455
835.295959,451
835.414246,473
835.53241,464
835.650635,475
835.768921,456
835.887146,462
836.005371,455
836.123596,465
836.241821,459
836.360046,463
836.478271,478
836.596497,504
836.714722,478
836.832886,473
836.95105,473
837.069336,467
837.1875,479
837.305725,471
837.423889,472
837.542053,486
837.660339,478
837.778503,488
837.896667,479
838.014832,472
838.132996,471
838.25116,482
838.369385,468
838.487488,470
838.605713,445
838.723877,464
838.84198,489
838.960205,459
839.078308,453
839.196472,460
839.314636,482
839.4328,464
839.550964,436
839.669067,468
839.787231,472
839.905396,476
840.023499,451
840.141602,472
840.259766,462
840.377869,469
840.495972,455
840.614136,453
840.732239,459
840.850342,453
840.968445,468
841.086548,482
841.204651,455
841.322754,475
841.440918,454
841.55896,451
841.677002,472
841.795166,463
841.913208,459
842.031311,457
842.149353,458
842.267456,451
842.385498,422
842.503601,457
842.621643,449
842.739746,449
842.857788,470
842.97583,458
843.093933,438
843.211975,451
843.330017,431
843.44812,441
843.566101,468
843.684204,463
843.802246,460
843.920227,480
844.038269,452
844.156311,450
844.274292,449
844.392395,466
844.510376,450
844.628357,446
844.74646,438
844.864441,437
844.982422,456
845.100403,468
845.218384,454
845.336426,465
845.454468,470
845.572449,478
845.69043,459
845.808411,452
845.926453,446
846.044373,449
846.162354,467
846.280396,452
846.398315,444
846.516296,457
846.634216,448
846.752197,444
846.870178,428
846.988098,452
847.106079,449
847.22406,431
847.34198,447
847.4599,447
847.577881,441
847.695801,454
847.813782,451
847.931641,430
848.049561,449
848.167603,440
848.285461,463
848.403381,448
848.521362,470
848.639221,443
848.75708,447
848.875,440
848.99292,450
849.110901,460
849.22876,446
849.34668,451
849.464539,456
849.582458,461
849.700317,437
849.818176,452
849.936096,463
850.053955,452
850.171875,436
850.289673,448
850.407593,450
850.525452,447
850.643311,438
850.761169,449
850.878967,441
850.996887,435
851.114746,450
851.232544,448
851.350403,441
851.468262,449
851.58606,450
851.703979,448
851.821777,448
851.939636,466
852.057434,443
852.175232,445
852.293091,437
852.410889,445
852.528687,448
852.646545,460
852.764343,453
852.88208,453
852.999939,434
853.117676,466
853.235535,434
853.353271,448
853.471069,458
853.588928,455
853.706604,450
853.824402,461
853.9422,455
854.059998,463
854.177734,461
854.295532,465
854.413269,451
854.531006,448
854.648804,451
854.766541,444
854.884277,438
855.002014,457
855.119751,470
855.237549,447
855.355225,456
855.473022,460
855.590698,447
855.708435,456
855.826172,440
855.943848,453
856.061646,450
856.179321,451
856.296997,441
856.414795,455
856.53241,453
856.650085,456
856.767822,457
856.885559,470
857.003174,452
857.120911,472
857.238586,452
857.356201,446
857.473938,475
857.591614,456
857.709351,438
857.826965,444
857.944641,445
858.062317,438
858.179993,441
858.297668,452
858.415283,444
858.532959,451
858.650574,447
858.768188,443
858.885803,439
859.003479,454
859.121094,453
859.23877,451
859.356384,459
859.473999,439
859.591675,443
859.709229,470
859.826843,439
859.944458,451
860.062012,457
860.179626,443
860.297302,445
860.414856,440
860.532471,455
860.650024,458
860.767639,460
860.885193,451
861.002808,434
861.120361,465
861.237976,445
861.35553,460
861.473022,452
861.590698,456
861.708191,453
861.825745,443
861.943298,449
862.060852,432
862.178406,455
862.295959,465
862.413513,425
862.531006,456
862.64856,452
862.766113,445
862.883667,440
863.00116,435
863.118713,459
863.236206,455
863.353699,452
863.471252,463
863.588745,438
863.706177,442
863.82373,451
863.941162,437
864.058716,443
864.176208,432
864.29364,431
864.411194,455
864.528687,457
864.646118,470
864.763611,444
864.881042,448
864.998535,448
865.116028,452
865.233459,449
865.350891,456
865.468384,458
865.585754,466
865.703308,460
865.820679,449
865.938171,448
866.055542,431
866.173035,444
866.290466,432
866.407837,441
866.52533,443
866.6427,457
866.760071,444
866.877563,455
866.994934,459
867.112305,441
867.229736,449
867.347107,431
867.464539,450
867.58197,455
867.699341,451
867.81665,449
867.934082,467
868.051453,454
868.168823,468
868.286194,449
868.403564,453
868.520935,462
868.638306,438
868.755676,448
868.872986,460
868.990295,464
869.107727,445
869.225037,434
869.342346,457
869.459717,454
869.577026,430
869.694336,452
869.811707,455
869.929016,439
870.046326,461
870.163635,452
870.280945,454
870.398254,442
870.515564,453
870.632812,444
870.750183,449
870.867432,460
870.984741,456
871.102051,445
871.219299,469
871.336609,450
871.453918,453
871.571106,449
871.688416,444
871.805664,460
871.922852,462
872.040222,474
872.157471,460
872.274719,483
872.391968,463
872.509155,445
872.626465,461
872.743652,442
872.860962,460
872.978149,447
873.095337,449
873.212646,442
873.329834,451
873.44696,438
873.564209,433
873.681396,456
873.798645,453
873.915894,448
874.03302,462
874.150208,470
874.267456,438
874.384583,434
874.501831,458
874.618958,441
874.736145,454
874.853333,467
874.970459,463
875.087646,471
875.204834,450
875.32196,462
875.439148,445
875.556274,436
875.673401,455
875.790527,438
875.907715,430
876.024841,441
876.141968,448
876.259094,451
876.376282,457
876.493347,435
876.610474,451
876.7276,439
876.844727,439
876.961853,444
877.078918,430
877.195984,448
877.313171,463
877.430237,447
877.547302,453
877.664368,452
877.781433,456
877.898499,477
878.015625,454
878.13269,464
878.249695,459
878.366821,451
878.483887,442
878.600952,446
878.717957,459
878.834961,444
878.952087,445
879.069092,457
879.186157,444
879.303162,454
879.420227,446
879.537231,450
879.654236,442
879.77124,433
879.888306,442
880.005249,460
880.122314,451
880.239319,444
880.356323,474
880.473328,446
880.590271,437
880.707275,422
880.824341,442
880.941284,443
881.058228,463
881.175232,458
881.292236,447
881.40918,444
881.526123,463
881.643066,457
881.760071,468
881.877014,450
881.993958,459
882.11084,451
882.227783,456
882.344727,452
882.46167,460
882.578613,442
882.695618,438
882.812439,461
882.929382,445
883.046326,459
883.163208,463
883.280151,440
883.397034,434
883.513916,466
883.630798,450
883.747742,438
883.864563,454
883.981506,436
884.098389,443
884.21521,443
884.332153,449
884.448975,449
884.565796,444
884.682678,474
884.7995,447
884.916443,429
885.033264,453
885.150085,421
885.266968,451
885.383789,441
885.500671,459
885.617493,479
885.734314,462
885.851196,438
885.967896,465
886.084717,446
886.201599,463
886.318359,456
886.435181,473
886.552002,449
886.668762,439
886.785645,441
886.902344,448
887.019165,454
887.135925,475
887.252747,461
887.369446,468
887.486267,455
887.603027,456
887.719788,442
887.836548,450
887.953247,449
888.070068,465
888.186829,474
888.303528,454
888.420288,450
888.536987,443
888.653687,464
888.770447,467
888.887146,455
889.003967,458
889.120667,455
889.237305,469
889.354065,443
889.470703,458
889.587463,446
889.704163,480
889.820862,458
889.937561,447
890.054199,437
890.170837,461
890.287598,450
890.404236,462
890.520874,440
890.637634,437
890.754211,447
890.87085,455
890.987549,481
891.104187,449
891.220886,464
891.337463,466
891.454102,459
891.57074,470
891.687378,467
891.804077,453
891.920654,462
892.037231,462
892.15387,461
892.270447,479
892.387085,456
892.503723,485
892.6203,445
892.736877,463
892.853516,465
892.970032,466
893.08667,458
893.203186,458
893.319763,478
893.43634,466
893.552917,450
893.669556,457
893.786011,456
893.902588,459
894.019165,468
894.135681,470
894.252197,470
894.368835,431
894.485291,471
894.601868,461
894.718384,458
894.8349,457
894.951355,451
895.067932,466
895.184448,454
895.300964,444
895.417419,471
895.533936,446
895.650452,464
895.766907,442
895.883423,461
895.999878,452
896.116333,445
896.232849,461
896.349304,468
896.465759,472
896.582214,472
896.698669,450
896.815125,467
896.931641,461
897.048035,459
897.164551,463
897.280884,446
897.397339,455
897.513794,448
897.630249,471
897.746582,477
897.863098,471
897.979431,463
898.095886,460
898.212341,465
898.328674,466
898.445129,437
898.561462,464
898.677795,468
898.794312,450
898.910645,456
899.026978,471
899.143433,473
899.259766,455
899.37616,437
899.492493,468
899.608765,466
899.725159,453
899.841553,467
899.957947,474
900.07428,456
900.190552,463
900.306946,468
900.423157,474
900.53949,471
900.655884,473
900.772156,474
900.888489,481
901.004822,455
901.121033,457
901.237366,451
901.353699,464
901.46991,439
901.586304,477
901.702515,450
901.818787,472
901.93512,433
902.051331,449
902.167603,458
902.283875,479
902.400085,473
902.516418,463
902.632629,479
902.74884,482
902.865112,496
902.981384,467
903.097595,452
903.213867,470
903.330017,445
903.446289,499
903.5625,458
903.67865,449
903.794922,468
903.911072,470
904.027344,447
904.143494,447
904.259705,450
904.375916,447
904.492065,454
904.608215,449
904.724426,460
904.840576,463
904.956726,471
905.072876,467
905.189087,461
905.305176,468
905.421387,470
905.537537,475
905.653687,462
905.769775,444
905.885925,476
906.002014,456
906.118164,476
906.234314,479
906.350403,470
906.466492,482
906.582642,465
906.69873,476
906.814758,446
906.930908,473
907.046936,478
907.163086,463
907.279175,478
907.395264,472
907.511353,456
907.62738,467
907.743408,474
907.859497,453
907.975525,460
908.091553,463
908.207703,467
908.32373,474
908.439758,483
908.555786,466
908.671814,457
908.787842,474
908.90387,464
909.019775,482
909.135864,462
909.251892,469
909.367859,462
909.483826,465
909.599854,452
909.715881,447
909.831848,460
909.947815,468
910.063782,478
910.179749,477
910.295776,458
910.411743,464
910.527649,455
910.643616,465
910.759583,475
910.875488,478
910.991455,460
911.107361,467
911.223267,447
911.339294,466
911.4552,465
911.571106,470
911.687073,468
911.802979,458
911.918823,473
912.034729,466
912.150635,464
912.266602,471
912.382446,453
912.498352,459
912.614197,472
912.730103,483
912.846008,474
792.44574,614
792.56488,644
792.68396,683
792.80304,653
792.92218,605
793.041199,592
793.160339,593
793.279419,618
793.398499,604
793.517578,598
793.636658,596
793.755737,620
793.874817,646
793.993896,609
794.112976,594
794.232056,595
794.351074,586
794.470215,612
794.589233,607
794.708313,619
794.827393,573
794.946411,575
795.065552,583
795.18457,607
795.303589,618
795.422668,614
795.541687,576
795.660767,596
795.779846,575
795.898865,578
796.017883,586
796.136963,575
796.255981,597
796.375061,594
796.49408,596
796.613037,583
796.732117,572
796.851135,569
796.970154,588
797.089233,584
797.208191,572
797.327271,593
797.446228,566
797.565186,570
797.684265,594
797.803223,593
797.922241,574
798.04126,596
798.160278,584
798.279297,571
798.398315,595
798.517273,592
798.636292,581
798.75531,579
798.874268,575
798.993286,587
799.112244,572
799.231323,566
799.350281,579
799.469238,585
799.588257,577
799.707153,570
799.826111,561
799.945129,572
800.064087,563
800.183044,566
800.302063,582
800.421021,579
800.539978,573
800.658936,575
800.777893,581
800.896912,578
801.015747,586
801.134705,576
801.253723,569
801.37262,603
801.491638,556
801.610535,574
801.729492,577
801.84845,589
801.967407,597
802.086243,576
802.205261,592
802.324158,592
802.443115,595
802.562073,591
802.680969,571
802.799927,594
802.918762,590
803.037659,590
803.156677,587
803.275574,617
803.39447,589
803.513428,580
803.632263,614
803.751221,590
803.870117,606
803.989014,610
804.107971,576
804.226746,589
804.345642,582
804.4646,620
804.583496,614
804.702393,561
804.821228,602
804.940125,613
805.059021,599
805.177917,614
805.296814,606
805.415649,600
805.534546,611
805.653442,601
805.772278,613
805.891113,595
806.01001,625
806.128906,594
806.247742,610
806.366577,606
806.485413,618
806.604309,629
806.723145,634
806.84198,632
806.960876,605
807.079712,599
807.198486,646
807.317383,600
807.436218,619
807.554993,598
807.673889,629
807.792725,600
807.91156,647
808.030396,621
808.14917,609
808.268005,595
808.386841,644
808.505676,617
808.624451,623
808.743286,630
808.862122,611
808.980896,639
809.099731,624
809.218506,626
809.337341,650
809.456116,650
809.57489,628
809.693726,611
809.8125,626
809.931274,622
810.050049,645
810.168884,642
810.287659,617
810.406372,622
810.525269,632
810.643982,627
810.762756,631
810.881531,648
811.000305,643
811.11908,639
811.237854,635
811.356567,604
811.475403,631
811.594116,638
811.71283,630
811.831604,598
811.950378,655
812.069153,606
812.187927,632
812.30658,667
812.425415,610
812.544128,645
812.662781,634
812.781616,645
812.900269,624
813.019043,632
813.137756,637
813.256531,641
813.375244,646
813.493896,642
813.612671,637
813.731384,631
813.850037,668
813.96875,634
814.087524,622
814.206238,625
814.324951,614
814.443604,628
814.562256,632
814.68103,642
814.799683,639
814.918335,639
815.037109,612
815.155762,627
815.274475,609
815.393188,608
815.511841,603
815.630554,607
815.749146,618
815.867859,626
815.986572,595
816.105164,608
816.223877,615
816.342529,615
816.461182,623
816.579895,623
816.698486,606
816.817139,642
816.935791,606
817.054504,607
817.173096,611
817.291748,622
817.4104,623
817.529053,604
817.647644,607
817.766235,577
817.884949,595
818.00354,563
818.122192,568
818.240845,554
818.359436,540
818.478088,551
818.59668,526
818.715271,529
818.833923,527
818.952515,524
819.071106,523
819.189758,516
819.30835,519
819.426941,507
819.545532,502
819.664124,523
819.782715,494
819.901306,493
820.019897,504
820.138489,490
820.25708,498
820.375671,492
820.494202,498
820.612732,491
820.731384,500
820.849915,488
820.968506,472
821.087097,497
821.205627,472
821.324158,507
821.442749,500
821.561279,491
821.679871,482
821.798401,499
821.916931,488
822.035461,478
822.154053,464
822.272583,484
822.391174,473
822.509583,455
822.628174,494
822.746704,497
822.865234,471
822.983765,490
823.102295,466
823.220825,497
823.339294,476
823.457825,489
823.576355,499
823.694824,487
823.813354,463
823.931885,482
824.050354,443
824.168884,486
824.287354,496
824.405823,491
824.524353,485
824.642822,478
824.761353,506
824.879822,485
824.998291,483
825.116699,491
825.235291,476
825.353699,478
825.472168,473
825.590637,487
825.709106,491
825.827576,472
825.946045,466
826.064453,471
826.182983,475
826.301392,473
826.4198,456
826.53833,485
826.656738,471
826.775208,467
826.893677,477
827.012024,481
827.130493,471
827.248962,455
827.36731,466
827.485779,474
827.604248,475
827.722595,469
827.841064,463
827.959412,468
828.077942,462
828.196289,481
828.314636,457
828.433105,466
828.551514,463
828.669861,448
828.78833,461
828.906677,473
829.025085,472
829.143433,468
829.261841,465
829.38031,451
829.498657,450
829.617004,455
829.735413,465
829.85376,461
829.972107,468
830.090515,465
830.208862,460
830.327209,442
830.445557,463
830.563904,462
830.682312,441
830.800659,461
830.919006,451
831.037354,460
831.155701,477
831.274048,449
831.392395,454
831.51062,464
831.629028,454
831.747314,471
831.865662,449
831.984009,448
832.102356,460
832.220642,449
832.338928,461
832.457275,477
832.575623,450
832.693909,458
832.812134,447
832.930481,486
833.048828,440
833.167114,458
833.2854,467
833.403687,458
833.521973,458
833.640259,471
833.758545,463
833.876831,460
833.995056,456
834.113281,464
834.231628,455
834.349915,481
834.468201,467
834.586426,449
834.704651,483
834.822998,460
834.941162,453
835.059448,451
835.177673,452
835.295959,469
835.414246,456
835.53241,457
835.650635,484
835.768921,454
835.887146,456
836.005371,467
836.123596,446
836.241821,456
836.360046,460
836.478271,470
836.596497,462
836.714722,487
836.832886,478
836.95105,472
837.069336,472
837.1875,487
837.305725,469
837.423889,475
837.542053,476
837.660339,483
837.778503,457
837.896667,481
838.014832,478
838.132996,473
838.25116,496
838.369385,480
838.487488,458
838.605713,488
838.723877,476
838.84198,486
838.960205,454
839.078308,474
839.196472,481
839.314636,475
839.4328,486
839.550964,471
839.669067,459
839.787231,466
839.905396,486
840.023499,488
840.141602,450
840.259766,469
840.377869,466
840.495972,458
840.614136,466
840.732239,457
840.850342,482
840.968445,468
841.086548,481
841.204651,470
841.322754,479
841.440918,463
841.55896,467
841.677002,467
841.795166,435
841.913208,452
842.031311,454
842.149353,465
842.267456,446
842.385498,469
842.503601,444
842.621643,450
842.739746,469
842.857788,460
842.97583,436
843.093933,447
843.211975,457
843.330017,461
843.44812,449
843.566101,456
843.684204,442
843.802246,425
843.920227,472
844.038269,469
844.156311,428
844.274292,457
844.392395,454
844.510376,455
844.628357,448
844.74646,441
844.864441,463
844.982422,449
845.100403,458
845.218384,462
845.336426,445
845.454468,435
845.572449,457
845.69043,452
845.808411,451
845.926453,457
846.044373,439
846.162354,447
846.280396,420
846.398315,470
846.516296,456
846.634216,461
846.752197,459
846.870178,451
846.988098,463
847.106079,462
847.22406,457
847.34198,442
847.4599,455
847.577881,447
847.695801,448
847.813782,461
847.931641,440
848.049561,431
848.167603,448
848.285461,444
848.403381,470
848.521362,452
848.639221,453
848.75708,449
848.875,450
848.99292,448
849.110901,441
849.22876,450
849.34668,438
849.464539,457
849.582458,451
849.700317,454
849.818176,449
849.936096,450
850.053955,461
850.171875,459
850.289673,436
850.407593,434
850.525452,467
850.643311,428
850.761169,463
850.878967,429
850.996887,447
851.114746,453
851.232544,434
851.350403,446
851.468262,441
851.58606,465
851.703979,455
851.821777,442
851.939636,440
852.057434,442
852.175232,445
852.293091,440
852.410889,450
852.528687,445
852.646545,449
852.764343,446
852.88208,438
852.999939,463
853.117676,458
853.235535,447
853.353271,450
853.471069,455
853.588928,463
853.706604,450
853.824402,426
853.9422,456
854.059998,450
854.177734,451
854.295532,445
854.413269,446
854.531006,440
854.648804,448
854.766541,456
854.884277,466
855.002014,459
855.119751,464
855.237549,456
855.355225,462
855.473022,443
855.590698,464
855.708435,459
855.826172,448
855.943848,458
856.061646,476
856.179321,463
856.296997,459
856.414795,446
856.53241,445
856.650085,456
856.767822,457
856.885559,463
857.003174,461
857.120911,456
857.238586,454
857.356201,460
857.473938,455
857.591614,449
857.709351,465
857.826965,452
857.944641,455
858.062317,450
858.179993,438
858.297668,455
858.415283,474
858.532959,447
858.650574,452
858.768188,432
858.885803,455
859.003479,453
859.121094,448
859.23877,438
859.356384,444
859.473999,447
859.591675,456
859.709229,445
859.826843,450
859.944458,438
860.062012,451
860.179626,455
860.297302,450
860.414856,470
860.532471,453
860.650024,446
860.767639,445
860.885193,453
861.002808,462
861.120361,439
861.237976,441
861.35553,445
861.473022,448
861.590698,429
861.708191,457
861.825745,451
861.943298,447
862.060852,423
862.178406,451
862.295959,450
862.413513,461
862.531006,445
862.64856,449
862.766113,444
862.883667,420
863.00116,424
863.118713,451
863.236206,449
863.353699,466
863.471252,457
863.588745,467
863.706177,448
863.82373,450
863.941162,436
864.058716,471
864.176208,443
864.29364,464
864.411194,442
864.528687,473
864.646118,443
864.763611,469
864.881042,459
864.998535,445
865.116028,462
865.233459,446
865.350891,450
865.468384,456
865.585754,448
865.703308,465
865.820679,450
865.938171,455
866.055542,458
866.173035,454
866.290466,466
866.407837,443
866.52533,443
866.6427,453
866.760071,443
866.877563,446
866.994934,450
867.112305,446
867.229736,454
867.347107,455
867.464539,467
867.58197,455
867.699341,449
867.81665,466
867.934082,447
868.051453,449
868.168823,454
868.286194,457
868.403564,463
868.520935,454
868.638306,461
868.755676,475
868.872986,452
868.990295,454
869.107727,450
869.225037,447
869.342346,461
869.459717,458
869.577026,460
869.694336,450
869.811707,456
869.929016,447
870.046326,452
870.163635,471
870.280945,447
870.398254,445
870.515564,461
870.632812,437
870.750183,451
870.867432,452
870.984741,446
871.102051,460
871.219299,439
871.336609,449
871.453918,447
871.571106,459
871.688416,462
871.805664,460
871.922852,446
872.040222,444
872.157471,462
872.274719,441
872.391968,477
872.509155,452
872.626465,452
872.743652,465
872.860962,434
872.978149,452
873.095337,451
873.212646,439
873.329834,435
873.44696,447
873.564209,437
873.681396,463
873.798645,454
873.915894,448
874.03302,447
874.150208,454
874.267456,425
874.384583,455
874.501831,440
874.618958,450
874.736145,446
874.853333,450
874.970459,450
875.087646,456
875.204834,440
875.32196,457
875.439148,440
875.556274,445
875.673401,438
875.790527,459
875.907715,443
876.024841,455
876.141968,458
876.259094,457
876.376282,448
876.493347,457
876.610474,446
876.7276,433
876.844727,448
876.961853,446
877.078918,429
877.195984,451
877.313171,459
877.430237,460
877.547302,447
877.664368,455
877.781433,458
877.898499,450
878.015625,438
878.13269,440
878.249695,464
878.366821,439
878.483887,434
878.600952,469
878.717957,461
878.834961,444
878.952087,452
879.069092,451
879.186157,442
879.303162,450
879.420227,459
879.537231,476
879.654236,454
879.77124,437
879.888306,452
880.005249,440
880.122314,462
880.239319,448
880.356323,457
880.473328,452
880.590271,454
880.707275,444
880.824341,441
880.941284,461
881.058228,433
881.175232,448
881.292236,472
881.40918,456
881.526123,457
881.643066,447
881.760071,448
881.877014,468
881.993958,466
882.11084,478
882.227783,448
882.344727,472
882.46167,438
882.578613,457
882.695618,459
882.812439,441
882.929382,450
883.046326,453
883.163208,455
883.280151,474
883.397034,461
883.513916,455
883.630798,441
883.747742,478
883.864563,457
883.981506,468
884.098389,449
884.21521,456
884.332153,455
884.448975,449
884.565796,451
884.682678,459
884.7995,459
884.916443,467
885.033264,448
885.150085,436
885.266968,459
885.383789,449
885.500671,444
885.617493,451
885.734314,453
885.851196,450
885.967896,461
886.084717,472
886.201599,464
886.318359,460
886.435181,444
886.552002,473
886.668762,457
886.785645,440
886.902344,459
887.019165,440
887.135925,450
887.252747,447
887.369446,459
887.486267,473
887.603027,453
887.719788,462
887.836548,449
887.953247,476
888.070068,452
888.186829,452
888.303528,462
888.420288,461
888.536987,466
888.653687,438
888.770447,448
888.887146,458
889.003967,462
889.120667,458
889.237305,458
889.354065,445
889.470703,472
889.587463,457
889.704163,454
889.820862,447
889.937561,454
890.054199,445
890.170837,474
890.287598,466
890.404236,460
890.520874,462
890.637634,463
890.754211,450
890.87085,452
890.987549,458
891.104187,452
891.220886,459
891.337463,459
891.454102,476
891.57074,464
891.687378,475
891.804077,456
891.920654,466
892.037231,447
892.15387,458
892.270447,471
892.387085,444
892.503723,453
892.6203,465
892.736877,444
892.853516,467
892.970032,465
893.08667,463
893.203186,474
893.319763,451
893.43634,473
893.552917,441
893.669556,461
893.786011,459
893.902588,448
894.019165,461
894.135681,449
894.252197,451
894.368835,444
894.485291,446
894.601868,457
894.718384,474
894.8349,469
894.951355,477
895.067932,444
895.184448,458
895.300964,463
895.417419,451
895.533936,466
895.650452,460
895.766907,453
895.883423,459
895.999878,457
896.116333,459
896.232849,463
896.349304,466
896.465759,456
896.582214,462
896.698669,464
896.815125,480
896.931641,448
897.048035,494
897.164551,469
897.280884,460
897.397339,457
897.513794,462
897.630249,456
897.746582,467
897.863098,456
897.979431,466
898.095886,460
898.212341,494
898.328674,455
898.445129,463
898.561462,462
898.677795,465
898.794312,464
898.910645,455
899.026978,466
899.143433,448
899.259766,479
899.37616,465
899.492493,479
899.608765,473
899.725159,457
899.841553,478
899.957947,456
900.07428,454
900.190552,451
900.306946,464
900.423157,465
900.53949,474
900.655884,473
900.772156,477
900.888489,454
901.004822,469
901.121033,445
901.237366,457
901.353699,476
901.46991,449
901.586304,451
901.702515,467
901.818787,468
901.93512,459
902.051331,471
902.167603,489
902.283875,477
902.400085,477
902.516418,463
902.632629,481
902.74884,469
902.865112,471
902.981384,454
903.097595,475
903.213867,474
903.330017,466
903.446289,466
903.5625,453
903.67865,479
903.794922,469
903.911072,465
904.027344,478
904.143494,467
904.259705,443
904.375916,464
904.492065,482
904.608215,475
904.724426,461
904.840576,469
904.956726,478
905.072876,472
905.189087,480
905.305176,467
905.421387,485
905.537537,449
905.653687,482
905.769775,446
905.885925,469
906.002014,482
906.118164,471
906.234314,453
906.350403,459
906.466492,467
906.582642,468
906.69873,438
906.814758,485
906.930908,454
907.046936,469
907.163086,463
907.279175,466
907.395264,462
907.511353,480
907.62738,454
907.743408,457
907.859497,464
907.975525,470
908.091553,456
908.207703,473
908.32373,472
908.439758,461
908.555786,472
908.671814,469
908.787842,471
908.90387,474
909.019775,462
909.135864,484
909.251892,473
909.367859,474
909.483826,456
909.599854,468
909.715881,478
909.831848,460
909.947815,447
910.063782,485
910.179749,456
910.295776,476
910.411743,471
910.527649,457
910.643616,472
910.759583,470
910.875488,464
910.991455,479
911.107361,477
911.223267,463
911.339294,456
911.4552,465
911.571106,466
911.687073,484
911.802979,484
911.918823,465
912.034729,463
912.150635,467
912.266602,454
912.382446,486
912.498352,459
912.614197,483
912.730103,462
912.846008,469
792.44574,619
792.56488,627
792.68396,690
792.80304,659
792.92218,613
793.041199,608
793.160339,599
793.279419,615
793.398499,626
793.517578,600
793.636658,594
793.755737,606
793.874817,617
793.993896,628
794.112976,603
794.232056,606
794.351074,620
794.470215,593
794.589233,577
794.708313,582
794.827393,594
794.946411,598
795.065552,599
795.18457,607
795.303589,596
795.422668,594
795.541687,610
795.660767,581
795.779846,565
795.898865,604
796.017883,555
796.136963,588
796.255981,580
796.375061,595
796.49408,580
796.613037,594
796.732117,582
796.851135,588
796.970154,574
797.089233,592
797.208191,573
797.327271,569
797.446228,560
797.565186,587
797.684265,584
797.803223,576
797.922241,568
798.04126,588
798.160278,575
798.279297,553
798.398315,565
798.517273,577
798.636292,565
798.75531,599
798.874268,569
798.993286,589
799.112244,597
799.231323,578
799.350281,597
799.469238,571
799.588257,596
799.707153,572
799.826111,585
799.945129,572
800.064087,582
800.183044,584
800.302063,565
800.421021,569
800.539978,564
800.658936,558
800.777893,575
800.896912,591
801.015747,583
801.134705,579
801.253723,589
801.37262,601
801.491638,598
801.610535,569
801.729492,570
801.84845,587
801.967407,584
802.086243,594
802.205261,597
802.324158,601
802.443115,595
802.562073,590
802.680969,581
802.799927,597
802.918762,608
803.037659,578
803.156677,574
803.275574,591
803.39447,612
803.513428,623
803.632263,604
803.751221,586
803.870117,596
803.989014,586
804.107971,576
804.226746,610
804.345642,613
804.4646,607
804.583496,580
804.702393,597
804.821228,620
804.940125,601
805.059021,597
805.177917,600
805.296814,619
805.415649,610
805.534546,595
805.653442,609
805.772278,617
805.891113,620
806.01001,617
806.128906,629
806.247742,602
806.366577,611
806.485413,606
806.604309,609
806.723145,614
806.84198,617
806.960876,607
807.079712,611
807.198486,609
807.317383,625
807.436218,600
807.554993,637
807.673889,625
807.792725,604
807.91156,626
808.030396,620
808.14917,608
808.268005,617
808.386841,611
808.505676,594
808.624451,634
808.743286,653
808.862122,617
808.980896,640
809.099731,635
809.218506,636
809.337341,607
809.456116,622
809.57489,630
809.693726,623
809.8125,616
809.931274,640
810.050049,601
810.168884,634
810.287659,641
810.406372,628
810.525269,630
810.643982,628
810.762756,625
810.881531,633
811.000305,609
811.11908,637
811.237854,619
811.356567,614
811.475403,647
811.594116,649
811.71283,644
811.831604,629
811.950378,632
812.069153,658
812.187927,629
812.30658,607
812.425415,635
812.544128,631
812.662781,626
812.781616,641
812.900269,624
813.019043,616
813.137756,626
813.256531,647
813.375244,636
813.493896,632
813.612671,618
813.731384,643
813.850037,635
813.96875,629
814.087524,612
814.206238,599
814.324951,645
814.443604,621
814.562256,623
814.68103,616
814.799683,613
814.918335,614
815.037109,620
815.155762,634
815.274475,634
815.393188,635
815.511841,602
815.630554,635
815.749146,607
815.867859,598
815.986572,602
816.105164,618
816.223877,610
816.342529,642
816.461182,647
816.579895,644
816.698486,641
816.817139,622
816.935791,623
817.054504,577
817.173096,606
817.291748,624
817.4104,596
817.529053,619
817.647644,613
817.766235,621
817.884949,588
818.00354,581
818.122192,551
818.240845,567
818.359436,568
818.478088,544
818.59668,523
818.715271,536
818.833923,537
818.952515,538
819.071106,510
819.189758,521
819.30835,491
819.426941,506
819.545532,489
819.664124,526
819.782715,498
819.901306,489
820.019897,507
820.138489,496
820.25708,498
820.375671,518
820.494202,479
820.612732,502
820.731384,495
820.849915,496
820.968506,499
821.087097,497
821.205627,475
821.324158,504
821.442749,481
821.561279,490
821.679871,492
821.798401,467
821.916931,461
822.035461,485
822.154053,457
822.272583,475
822.391174,480
822.509583,477
822.628174,475
822.746704,475
822.865234,480
822.983765,496
823.102295,482
823.220825,501
823.339294,475
823.457825,488
823.576355,498
823.694824,496
823.813354,482
823.931885,501
824.050354,474
824.168884,488
824.287354,473
824.405823,480
824.524353,489
824.642822,492
824.761353,492
824.879822,470
824.998291,503
825.116699,482
825.235291,498
825.353699,466
825.472168,483
825.590637,492
825.709106,463
825.827576,466
825.946045,467
826.064453,468
826.182983,469
826.301392,477
826.4198,474
826.53833,472
826.656738,462
826.775208,471
826.893677,483
827.012024,475
827.130493,450
827.248962,474
827.36731,474
827.485779,462
827.604248,480
827.722595,464
827.841064,469
827.959412,460
828.077942,462
828.196289,454
828.314636,470
828.433105,461
828.551514,453
828.669861,464
828.78833,445
828.906677,470
829.025085,485
829.143433,471
829.261841,466
829.38031,453
829.498657,482
829.617004,468
829.735413,448
829.85376,465
829.972107,453
830.090515,453
830.208862,453
830.327209,460
830.445557,446
830.563904,445
830.682312,450
830.800659,459
830.919006,458
831.037354,455
831.155701,450
831.274048,474
831.392395,473
831.51062,450
831.629028,450
831.747314,466
831.865662,465
831.984009,488
832.102356,468
832.220642,466
832.338928,465
832.457275,484
832.575623,473
832.693909,438
832.812134,455
832.930481,456
833.048828,456
833.167114,479
833.2854,451
833.403687,461
833.521973,471
833.640259,471
833.758545,456
833.876831,461
833.995056,477
834.113281,444
834.231628,450
834.349915,473
834.468201,458
834.586426,480
834.704651,472
834.822998,458
834.941162,445
835.059448,474
835.177673,466
835.295959,452
835.414246,455
835.53241,464
835.650635,445
835.768921,474
835.887146,478
836.005371,459
836.123596,464
836.241821,450
836.360046,475
836.478271,459
836.596497,458
836.714722,475
836.832886,474
836.95105,476
837.069336,479
837.1875,467
837.305725,469
837.423889,464
837.542053,478
837.660339,481
837.778503,476
837.896667,472
838.014832,476
838.132996,479
838.25116,486
838.369385,466
838.487488,468
838.605713,482
838.723877,450
838.84198,476
838.960205,477
839.078308,485
839.196472,473
839.314636,480
839.4328,481
839.550964,463
839.669067,469
839.787231,462
839.905396,473
840.023499,463
840.141602,479
840.259766,481
840.377869,474
840.495972,466
840.614136,445
840.732239,495
840.850342,462
840.968445,483
841.086548,476
841.204651,464
841.322754,462
841.440918,486
841.55896,467
841.677002,459
841.795166,458
841.913208,439
842.031311,445
842.149353,462
842.267456,463
842.385498,461
842.503601,461
842.621643,446
842.739746,447
842.857788,466
842.97583,452
843.093933,459
843.211975,460
843.330017,475
843.44812,443
843.566101,446
843.684204,449
843.802246,470
843.920227,458
844.038269,470
844.156311,448
844.274292,448
844.392395,441
844.510376,455
844.628357,458
844.74646,464
844.864441,442
844.982422,452
845.100403,460
845.218384,459
845.336426,432
845.454468,436
845.572449,448
845.69043,450
845.808411,448
845.926453,456
846.044373,453
846.162354,459
846.280396,449
846.398315,470
846.516296,467
846.634216,459
846.752197,440
846.870178,449
846.988098,453
847.106079,447
847.22406,437
847.34198,453
847.4599,457
847.577881,456
847.695801,448
847.813782,464
847.931641,457
848.049561,451
848.167603,461
848.285461,446
848.403381,442
848.521362,443
848.639221,462
848.75708,450
848.875,447
848.99292,460
849.110901,432
849.22876,439
849.34668,462
849.464539,449
849.582458,451
849.700317,447
849.818176,441
849.936096,463
850.053955,451
850.171875,460
850.289673,453
850.407593,443
850.525452,460
850.643311,434
850.761169,443
850.878967,465
850.996887,455
851.114746,452
851.232544,452
851.350403,441
851.468262,445
851.58606,435
851.703979,451
851.821777,454
851.939636,432
852.057434,452
852.175232,450
852.293091,449
852.410889,456
852.528687,464
852.646545,452
852.764343,447
852.88208,475
852.999939,448
853.117676,444
853.235535,436
853.353271,452
853.471069,457
853.588928,437
853.706604,444
853.824402,456
853.9422,451
854.059998,452
854.177734,448
854.295532,442
854.413269,446
854.531006,430
854.648804,459
854.766541,452
854.884277,460
855.002014,463
855.119751,466
855.237549,440
855.355225,444
855.473022,429
855.590698,448
855.708435,462
855.826172,449
855.943848,457
856.061646,448
856.179321,432
856.296997,460
856.414795,465
856.53241,457
856.650085,467
856.767822,462
856.885559,472
857.003174,441
857.120911,450
857.238586,459
857.356201,458
857.473938,475
857.591614,453
857.709351,456
857.826965,482
857.944641,452
858.062317,464
858.179993,459
858.297668,457
858.415283,460
858.532959,442
858.650574,466
858.768188,437
858.885803,491
859.003479,442
859.121094,455
859.23877,468
859.356384,453
859.473999,436
859.591675,432
859.709229,480
859.826843,441
859.944458,440
860.062012,453
860.179626,431
860.297302,453
860.414856,442
860.532471,454
860.650024,462
860.767639,451
860.885193,454
861.002808,459
861.120361,453
861.237976,469
861.35553,446
861.473022,444
861.590698,455
861.708191,432
861.825745,453
861.943298,436
862.060852,442
862.178406,474
862.295959,456
862.413513,453
862.531006,430
862.64856,453
862.766113,463
862.883667,470
863.00116,440
863.118713,430
863.236206,431
863.353699,466
863.471252,450
863.588745,477
863.706177,452
863.82373,454
863.941162,434
864.058716,440
864.176208,436
864.29364,461
864.411194,428
864.528687,457
864.646118,454
864.763611,425
864.881042,459
864.998535,439
865.116028,459
865.233459,461
865.350891,454
865.468384,437
865.585754,445
865.703308,455
865.820679,447
865.938171,444
866.055542,449
866.173035,447
866.290466,453
866.407837,439
866.52533,469
866.6427,458
866.760071,451
866.877563,456
866.994934,440
867.112305,453
867.229736,457
867.347107,459
867.464539,464
867.58197,435
867.699341,447
867.81665,463
867.934082,444
868.051453,450
868.168823,453
868.286194,468
868.403564,445
868.520935,454
868.638306,456
868.755676,467
868.872986,446
868.990295,460
869.107727,449
869.225037,444
869.342346,469
869.459717,439
869.577026,452
869.694336,470
869.811707,456
869.929016,463
870.046326,438
870.163635,438
870.280945,457
870.398254,447
870.515564,447
870.632812,451
870.750183,460
870.867432,477
870.984741,430
871.102051,469
871.219299,455
871.336609,457
871.453918,447
871.571106,461
871.688416,459
871.805664,446
871.922852,445
872.040222,451
872.157471,448
872.274719,447
872.391968,453
872.509155,449
872.626465,440
872.743652,450
872.860962,460
872.978149,464
873.095337,442
873.212646,449
873.329834,471
873.44696,449
873.564209,440
873.681396,449
873.798645,434
873.915894,455
874.03302,459
874.150208,447
874.267456,438
874.384583,456
874.501831,454
874.618958,470
874.736145,445
874.853333,445
874.970459,461
875.087646,454
875.204834,450
875.32196,472
875.439148,457
875.556274,461
875.673401,457
875.790527,433
875.907715,448
876.024841,435
876.141968,445
876.259094,457
876.376282,455
876.493347,450
876.610474,438
876.7276,466
876.844727,445
876.961853,435
877.078918,458
877.195984,467
877.313171,457
877.430237,460
877.547302,471
877.664368,445
877.781433,452
877.898499,447
878.015625,460
878.13269,443
878.249695,448
878.366821,457
878.483887,440
878.600952,451
878.717957,446
878.834961,438
878.952087,435
879.069092,466
879.186157,437
879.303162,447
879.420227,447
879.537231,451
879.654236,458
879.77124,439
879.888306,464
880.005249,454
880.122314,437
880.239319,445
880.356323,438
880.473328,463
880.590271,446
880.707275,462
880.824341,446
880.941284,437
881.058228,445
881.175232,452
881.292236,439
881.40918,469
881.526123,477
881.643066,452
881.760071,452
881.877014,454
881.993958,449
882.11084,449
882.227783,471
882.344727,456
882.46167,441
882.578613,444
882.695618,449
882.812439,453
882.929382,445
883.046326,451
883.163208,431
883.280151,448
883.397034,444
883.513916,447
883.630798,460
883.747742,459
883.864563,425
883.981506,444
884.098389,440
884.21521,447
884.332153,457
884.448975,457
884.565796,447
884.682678,462
884.7995,459
884.916443,464
885.033264,454
885.150085,454
885.266968,445
885.383789,453
885.500671,442
885.617493,466
885.734314,466
885.851196,469
885.967896,458
886.084717,465
886.201599,445
886.318359,443
886.435181,479
886.552002,452
886.668762,449
886.785645,463
886.902344,452
887.019165,458
887.135925,458
887.252747,461
887.369446,458
887.486267,458
887.603027,456
887.719788,465
887.836548,450
887.953247,456
888.070068,449
888.186829,465
888.303528,468
888.420288,470
888.536987,453
888.653687,433
888.770447,459
888.887146,462
889.003967,440
889.120667,453
889.237305,467
889.354065,452
889.470703,467
889.587463,456
889.704163,452
889.820862,439
889.937561,439
890.054199,465
890.170837,445
890.287598,451
890.404236,457
890.520874,456
890.637634,461
890.754211,448
890.87085,460
890.987549,461
891.104187,471
891.220886,475
891.337463,453
891.454102,464
891.57074,442
891.687378,470
891.804077,453
891.920654,467
892.037231,444
892.15387,455
892.270447,469
892.387085,461
892.503723,460
892.6203,464
892.736877,460
892.853516,475
892.970032,456
893.08667,475
893.203186,464
893.319763,471
893.43634,468
893.552917,467
893.669556,467
893.786011,437
893.902588,444
894.019165,460
894.135681,453
894.252197,457
894.368835,455
894.485291,479
894.601868,449
894.718384,474
894.8349,454
894.951355,469
895.067932,446
895.184448,471
895.300964,471
895.417419,459
895.533936,472
895.650452,485
895.766907,448
895.883423,461
895.999878,465
896.116333,451
896.232849,462
896.349304,459
896.465759,465
896.582214,474
896.698669,451
896.815125,460
896.931641,458
897.048035,449
897.164551,465
897.280884,471
897.397339,443
897.513794,455
897.630249,458
897.746582,443
897.863098,464
897.979431,460
898.095886,467
898.212341,486
898.328674,460
898.445129,471
898.561462,454
898.677795,450
898.794312,455
898.910645,446
899.026978,466
899.143433,465
899.259766,468
899.37616,455
899.492493,458
899.608765,459
899.725159,459
899.841553,453
899.957947,460
900.07428,481
900.190552,461
900.306946,469
900.423157,463
900.53949,467
900.655884,452
900.772156,465
900.888489,462
901.004822,457
901.121033,470
901.237366,460
901.353699,453
901.46991,471
901.586304,484
901.702515,457
901.818787,488
901.93512,463
902.051331,468
902.167603,459
902.283875,444
902.400085,458
902.516418,464
902.632629,481
902.74884,458
902.865112,470
902.981384,471
903.097595,467
903.213867,490
903.330017,477
903.446289,456
903.5625,470
903.67865,469
903.794922,483
903.911072,473
904.027344,491
904.143494,477
904.259705,481
904.375916,449
904.492065,469
904.608215,467
904.724426,469
904.840576,454
904.956726,460
905.072876,474
905.189087,487
905.305176,466
905.421387,468
905.537537,476
905.653687,461
905.769775,476
905.885925,462
906.002014,464
906.118164,478
906.234314,463
906.350403,466
906.466492,464
906.582642,482
906.69873,469
906.814758,458
906.930908,457
907.046936,482
907.163086,465
907.279175,457
907.395264,472
907.511353,465
907.62738,468
907.743408,485
907.859497,465
907.975525,466
908.091553,477
908.207703,470
908.32373,487
908.439758,459
908.555786,476
908.671814,473
908.787842,457
908.90387,476
909.019775,469
909.135864,451
909.251892,487
909.367859,471
909.483826,456
909.599854,469
909.715881,472
909.831848,454
909.947815,486
910.063782,511
910.179749,491
910.295776,489
910.411743,486
910.527649,467
910.643616,473
910.759583,469
910.875488,471
910.991455,466
911.107361,475
911.223267,485
911.339294,470
911.4552,458
911.571106,467
911.687073,480
911.802979,454
911.918823,489
912.034729,484
912.150635,480
912.266602,473
912.382446,474
912.498352,468
912.614197,469
912.730103,439
912.846008,453
