792.44574,1192
792.56488,1152
792.68396,1193
792.80304,1137
792.92218,1095
793.041199,1041
793.160339,1038
793.279419,1009
793.398499,1020
793.517578,992
793.636658,944
793.755737,951
793.874817,954
793.993896,927
794.112976,912
794.232056,879
794.351074,911
794.470215,842
794.589233,851
794.708313,844
794.827393,828
794.946411,812
795.065552,824
795.18457,820
795.303589,803
795.422668,771
795.541687,781
795.660767,776
795.779846,767
795.898865,767
796.017883,768
796.136963,750
796.255981,760
796.375061,729
796.49408,726
796.613037,736
796.732117,741
796.851135,723
796.970154,726
797.089233,711
797.208191,720
797.327271,713
797.446228,719
797.565186,706
797.684265,709
797.803223,687
797.922241,685
798.04126,675
798.160278,663
798.279297,665
798.398315,667
798.517273,667
798.636292,696
798.75531,664
798.874268,653
798.993286,663
799.112244,658
799.231323,655
799.350281,659
799.469238,656
799.588257,657
799.707153,662
799.826111,678
799.945129,616
800.064087,668
800.183044,657
800.302063,635
800.421021,652
800.539978,635
800.658936,626
800.777893,656
800.896912,618
801.015747,622
801.134705,613
801.253723,629
801.37262,614
801.491638,616
801.610535,625
801.729492,621
801.84845,630
801.967407,607
802.086243,607
802.205261,645
802.324158,617
802.443115,631
802.562073,596
802.680969,616
802.799927,623
802.918762,613
803.037659,616
803.156677,616
803.275574,602
803.39447,615
803.513428,583
803.632263,596
803.751221,594
803.870117,595
803.989014,576
804.107971,578
804.226746,595
804.345642,588
804.4646,592
804.583496,605
804.702393,599
804.821228,572
804.940125,598
805.059021,595
805.177917,598
805.296814,593
805.415649,581
805.534546,596
805.653442,583
805.772278,595
805.891113,594
806.01001,599
806.128906,590
806.247742,600
806.366577,600
806.485413,592
806.604309,592
806.723145,597
806.84198,581
806.960876,563
807.079712,580
807.198486,602
807.317383,625
807.436218,582
807.554993,573
807.673889,580
807.792725,565
807.91156,587
808.030396,573
808.14917,568
808.268005,587
808.386841,583
808.505676,581
808.624451,576
808.743286,588
808.862122,575
808.980896,578
809.099731,584
809.218506,577
809.337341,571
809.456116,596
809.57489,587
809.693726,579
809.8125,577
809.931274,585
810.050049,581
810.168884,571
810.287659,581
810.406372,571
810.525269,555
810.643982,578
810.762756,582
810.881531,583
811.000305,582
811.11908,569
811.237854,570
811.356567,594
811.475403,572
811.594116,565
811.71283,581
811.831604,560
811.950378,590
812.069153,593
812.187927,594
812.30658,613
812.425415,589
812.544128,574
812.662781,604
812.781616,583
812.900269,589
813.019043,584
813.137756,575
813.256531,588
813.375244,557
813.493896,550
813.612671,581
813.731384,595
813.850037,581
813.96875,565
814.087524,558
814.206238,581
814.324951,568
814.443604,582
814.562256,562
814.68103,545
814.799683,567
814.918335,564
815.037109,580
815.155762,562
815.274475,582
815.393188,574
815.511841,562
815.630554,588
815.749146,565
815.867859,570
815.986572,540
816.105164,578
816.223877,561
816.342529,567
816.461182,550
816.579895,578
816.698486,599
816.817139,590
816.935791,592
817.054504,565
817.173096,563
817.291748,566
817.4104,569
817.529053,557
817.647644,583
817.766235,533
817.884949,582
818.00354,531
818.122192,553
818.240845,557
818.359436,558
818.478088,557
818.59668,547
818.715271,548
818.833923,545
818.952515,554
819.071106,529
819.189758,537
819.30835,543
819.426941,525
819.545532,520
819.664124,503
819.782715,543
819.901306,499
820.019897,535
820.138489,518
820.25708,515
820.375671,529
820.494202,540
820.612732,517
820.731384,541
820.849915,521
820.968506,515
821.087097,515
821.205627,535
821.324158,521
821.442749,523
821.561279,499
821.679871,513
821.798401,523
821.916931,508
822.035461,502
822.154053,522
822.272583,506
822.391174,546
822.509583,514
822.628174,512
822.746704,528
822.865234,498
822.983765,501
823.102295,516
823.220825,511
823.339294,522
823.457825,504
823.576355,519
823.694824,521
823.813354,526
823.931885,522
824.050354,517
824.168884,511
824.287354,515
824.405823,516
824.524353,502
824.642822,489
824.761353,525
824.879822,502
824.998291,513
825.116699,507
825.235291,493
825.353699,516
825.472168,507
825.590637,510
825.709106,520
825.827576,507
825.946045,519
826.064453,492
826.182983,515
826.301392,512
826.4198,513
826.53833,510
826.656738,518
826.775208,491
826.893677,509
827.012024,520
827.130493,487
827.248962,506
827.36731,490
827.485779,529
827.604248,524
827.722595,506
827.841064,487
827.959412,494
828.077942,492
828.196289,512
828.314636,488
828.433105,517
828.551514,486
828.669861,485
828.78833,492
828.906677,499
829.025085,482
829.143433,515
829.261841,498
829.38031,496
829.498657,505
829.617004,482
829.735413,499
829.85376,496
829.972107,492
830.090515,493
830.208862,497
830.327209,478
830.445557,513
830.563904,483
830.682312,503
830.800659,504
830.919006,524
831.037354,490
831.155701,516
831.274048,483
831.392395,501
831.51062,523
831.629028,509
831.747314,496
831.865662,524
831.984009,511
832.102356,518
832.220642,501
832.338928,529
832.457275,517
832.575623,524
832.693909,509
832.812134,526
832.930481,485
833.048828,501
833.167114,481
833.2854,503
833.403687,500
833.521973,519
833.640259,518
833.758545,509
833.876831,498
833.995056,508
834.113281,521
834.231628,514
834.349915,513
834.468201,532
834.586426,480
834.704651,505
834.822998,512
834.941162,502
835.059448,511
835.177673,502
835.295959,501
835.414246,538
835.53241,483
835.650635,493
835.768921,506
835.887146,511
836.005371,507
836.123596,508
836.241821,509
836.360046,487
836.478271,481
836.596497,496
836.714722,494
836.832886,514
836.95105,488
837.069336,495
837.1875,498
837.305725,503
837.423889,499
837.542053,499
837.660339,502
837.778503,499
837.896667,494
838.014832,501
838.132996,485
838.25116,492
838.369385,495
838.487488,504
838.605713,525
838.723877,525
838.84198,525
838.960205,514
839.078308,507
839.196472,517
839.314636,508
839.4328,496
839.550964,473
839.669067,518
839.787231,511
839.905396,525
840.023499,539
840.141602,554
840.259766,525
840.377869,509
840.495972,531
840.614136,537
840.732239,529
840.850342,515
840.968445,529
841.086548,521
841.204651,539
841.322754,568
841.440918,557
841.55896,525
841.677002,535
841.795166,548
841.913208,548
842.031311,548
842.149353,554
842.267456,546
842.385498,540
842.503601,536
842.621643,530
842.739746,531
842.857788,544
842.97583,547
843.093933,548
843.211975,543
843.330017,547
843.44812,551
843.566101,534
843.684204,544
843.802246,519
843.920227,556
844.038269,553
844.156311,520
844.274292,524
844.392395,527
844.510376,531
844.628357,553
844.74646,525
844.864441,519
844.982422,543
845.100403,529
845.218384,529
845.336426,546
845.454468,526
845.572449,522
845.69043,509
845.808411,534
845.926453,513
846.044373,514
846.162354,498
846.280396,544
846.398315,547
846.516296,537
846.634216,525
846.752197,532
846.870178,542
846.988098,555
847.106079,549
847.22406,536
847.34198,525
847.4599,556
847.577881,547
847.695801,530
847.813782,517
847.931641,533
848.049561,534
848.167603,516
848.285461,528
848.403381,558
848.521362,527
848.639221,527
848.75708,508
848.875,530
848.99292,523
849.110901,519
849.22876,520
849.34668,539
849.464539,517
849.582458,530
849.700317,525
849.818176,542
849.936096,504
850.053955,533
850.171875,534
850.289673,530
850.407593,538
850.525452,528
850.643311,507
850.761169,530
850.878967,527
850.996887,547
851.114746,518
851.232544,531
851.350403,509
851.468262,540
851.58606,526
851.703979,528
851.821777,526
851.939636,536
852.057434,508
852.175232,530
852.293091,515
852.410889,565
852.528687,544
852.646545,541
852.764343,545
852.88208,573
852.999939,550
853.117676,547
853.235535,521
853.353271,510
853.471069,548
853.588928,510
853.706604,519
853.824402,507
853.9422,499
854.059998,536
854.177734,541
854.295532,531
854.413269,542
854.531006,550
854.648804,536
854.766541,540
854.884277,533
855.002014,535
855.119751,514
855.237549,558
855.355225,558
855.473022,542
855.590698,523
855.708435,540
855.826172,538
855.943848,528
856.061646,556
856.179321,529
856.296997,527
856.414795,548
856.53241,551
856.650085,529
856.767822,552
856.885559,531
857.003174,547
857.120911,562
857.238586,570
857.356201,540
857.473938,556
857.591614,550
857.709351,529
857.826965,547
857.944641,545
858.062317,559
858.179993,547
858.297668,558
858.415283,538
858.532959,556
858.650574,543
858.768188,534
858.885803,519
859.003479,526
859.121094,559
859.23877,530
859.356384,543
859.473999,547
859.591675,545
859.709229,528
859.826843,528
859.944458,543
860.062012,533
860.179626,549
860.297302,534
860.414856,537
860.532471,521
860.650024,549
860.767639,525
860.885193,550
861.002808,533
861.120361,528
861.237976,554
861.35553,546
861.473022,538
861.590698,520
861.708191,513
861.825745,522
861.943298,524
862.060852,526
862.178406,510
862.295959,517
862.413513,506
862.531006,502
862.64856,488
862.766113,507
862.883667,489
863.00116,500
863.118713,500
863.236206,523
863.353699,502
863.471252,523
863.588745,501
863.706177,519
863.82373,517
863.941162,494
864.058716,516
864.176208,524
864.29364,500
864.411194,510
864.528687,505
864.646118,503
864.763611,511
864.881042,515
864.998535,508
865.116028,517
865.233459,505
865.350891,512
865.468384,482
865.585754,509
865.703308,511
865.820679,550
865.938171,490
866.055542,512
866.173035,492
866.290466,502
866.407837,488
866.52533,502
866.6427,505
866.760071,491
866.877563,504
866.994934,503
867.112305,514
867.229736,515
867.347107,511
867.464539,520
867.58197,513
867.699341,524
867.81665,508
867.934082,515
868.051453,524
868.168823,511
868.286194,522
868.403564,493
868.520935,511
868.638306,515
868.755676,502
868.872986,523
868.990295,519
869.107727,512
869.225037,513
869.342346,540
869.459717,520
869.577026,534
869.694336,536
869.811707,542
869.929016,524
870.046326,532
870.163635,523
870.280945,556
870.398254,553
870.515564,536
870.632812,521
870.750183,537
870.867432,538
870.984741,550
871.102051,564
871.219299,529
871.336609,592
871.453918,557
871.571106,536
871.688416,544
871.805664,557
871.922852,564
872.040222,563
872.157471,562
872.274719,543
872.391968,577
872.509155,543
872.626465,574
872.743652,567
872.860962,557
872.978149,546
873.095337,542
873.212646,543
873.329834,540
873.44696,532
873.564209,538
873.681396,542
873.798645,535
873.915894,537
874.03302,547
874.150208,517
874.267456,537
874.384583,528
874.501831,551
874.618958,554
874.736145,551
874.853333,541
874.970459,556
875.087646,569
875.204834,556
875.32196,545
875.439148,536
875.556274,543
875.673401,542
875.790527,528
875.907715,554
876.024841,534
876.141968,556
876.259094,518
876.376282,520
876.493347,528
876.610474,533
876.7276,521
876.844727,531
876.961853,508
877.078918,553
877.195984,527
877.313171,535
877.430237,519
877.547302,543
877.664368,518
877.781433,526
877.898499,523
878.015625,524
878.13269,522
878.249695,542
878.366821,522
878.483887,513
878.600952,522
878.717957,518
878.834961,512
878.952087,523
879.069092,494
879.186157,493
879.303162,525
879.420227,505
879.537231,526
879.654236,499
879.77124,494
879.888306,503
880.005249,491
880.122314,506
880.239319,496
880.356323,501
880.473328,506
880.590271,508
880.707275,506
880.824341,509
880.941284,505
881.058228,498
881.175232,491
881.292236,528
881.40918,509
881.526123,494
881.643066,487
881.760071,530
881.877014,496
881.993958,509
882.11084,502
882.227783,484
882.344727,499
882.46167,484
882.578613,504
882.695618,503
882.812439,496
882.929382,516
883.046326,485
883.163208,498
883.280151,517
883.397034,463
883.513916,505
883.630798,486
883.747742,508
883.864563,497
883.981506,503
884.098389,506
884.21521,514
884.332153,508
884.448975,519
884.565796,546
884.682678,535
884.7995,544
884.916443,550
885.033264,564
885.150085,563
885.266968,602
885.383789,600
885.500671,593
885.617493,595
885.734314,612
885.851196,584
885.967896,611
886.084717,596
886.201599,598
886.318359,606
886.435181,581
886.552002,598
886.668762,584
886.785645,576
886.902344,619
887.019165,576
887.135925,562
887.252747,567
887.369446,562
887.486267,549
887.603027,539
887.719788,533
887.836548,539
887.953247,552
888.070068,551
888.186829,524
888.303528,510
888.420288,494
888.536987,519
888.653687,493
888.770447,493
888.887146,503
889.003967,502
889.120667,482
889.237305,516
889.354065,465
889.470703,489
889.587463,464
889.704163,488
889.820862,487
889.937561,472
890.054199,481
890.170837,488
890.287598,493
890.404236,492
890.520874,483
890.637634,476
890.754211,474
890.87085,491
890.987549,479
891.104187,501
891.220886,465
891.337463,496
891.454102,482
891.57074,467
891.687378,498
891.804077,488
891.920654,488
892.037231,482
892.15387,488
892.270447,492
892.387085,465
892.503723,493
892.6203,485
892.736877,491
892.853516,468
892.970032,472
893.08667,473
893.203186,494
893.319763,477
893.43634,487
893.552917,471
893.669556,482
893.786011,459
893.902588,488
894.019165,496
894.135681,492
894.252197,487
894.368835,478
894.485291,480
894.601868,494
894.718384,480
894.8349,461
894.951355,485
895.067932,477
895.184448,456
895.300964,485
895.417419,464
895.533936,484
895.650452,481
895.766907,464
895.883423,476
895.999878,477
896.116333,470
896.232849,463
896.349304,476
896.465759,464
896.582214,477
896.698669,492
896.815125,470
896.931641,472
897.048035,458
897.164551,482
897.280884,471
897.397339,476
897.513794,474
897.630249,478
897.746582,477
897.863098,491
897.979431,486
898.095886,491
898.212341,480
898.328674,494
898.445129,476
898.561462,478
898.677795,478
898.794312,474
898.910645,466
899.026978,477
899.143433,473
899.259766,482
899.37616,489
899.492493,484
899.608765,491
899.725159,489
899.841553,470
899.957947,487
900.07428,476
900.190552,495
900.306946,498
900.423157,479
900.53949,487
900.655884,473
900.772156,492
900.888489,493
901.004822,495
901.121033,504
901.237366,483
901.353699,498
901.46991,501
901.586304,485
901.702515,494
901.818787,490
901.93512,497
902.051331,508
902.167603,496
902.283875,520
902.400085,525
902.516418,536
902.632629,538
902.74884,542
902.865112,545
902.981384,552
903.097595,520
903.213867,558
903.330017,547
903.446289,545
903.5625,539
903.67865,519
903.794922,515
903.911072,548
904.027344,524
904.143494,516
904.259705,505
904.375916,505
904.492065,486
904.608215,489
904.724426,512
904.840576,502
904.956726,484
905.072876,497
905.189087,486
905.305176,498
905.421387,506
905.537537,489
905.653687,492
905.769775,494
905.885925,465
906.002014,470
906.118164,472
906.234314,467
906.350403,458
906.466492,465
906.582642,460
906.69873,476
906.814758,477
906.930908,482
907.046936,468
907.163086,476
907.279175,466
907.395264,456
907.511353,480
907.62738,476
907.743408,455
907.859497,488
907.975525,466
908.091553,494
908.207703,455
908.32373,479
908.439758,477
908.555786,464
908.671814,481
908.787842,467
908.90387,494
909.019775,472
909.135864,469
909.251892,457
909.367859,486
909.483826,482
909.599854,491
909.715881,487
909.831848,477
909.947815,460
910.063782,464
910.179749,479
910.295776,474
910.411743,488
910.527649,471
910.643616,482
910.759583,478
910.875488,492
910.991455,477
911.107361,470
911.223267,456
911.339294,479
911.4552,463
911.571106,479
911.687073,461
911.802979,465
911.918823,463
912.034729,473
912.150635,484
912.266602,472
912.382446,487
912.498352,453
912.614197,468
912.730103,490
912.846008,456
792.44574,1178
792.56488,1156
792.68396,1201
792.80304,1157
792.92218,1060
793.041199,1065
793.160339,1033
793.279419,1003
793.398499,1015
793.517578,954
793.636658,966
793.755737,977
793.874817,974
793.993896,912
794.112976,929
794.232056,869
794.351074,904
794.470215,861
794.589233,876
794.708313,836
794.827393,852
794.946411,814
795.065552,795
795.18457,803
795.303589,797
795.422668,797
795.541687,800
795.660767,794
795.779846,770
795.898865,756
796.017883,758
796.136963,763
796.255981,761
796.375061,741
796.49408,764
796.613037,756
796.732117,713
796.851135,711
796.970154,724
797.089233,728
797.208191,716
797.327271,706
797.446228,686
797.565186,706
797.684265,661
797.803223,736
797.922241,693
798.04126,687
798.160278,693
798.279297,677
798.398315,662
798.517273,702
798.636292,685
798.75531,661
798.874268,684
798.993286,672
799.112244,670
799.231323,657
799.350281,671
799.469238,687
799.588257,630
799.707153,673
799.826111,653
799.945129,668
800.064087,644
800.183044,638
800.302063,668
800.421021,644
800.539978,648
800.658936,640
800.777893,639
800.896912,643
801.015747,618
801.134705,643
801.253723,616
801.37262,629
801.491638,592
801.610535,620
801.729492,626
801.84845,635
801.967407,622
802.086243,616
802.205261,608
802.324158,603
802.443115,633
802.562073,589
802.680969,613
802.799927,633
802.918762,607
803.037659,603
803.156677,619
803.275574,619
803.39447,597
803.513428,604
803.632263,588
803.751221,613
803.870117,599
803.989014,597
804.107971,568
804.226746,595
804.345642,597
804.4646,632
804.583496,631
804.702393,585
804.821228,578
804.940125,606
805.059021,593
805.177917,598
805.296814,594
805.415649,587
805.534546,583
805.653442,582
805.772278,598
805.891113,578
806.01001,599
806.128906,593
806.247742,575
806.366577,569
806.485413,576
806.604309,597
806.723145,581
806.84198,589
806.960876,578
807.079712,576
807.198486,580
807.317383,581
807.436218,594
807.554993,591
807.673889,596
807.792725,584
807.91156,563
808.030396,571
808.14917,586
808.268005,592
808.386841,565
808.505676,574
808.624451,596
808.743286,585
808.862122,584
808.980896,605
809.099731,545
809.218506,598
809.337341,584
809.456116,572
809.57489,555
809.693726,588
809.8125,579
809.931274,567
810.050049,587
810.168884,581
810.287659,563
810.406372,570
810.525269,555
810.643982,577
810.762756,577
810.881531,589
811.000305,566
811.11908,592
811.237854,571
811.356567,589
811.475403,579
811.594116,596
811.71283,584
811.831604,591
811.950378,607
812.069153,578
812.187927,587
812.30658,589
812.425415,576
812.544128,611
812.662781,585
812.781616,582
812.900269,585
813.019043,575
813.137756,579
813.256531,583
813.375244,572
813.493896,561
813.612671,586
813.731384,562
813.850037,557
813.96875,558
814.087524,573
814.206238,574
814.324951,543
814.443604,563
814.562256,580
814.68103,558
814.799683,551
814.918335,578
815.037109,556
815.155762,592
815.274475,574
815.393188,574
815.511841,550
815.630554,570
815.749146,535
815.867859,567
815.986572,572
816.105164,565
816.223877,592
816.342529,576
816.461182,562
816.579895,563
816.698486,591
816.817139,576
816.935791,582
817.054504,596
817.173096,593
817.291748,591
817.4104,573
817.529053,556
817.647644,590
817.766235,551
817.884949,556
818.00354,562
818.122192,552
818.240845,553
818.359436,535
818.478088,566
818.59668,551
818.715271,545
818.833923,534
818.952515,536
819.071106,549
819.189758,532
819.30835,545
819.426941,539
819.545532,522
819.664124,525
819.782715,532
819.901306,524
820.019897,517
820.138489,522
820.25708,511
820.375671,538
820.494202,529
820.612732,518
820.731384,516
820.849915,525
820.968506,512
821.087097,530
821.205627,517
821.324158,514
821.442749,522
821.561279,510
821.679871,508
821.798401,527
821.916931,526
822.035461,540
822.154053,521
822.272583,539
822.391174,502
822.509583,516
822.628174,496
822.746704,528
822.865234,533
822.983765,496
823.102295,520
823.220825,511
823.339294,507
823.457825,517
823.576355,497
823.694824,517
823.813354,524
823.931885,519
824.050354,517
824.168884,499
824.287354,506
824.405823,522
824.524353,514
824.642822,528
824.761353,494
824.879822,518
824.998291,517
825.116699,519
825.235291,517
825.353699,503
825.472168,498
825.590637,491
825.709106,506
825.827576,492
825.946045,519
826.064453,522
826.182983,498
826.301392,509
826.4198,509
826.53833,489
826.656738,477
826.775208,513
826.893677,480
827.012024,512
827.130493,504
827.248962,519
827.36731,483
827.485779,512
827.604248,509
827.722595,493
827.841064,502
827.959412,479
828.077942,495
828.196289,509
828.314636,473
828.433105,478
828.551514,520
828.669861,503
828.78833,521
828.906677,503
829.025085,487
829.143433,507
829.261841,502
829.38031,492
829.498657,500
829.617004,502
829.735413,487
829.85376,485
829.972107,463
830.090515,494
830.208862,483
830.327209,504
830.445557,501
830.563904,469
830.682312,486
830.800659,503
830.919006,508
831.037354,502
831.155701,521
831.274048,523
831.392395,508
831.51062,512
831.629028,516
831.747314,496
831.865662,504
831.984009,511
832.102356,508
832.220642,512
832.338928,507
832.457275,519
832.575623,527
832.693909,511
832.812134,478
832.930481,511
833.048828,486
833.167114,510
833.2854,499
833.403687,516
833.521973,501
833.640259,514
833.758545,499
833.876831,480
833.995056,522
834.113281,492
834.231628,495
834.349915,511
834.468201,503
834.586426,517
834.704651,487
834.822998,497
834.941162,511
835.059448,510
835.177673,504
835.295959,507
835.414246,517
835.53241,506
835.650635,517
835.768921,498
835.887146,499
836.005371,510
836.123596,500
836.241821,491
836.360046,486
836.478271,517
836.596497,506
836.714722,496
836.832886,502
836.95105,520
837.069336,489
837.1875,499
837.305725,501
837.423889,520
837.542053,479
837.660339,513
837.778503,495
837.896667,485
838.014832,503
838.132996,499
838.25116,510
838.369385,499
838.487488,511
838.605713,488
838.723877,493
838.84198,534
838.960205,516
839.078308,508
839.196472,530
839.314636,501
839.4328,527
839.550964,514
839.669067,508
839.787231,525
839.905396,519
840.023499,537
840.141602,534
840.259766,528
840.377869,530
840.495972,526
840.614136,561
840.732239,543
840.850342,514
840.968445,527
841.086548,527
841.204651,561
841.322754,535
841.440918,549
841.55896,545
841.677002,534
841.795166,555
841.913208,557
842.031311,549
842.149353,552
842.267456,556
842.385498,537
842.503601,544
842.621643,528
842.739746,535
842.857788,562
842.97583,543
843.093933,560
843.211975,544
843.330017,522
843.44812,539
843.566101,557
843.684204,539
843.802246,538
843.920227,541
844.038269,531
844.156311,516
844.274292,549
844.392395,535
844.510376,534
844.628357,553
844.74646,521
844.864441,531
844.982422,535
845.100403,542
845.218384,530
845.336426,519
845.454468,535
845.572449,526
845.69043,534
845.808411,518
845.926453,543
846.044373,537
846.162354,510
846.280396,526
846.398315,533
846.516296,509
846.634216,534
846.752197,544
846.870178,537
846.988098,531
847.106079,548
847.22406,502
847.34198,539
847.4599,539
847.577881,513
847.695801,536
847.813782,548
847.931641,527
848.049561,522
848.167603,530
848.285461,530
848.403381,514
848.521362,550
848.639221,525
848.75708,514
848.875,548
848.99292,531
849.110901,532
849.22876,532
849.34668,528
849.464539,549
849.582458,565
849.700317,526
849.818176,532
849.936096,508
850.053955,553
850.171875,536
850.289673,549
850.407593,527
850.525452,523
850.643311,539
850.761169,532
850.878967,523
850.996887,516
851.114746,531
851.232544,534
851.350403,514
851.468262,497
851.58606,514
851.703979,536
851.821777,522
851.939636,533
852.057434,514
852.175232,521
852.293091,539
852.410889,541
852.528687,528
852.646545,540
852.764343,552
852.88208,553
852.999939,552
853.117676,549
853.235535,539
853.353271,537
853.471069,547
853.588928,518
853.706604,534
853.824402,528
853.9422,534
854.059998,532
854.177734,528
854.295532,531
854.413269,554
854.531006,526
854.648804,534
854.766541,525
854.884277,554
855.002014,545
855.119751,552
855.237549,555
855.355225,557
855.473022,537
855.590698,531
855.708435,571
855.826172,544
855.943848,519
856.061646,540
856.179321,538
856.296997,530
856.414795,536
856.53241,536
856.650085,544
856.767822,542
856.885559,559
857.003174,575
857.120911,568
857.238586,553
857.356201,549
857.473938,551
857.591614,549
857.709351,557
857.826965,545
857.944641,539
858.062317,549
858.179993,543
858.297668,550
858.415283,553
858.532959,539
858.650574,541
858.768188,550
858.885803,557
859.003479,536
859.121094,551
859.23877,547
859.356384,532
859.473999,546
859.591675,548
859.709229,534
859.826843,517
859.944458,535
860.062012,532
860.179626,523
860.297302,523
860.414856,541
860.532471,519
860.650024,518
860.767639,553
860.885193,524
861.002808,520
861.120361,517
861.237976,523
861.35553,532
861.473022,524
861.590698,520
861.708191,522
861.825745,521
861.943298,547
862.060852,497
862.178406,525
862.295959,516
862.413513,480
862.531006,509
862.64856,498
862.766113,501
862.883667,491
863.00116,504
863.118713,494
863.236206,488
863.353699,507
863.471252,516
863.588745,520
863.706177,507
863.82373,511
863.941162,511
864.058716,538
864.176208,514
864.29364,510
864.411194,506
864.528687,492
864.646118,493
864.763611,521
864.881042,505
864.998535,510
865.116028,505
865.233459,501
865.350891,492
865.468384,534
865.585754,502
865.703308,509
865.820679,518
865.938171,501
866.055542,496
866.173035,512
866.290466,489
866.407837,493
866.52533,505
866.6427,516
866.760071,522
866.877563,523
866.994934,506
867.112305,515
867.229736,516
867.347107,525
867.464539,517
867.58197,544
867.699341,515
867.81665,527
867.934082,508
868.051453,525
868.168823,528
868.286194,534
868.403564,510
868.520935,543
868.638306,520
868.755676,526
868.872986,523
868.990295,523
869.107727,533
869.225037,508
869.342346,496
869.459717,521
869.577026,526
869.694336,513
869.811707,520
869.929016,553
870.046326,535
870.163635,535
870.280945,540
870.398254,539
870.515564,552
870.632812,562
870.750183,555
870.867432,536
870.984741,538
871.102051,551
871.219299,557
871.336609,541
871.453918,562
871.571106,548
871.688416,554
871.805664,549
871.922852,555
872.040222,550
872.157471,531
872.274719,577
872.391968,568
872.509155,563
872.626465,527
872.743652,558
872.860962,543
872.978149,581
873.095337,541
873.212646,537
873.329834,549
873.44696,546
873.564209,537
873.681396,538
873.798645,531
873.915894,548
874.03302,534
874.150208,557
874.267456,541
874.384583,570
874.501831,537
874.618958,552
874.736145,534
874.853333,585
874.970459,548
875.087646,574
875.204834,518
875.32196,556
875.439148,559
875.556274,563
875.673401,561
875.790527,545
875.907715,536
876.024841,503
876.141968,536
876.259094,525
876.376282,528
876.493347,545
876.610474,551
876.7276,540
876.844727,527
876.961853,531
877.078918,545
877.195984,519
877.313171,524
877.430237,535
877.547302,527
877.664368,543
877.781433,531
877.898499,544
878.015625,528
878.13269,502
878.249695,521
878.366821,510
878.483887,507
878.600952,519
878.717957,523
878.834961,528
878.952087,524
879.069092,536
879.186157,501
879.303162,528
879.420227,499
879.537231,488
879.654236,510
879.77124,498
879.888306,486
880.005249,509
880.122314,494
880.239319,501
880.356323,500
880.473328,499
880.590271,469
880.707275,500
880.824341,510
880.941284,505
881.058228,484
881.175232,497
881.292236,499
881.40918,490
881.526123,478
881.643066,500
881.760071,492
881.877014,521
881.993958,514
882.11084,519
882.227783,490
882.344727,504
882.46167,496
882.578613,506
882.695618,486
882.812439,511
882.929382,500
883.046326,487
883.163208,500
883.280151,504
883.397034,482
883.513916,511
883.630798,515
883.747742,529
883.864563,505
883.981506,512
884.098389,501
884.21521,513
884.332153,524
884.448975,502
884.565796,513
884.682678,535
884.7995,540
884.916443,546
885.033264,542
885.150085,602
885.266968,594
885.383789,589
885.500671,591
885.617493,602
885.734314,607
885.851196,607
885.967896,595
886.084717,596
886.201599,614
886.318359,603
886.435181,604
886.552002,620
886.668762,568
886.785645,580
886.902344,578
887.019165,608
887.135925,574
887.252747,586
887.369446,572
887.486267,558
887.603027,539
887.719788,546
887.836548,529
887.953247,535
888.070068,526
888.186829,536
888.303528,526
888.420288,523
888.536987,528
888.653687,502
888.770447,488
888.887146,508
889.003967,498
889.120667,498
889.237305,479
889.354065,498
889.470703,478
889.587463,495
889.704163,487
889.820862,483
889.937561,473
890.054199,483
890.170837,468
890.287598,495
890.404236,498
890.520874,480
890.637634,480
890.754211,457
890.87085,480
890.987549,483
891.104187,483
891.220886,491
891.337463,472
891.454102,477
891.57074,468
891.687378,492
891.804077,482
891.920654,478
892.037231,488
892.15387,493
892.270447,485
892.387085,478
892.503723,495
892.6203,475
892.736877,476
892.853516,478
892.970032,471
893.08667,499
893.203186,493
893.319763,474
893.43634,480
893.552917,486
893.669556,491
893.786011,479
893.902588,479
894.019165,495
894.135681,488
894.252197,480
894.368835,489
894.485291,472
894.601868,495
894.718384,473
894.8349,462
894.951355,492
895.067932,479
895.184448,494
895.300964,485
895.417419,463
895.533936,480
895.650452,478
895.766907,486
895.883423,467
895.999878,464
896.116333,481
896.232849,461
896.349304,489
896.465759,483
896.582214,496
896.698669,482
896.815125,484
896.931641,470
897.048035,481
897.164551,479
897.280884,479
897.397339,475
897.513794,490
897.630249,485
897.746582,471
897.863098,489
897.979431,495
898.095886,474
898.212341,505
898.328674,485
898.445129,499
898.561462,484
898.677795,509
898.794312,495
898.910645,466
899.026978,476
899.143433,460
899.259766,495
899.37616,490
899.492493,472
899.608765,479
899.725159,499
899.841553,478
899.957947,469
900.07428,483
900.190552,471
900.306946,482
900.423157,487
900.53949,497
900.655884,467
900.772156,489
900.888489,482
901.004822,489
901.121033,490
901.237366,494
901.353699,491
901.46991,499
901.586304,494
901.702515,504
901.818787,516
901.93512,480
902.051331,498
902.167603,525
902.283875,533
902.400085,537
902.516418,534
902.632629,535
902.74884,558
902.865112,546
902.981384,542
903.097595,572
903.213867,547
903.330017,537
903.446289,534
903.5625,551
903.67865,534
903.794922,533
903.911072,522
904.027344,538
904.143494,517
904.259705,516
904.375916,539
904.492065,499
904.608215,485
904.724426,506
904.840576,510
904.956726,476
905.072876,514
905.189087,507
905.305176,488
905.421387,484
905.537537,466
905.653687,493
905.769775,503
905.885925,485
906.002014,466
906.118164,476
906.234314,485
906.350403,488
906.466492,486
906.582642,473
906.69873,491
906.814758,487
906.930908,463
907.046936,475
907.163086,459
907.279175,468
907.395264,492
907.511353,484
907.62738,458
907.743408,470
907.859497,478
907.975525,494
908.091553,474
908.207703,473
908.32373,461
908.439758,469
908.555786,471
908.671814,480
908.787842,471
908.90387,475
909.019775,483
909.135864,493
909.251892,496
909.367859,477
909.483826,470
909.599854,469
909.715881,472
909.831848,475
909.947815,478
910.063782,482
910.179749,474
910.295776,494
910.411743,478
910.527649,498
910.643616,477
910.759583,463
910.875488,482
910.991455,475
911.107361,487
911.223267,479
911.339294,473
911.4552,473
911.571106,449
911.687073,474
911.802979,454
911.918823,472
912.034729,474
912.150635,468
912.266602,471
912.382446,464
912.498352,488
912.614197,463
912.730103,471
912.846008,465
792.44574,1184
792.56488,1196
792.68396,1208
792.80304,1148
792.92218,1071
793.041199,1064
793.160339,1038
793.279419,1010
793.398499,995
793.517578,937
793.636658,952
793.755737,950
793.874817,944
793.993896,891
794.112976,896
794.232056,876
794.351074,882
794.470215,839
794.589233,902
794.708313,830
794.827393,853
794.946411,813
795.065552,832
795.18457,827
795.303589,816
795.422668,794
795.541687,769
795.660767,772
795.779846,792
795.898865,775
796.017883,765
796.136963,784
796.255981,718
796.375061,760
796.49408,749
796.613037,748
796.732117,719
796.851135,733
796.970154,709
797.089233,707
797.208191,694
797.327271,684
797.446228,662
797.565186,713
797.684265,683
797.803223,709
797.922241,677
798.04126,699
798.160278,692
798.279297,675
798.398315,652
798.517273,664
798.636292,681
798.75531,660
798.874268,652
798.993286,656
799.112244,667
799.231323,657
799.350281,660
799.469238,685
799.588257,675
799.707153,665
799.826111,657
799.945129,654
800.064087,628
800.183044,656
800.302063,644
800.421021,643
800.539978,627
800.658936,619
800.777893,616
800.896912,612
801.015747,641
801.134705,630
801.253723,649
801.37262,624
801.491638,632
801.610535,618
801.729492,602
801.84845,637
801.967407,628
802.086243,623
802.205261,599
802.324158,626
802.443115,610
802.562073,625
802.680969,622
802.799927,597
802.918762,607
803.037659,617
803.156677,570
803.275574,593
803.39447,608
803.513428,609
803.632263,607
803.751221,588
803.870117,607
803.989014,623
804.107971,585
804.226746,586
804.345642,603
804.4646,579
804.583496,599
804.702393,614
804.821228,580
804.940125,580
805.059021,604
805.177917,594
805.296814,597
805.415649,575
805.534546,583
805.653442,593
805.772278,580
805.891113,606
806.01001,602
806.128906,588
806.247742,615
806.366577,573
806.485413,590
806.604309,584
806.723145,567
806.84198,587
806.960876,593
807.079712,580
807.198486,589
807.317383,592
807.436218,580
807.554993,596
807.673889,586
807.792725,587
807.91156,598
808.030396,588
808.14917,567
808.268005,589
808.386841,563
808.505676,567
808.624451,581
808.743286,571
808.862122,583
808.980896,566
809.099731,577
809.218506,583
809.337341,544
809.456116,582
809.57489,589
809.693726,592
809.8125,569
809.931274,573
810.050049,569
810.168884,562
810.287659,577
810.406372,561
810.525269,547
810.643982,572
810.762756,568
810.881531,597
811.000305,589
811.11908,575
811.237854,572
811.356567,576
811.475403,584
811.594116,573
811.71283,578
811.831604,600
811.950378,577
812.069153,578
812.187927,588
812.30658,589
812.425415,584
812.544128,592
812.662781,583
812.781616,607
812.900269,578
813.019043,568
813.137756,562
813.256531,584
813.375244,558
813.493896,595
813.612671,571
813.731384,560
813.850037,562
813.96875,568
814.087524,565
814.206238,572
814.324951,576
814.443604,549
814.562256,581
814.68103,574
814.799683,565
814.918335,567
815.037109,549
815.155762,560
815.274475,533
815.393188,573
815.511841,546
815.630554,551
815.749146,560
815.867859,573
815.986572,567
816.105164,546
816.223877,557
816.342529,571
816.461182,582
816.579895,565
816.698486,569
816.817139,569
816.935791,578
817.054504,586
817.173096,597
817.291748,576
817.4104,579
817.529053,563
817.647644,559
817.766235,548
817.884949,563
818.00354,551
818.122192,527
818.240845,542
818.359436,551
818.478088,539
818.59668,557
818.715271,523
818.833923,532
818.952515,537
819.071106,534
819.189758,522
819.30835,539
819.426941,517
819.545532,544
819.664124,527
819.782715,529
819.901306,527
820.019897,532
820.138489,513
820.25708,517
820.375671,517
820.494202,530
820.612732,545
820.731384,517
820.849915,518
820.968506,509
821.087097,536
821.205627,513
821.324158,533
821.442749,521
821.561279,526
821.679871,511
821.798401,516
821.916931,513
822.035461,508
822.154053,511
822.272583,533
822.391174,512
822.509583,518
822.628174,496
822.746704,536
822.865234,534
822.983765,505
823.102295,512
823.220825,516
823.339294,516
823.457825,495
823.576355,504
823.694824,503
823.813354,524
823.931885,512
824.050354,493
824.168884,504
824.287354,509
824.405823,496
824.524353,510
824.642822,491
824.761353,505
824.879822,517
824.998291,523
825.116699,507
825.235291,526
825.353699,504
825.472168,511
825.590637,521
825.709106,513
825.827576,502
825.946045,516
826.064453,516
826.182983,489
826.301392,494
826.4198,507
826.53833,498
826.656738,505
826.775208,513
826.893677,495
827.012024,498
827.130493,499
827.248962,497
827.36731,496
827.485779,508
827.604248,524
827.722595,491
827.841064,494
827.959412,496
828.077942,493
828.196289,510
828.314636,488
828.433105,495
828.551514,500
828.669861,487
828.78833,512
828.906677,514
829.025085,503
829.143433,511
829.261841,495
829.38031,486
829.498657,478
829.617004,513
829.735413,509
829.85376,498
829.972107,486
830.090515,483
830.208862,502
830.327209,493
830.445557,469
830.563904,496
830.682312,505
830.800659,490
830.919006,502
831.037354,508
831.155701,525
831.274048,515
831.392395,491
831.51062,506
831.629028,464
831.747314,523
831.865662,497
831.984009,511
832.102356,489
832.220642,493
832.338928,507
832.457275,511
832.575623,501
832.693909,517
832.812134,490
832.930481,494
833.048828,502
833.167114,514
833.2854,489
833.403687,481
833.521973,507
833.640259,499
833.758545,519
833.876831,490
833.995056,524
834.113281,508
834.231628,489
834.349915,503
834.468201,506
834.586426,505
834.704651,493
834.822998,511
834.941162,489
835.059448,496
835.177673,517
835.295959,500
835.414246,504
835.53241,513
835.650635,498
835.768921,497
835.887146,491
836.005371,501
836.123596,494
836.241821,486
836.360046,510
836.478271,506
836.596497,493
836.714722,502
836.832886,507
836.95105,488
837.069336,497
837.1875,503
837.305725,491
837.423889,520
837.542053,501
837.660339,506
837.778503,493
837.896667,496
838.014832,502
838.132996,504
838.25116,523
838.369385,489
838.487488,485
838.605713,488
838.723877,495
838.84198,486
838.960205,525
839.078308,524
839.196472,532
839.314636,490
839.4328,514
839.550964,522
839.669067,530
839.787231,521
839.905396,527
840.023499,538
840.141602,520
840.259766,551
840.377869,538
840.495972,529
840.614136,533
840.732239,531
840.850342,527
840.968445,522
841.086548,540
841.204651,535
841.322754,541
841.440918,536
841.55896,544
841.677002,547
841.795166,546
841.913208,538
842.031311,562
842.149353,538
842.267456,543
842.385498,539
842.503601,553
842.621643,548
842.739746,547
842.857788,515
842.97583,548
843.093933,538
843.211975,557
843.330017,552
843.44812,539
843.566101,551
843.684204,569
843.802246,560
843.920227,524
844.038269,539
844.156311,534
844.274292,523
844.392395,531
844.510376,516
844.628357,535
844.74646,512
844.864441,515
844.982422,516
845.100403,535
845.218384,527
845.336426,508
845.454468,523
845.572449,516
845.69043,522
845.808411,525
845.926453,533
846.044373,515
846.162354,528
846.280396,515
846.398315,515
846.516296,542
846.634216,525
846.752197,522
846.870178,548
846.988098,532
847.106079,532
847.22406,534
847.34198,519
847.4599,521
847.577881,531
847.695801,539
847.813782,537
847.931641,534
848.049561,524
848.167603,527
848.285461,548
848.403381,531
848.521362,517
848.639221,538
848.75708,533
848.875,521
848.99292,553
849.110901,530
849.22876,560
849.34668,525
849.464539,530
849.582458,527
849.700317,558
849.818176,534
849.936096,536
850.053955,549
850.171875,535
850.289673,528
850.407593,530
850.525452,528
850.643311,527
850.761169,519
850.878967,520
850.996887,547
851.114746,533
851.232544,530
851.350403,525
851.468262,536
851.58606,515
851.703979,514
851.821777,519
851.939636,530
852.057434,522
852.175232,528
852.293091,518
852.410889,545
852.528687,538
852.646545,563
852.764343,555
852.88208,558
852.999939,529
853.117676,543
853.235535,526
853.353271,535
853.471069,533
853.588928,530
853.706604,525
853.824402,524
853.9422,551
854.059998,529
854.177734,526
854.295532,536
854.413269,520
854.531006,530
854.648804,554
854.766541,530
854.884277,539
855.002014,537
855.119751,538
855.237549,542
855.355225,555
855.473022,529
855.590698,541
855.708435,541
855.826172,553
855.943848,550
856.061646,549
856.179321,534
856.296997,550
856.414795,529
856.53241,544
856.650085,561
856.767822,547
856.885559,555
857.003174,549
857.120911,525
857.238586,537
857.356201,565
857.473938,552
857.591614,538
857.709351,543
857.826965,543
857.944641,522
858.062317,551
858.179993,557
858.297668,565
858.415283,535
858.532959,546
858.650574,553
858.768188,544
858.885803,540
859.003479,551
859.121094,559
859.23877,553
859.356384,534
859.473999,513
859.591675,536
859.709229,529
859.826843,520
859.944458,507
860.062012,536
860.179626,532
860.297302,539
860.414856,535
860.532471,514
860.650024,526
860.767639,519
860.885193,557
861.002808,515
861.120361,534
861.237976,539
861.35553,512
861.473022,522
861.590698,514
861.708191,513
861.825745,521
861.943298,538
862.060852,501
862.178406,505
862.295959,525
862.413513,513
862.531006,510
862.64856,502
862.766113,512
862.883667,507
863.00116,501
863.118713,511
863.236206,507
863.353699,503
863.471252,516
863.588745,529
863.706177,504
863.82373,522
863.941162,504
864.058716,505
864.176208,526
864.29364,507
864.411194,525
864.528687,516
864.646118,503
864.763611,498
864.881042,494
864.998535,499
865.116028,510
865.233459,490
865.350891,497
865.468384,521
865.585754,521
865.703308,511
865.820679,522
865.938171,520
866.055542,498
866.173035,511
866.290466,496
866.407837,506
866.52533,531
866.6427,507
866.760071,508
866.877563,527
866.994934,512
867.112305,514
867.229736,503
867.347107,525
867.464539,502
867.58197,504
867.699341,534
867.81665,513
867.934082,518
868.051453,534
868.168823,506
868.286194,509
868.403564,521
868.520935,519
868.638306,505
868.755676,513
868.872986,526
868.990295,519
869.107727,510
869.225037,519
869.342346,516
869.459717,531
869.577026,520
869.694336,534
869.811707,514
869.929016,529
870.046326,534
870.163635,554
870.280945,541
870.398254,541
870.515564,529
870.632812,536
870.750183,557
870.867432,554
870.984741,532
871.102051,558
871.219299,543
871.336609,575
871.453918,559
871.571106,540
871.688416,542
871.805664,549
871.922852,535
872.040222,557
872.157471,570
872.274719,549
872.391968,560
872.509155,565
872.626465,533
872.743652,556
872.860962,548
872.978149,567
873.095337,549
873.212646,538
873.329834,574
873.44696,548
873.564209,556
873.681396,529
873.798645,543
873.915894,541
874.03302,559
874.150208,552
874.267456,565
874.384583,537
874.501831,539
874.618958,565
874.736145,550
874.853333,552
874.970459,552
875.087646,564
875.204834,531
875.32196,562
875.439148,563
875.556274,576
875.673401,526
875.790527,539
875.907715,538
876.024841,538
876.141968,530
876.259094,537
876.376282,515
876.493347,512
876.610474,529
876.7276,554
876.844727,538
876.961853,527
877.078918,523
877.195984,518
877.313171,538
877.430237,543
877.547302,527
877.664368,515
877.781433,531
877.898499,529
878.015625,521
878.13269,531
878.249695,542
878.366821,527
878.483887,527
878.600952,528
878.717957,522
878.834961,529
878.952087,499
879.069092,535
879.186157,527
879.303162,500
879.420227,517
879.537231,510
879.654236,501
879.77124,503
879.888306,492
880.005249,498
880.122314,502
880.239319,515
880.356323,508
880.473328,502
880.590271,486
880.707275,489
880.824341,496
880.941284,487
881.058228,482
881.175232,504
881.292236,505
881.40918,515
881.526123,484
881.643066,511
881.760071,491
881.877014,487
881.993958,505
882.11084,498
882.227783,482
882.344727,511
882.46167,501
882.578613,507
882.695618,501
882.812439,503
882.929382,503
883.046326,478
883.163208,516
883.280151,486
883.397034,492
883.513916,512
883.630798,492
883.747742,531
883.864563,525
883.981506,506
884.098389,504
884.21521,512
884.332153,513
884.448975,529
884.565796,536
884.682678,563
884.7995,539
884.916443,556
885.033264,566
885.150085,590
885.266968,590
885.383789,610
885.500671,592
885.617493,632
885.734314,591
885.851196,623
885.967896,606
886.084717,598
886.201599,617
886.318359,590
886.435181,613
886.552002,587
886.668762,586
886.785645,595
886.902344,575
887.019165,591
887.135925,571
887.252747,565
887.369446,572
887.486267,571
887.603027,530
887.719788,536
887.836548,538
887.953247,533
888.070068,541
888.186829,544
888.303528,524
888.420288,519
888.536987,516
888.653687,523
888.770447,492
888.887146,500
889.003967,480
889.120667,489
889.237305,494
889.354065,488
889.470703,469
889.587463,486
889.704163,485
889.820862,479
889.937561,477
890.054199,469
890.170837,476
890.287598,471
890.404236,474
890.520874,468
890.637634,476
890.754211,494
890.87085,479
890.987549,478
891.104187,496
891.220886,486
891.337463,494
891.454102,496
891.57074,465
891.687378,502
891.804077,487
891.920654,482
892.037231,466
892.15387,492
892.270447,498
892.387085,481
892.503723,488
892.6203,498
892.736877,477
892.853516,487
892.970032,492
893.08667,502
893.203186,476
893.319763,488
893.43634,477
893.552917,489
893.669556,486
893.786011,488
893.902588,476
894.019165,491
894.135681,486
894.252197,504
894.368835,489
894.485291,475
894.601868,490
894.718384,482
894.8349,480
894.951355,478
895.067932,488
895.184448,482
895.300964,491
895.417419,475
895.533936,473
895.650452,452
895.766907,476
895.883423,491
895.999878,478
896.116333,489
896.232849,473
896.349304,476
896.465759,476
896.582214,470
896.698669,474
896.815125,491
896.931641,487
897.048035,511
897.164551,499
897.280884,493
897.397339,444
897.513794,483
897.630249,470
897.746582,489
897.863098,472
897.979431,473
898.095886,485
898.212341,496
898.328674,474
898.445129,497
898.561462,487
898.677795,474
898.794312,488
898.910645,503
899.026978,484
899.143433,496
899.259766,498
899.37616,494
899.492493,496
899.608765,488
899.725159,487
899.841553,491
899.957947,495
900.07428,473
900.190552,486
900.306946,484
900.423157,493
900.53949,489
900.655884,487
900.772156,500
900.888489,485
901.004822,472
901.121033,484
901.237366,504
901.353699,501
901.46991,502
901.586304,500
901.702515,496
901.818787,509
901.93512,511
902.051331,515
902.167603,521
902.283875,527
902.400085,530
902.516418,537
902.632629,541
902.74884,555
902.865112,557
902.981384,558
903.097595,556
903.213867,557
903.330017,546
903.446289,526
903.5625,537
903.67865,504
903.794922,527
903.911072,519
904.027344,528
904.143494,521
904.259705,519
904.375916,496
904.492065,501
904.608215,505
904.724426,518
904.840576,492
904.956726,490
905.072876,497
905.189087,481
905.305176,517
905.421387,496
905.537537,490
905.653687,499
905.769775,452
905.885925,464
906.002014,478
906.118164,470
906.234314,486
906.350403,491
906.466492,476
906.582642,479
906.69873,458
906.814758,474
906.930908,493
907.046936,495
907.163086,457
907.279175,476
907.395264,479
907.511353,456
907.62738,465
907.743408,487
907.859497,477
907.975525,461
908.091553,453
908.207703,486
908.32373,460
908.439758,471
908.555786,474
908.671814,457
908.787842,484
908.90387,476
909.019775,470
909.135864,464
909.251892,487
909.367859,469
909.483826,475
909.599854,488
909.715881,489
909.831848,479
909.947815,493
910.063782,479
910.179749,486
910.295776,489
910.411743,470
910.527649,495
910.643616,487
910.759583,461
910.875488,489
910.991455,498
911.107361,472
911.223267,483
911.339294,463
911.4552,472
911.571106,466
911.687073,486
911.802979,471
911.918823,461
912.034729,459
912.150635,454
912.266602,473
912.382446,489
912.498352,483
912.614197,461
912.730103,461
912.846008,492
