792.44574,832
792.56488,857
792.68396,886
792.80304,867
792.92218,789
793.041199,766
793.160339,746
793.279419,788
793.398499,739
793.517578,723
793.636658,721
793.755737,752
793.874817,736
793.993896,720
794.112976,688
794.232056,682
794.351074,676
794.470215,698
794.589233,698
794.708313,680
794.827393,681
794.946411,673
795.065552,668
795.18457,668
795.303589,676
795.422668,643
795.541687,654
795.660767,650
795.779846,637
795.898865,638
796.017883,621
796.136963,628
796.255981,613
796.375061,639
796.49408,583
796.613037,629
796.732117,634
796.851135,606
796.970154,571
797.089233,589
797.208191,591
797.327271,575
797.446228,566
797.565186,573
797.684265,575
797.803223,593
797.922241,566
798.04126,588
798.160278,574
798.279297,568
798.398315,577
798.517273,572
798.636292,583
798.75531,571
798.874268,610
798.993286,577
799.112244,563
799.231323,575
799.350281,571
799.469238,542
799.588257,580
799.707153,554
799.826111,579
799.945129,580
800.064087,550
800.183044,563
800.302063,564
800.421021,571
800.539978,567
800.658936,551
800.777893,565
800.896912,551
801.015747,553
801.134705,562
801.253723,564
801.37262,533
801.491638,548
801.610535,543
801.729492,542
801.84845,525
801.967407,554
802.086243,562
802.205261,531
802.324158,546
802.443115,538
802.562073,523
802.680969,528
802.799927,527
802.918762,531
803.037659,509
803.156677,542
803.275574,510
803.39447,535
803.513428,515
803.632263,520
803.751221,515
803.870117,539
803.989014,538
804.107971,542
804.226746,510
804.345642,531
804.4646,523
804.583496,533
804.702393,518
804.821228,549
804.940125,538
805.059021,537
805.177917,532
805.296814,524
805.415649,508
805.534546,545
805.653442,523
805.772278,537
805.891113,513
806.01001,508
806.128906,521
806.247742,537
806.366577,521
806.485413,538
806.604309,515
806.723145,527
806.84198,522
806.960876,513
807.079712,525
807.198486,514
807.317383,505
807.436218,525
807.554993,509
807.673889,542
807.792725,501
807.91156,528
808.030396,523
808.14917,513
808.268005,525
808.386841,510
808.505676,508
808.624451,538
808.743286,507
808.862122,508
808.980896,530
809.099731,533
809.218506,518
809.337341,523
809.456116,507
809.57489,507
809.693726,516
809.8125,503
809.931274,519
810.050049,515
810.168884,502
810.287659,499
810.406372,507
810.525269,499
810.643982,537
810.762756,526
810.881531,504
811.000305,519
811.11908,516
811.237854,497
811.356567,492
811.475403,515
811.594116,502
811.71283,519
811.831604,503
811.950378,529
812.069153,533
812.187927,513
812.30658,536
812.425415,537
812.544128,518
812.662781,521
812.781616,500
812.900269,514
813.019043,507
813.137756,522
813.256531,500
813.375244,503
813.493896,494
813.612671,507
813.731384,510
813.850037,524
813.96875,511
814.087524,527
814.206238,500
814.324951,503
814.443604,514
814.562256,493
814.68103,492
814.799683,518
814.918335,512
815.037109,521
815.155762,510
815.274475,517
815.393188,492
815.511841,509
815.630554,505
815.749146,510
815.867859,486
815.986572,504
816.105164,494
816.223877,498
816.342529,510
816.461182,519
816.579895,485
816.698486,516
816.817139,497
816.935791,491
817.054504,510
817.173096,513
817.291748,512
817.4104,502
817.529053,505
817.647644,519
817.766235,502
817.884949,515
818.00354,492
818.122192,512
818.240845,485
818.359436,482
818.478088,496
818.59668,514
818.715271,500
818.833923,509
818.952515,494
819.071106,487
819.189758,497
819.30835,492
819.426941,481
819.545532,496
819.664124,482
819.782715,504
819.901306,464
820.019897,494
820.138489,483
820.25708,497
820.375671,496
820.494202,481
820.612732,497
820.731384,487
820.849915,476
820.968506,490
821.087097,483
821.205627,470
821.324158,471
821.442749,497
821.561279,502
821.679871,487
821.798401,501
821.916931,480
822.035461,475
822.154053,490
822.272583,479
822.391174,483
822.509583,482
822.628174,478
822.746704,480
822.865234,471
822.983765,471
823.102295,495
823.220825,467
823.339294,466
823.457825,498
823.576355,470
823.694824,473
823.813354,475
823.931885,492
824.050354,490
824.168884,486
824.287354,473
824.405823,482
824.524353,486
824.642822,496
824.761353,467
824.879822,490
824.998291,473
825.116699,487
825.235291,486
825.353699,485
825.472168,501
825.590637,469
825.709106,472
825.827576,470
825.946045,480
826.064453,495
826.182983,464
826.301392,478
826.4198,484
826.53833,470
826.656738,471
826.775208,488
826.893677,481
827.012024,470
827.130493,478
827.248962,486
827.36731,501
827.485779,474
827.604248,473
827.722595,477
827.841064,477
827.959412,482
828.077942,460
828.196289,494
828.314636,477
828.433105,471
828.551514,477
828.669861,487
828.78833,478
828.906677,483
829.025085,473
829.143433,470
829.261841,476
829.38031,467
829.498657,490
829.617004,488
829.735413,475
829.85376,493
829.972107,481
830.090515,467
830.208862,469
830.327209,453
830.445557,473
830.563904,476
830.682312,488
830.800659,470
830.919006,486
831.037354,472
831.155701,487
831.274048,479
831.392395,481
831.51062,507
831.629028,474
831.747314,449
831.865662,474
831.984009,472
832.102356,488
832.220642,490
832.338928,489
832.457275,480
832.575623,466
832.693909,462
832.812134,471
832.930481,495
833.048828,465
833.167114,483
833.2854,478
833.403687,481
833.521973,491
833.640259,473
833.758545,461
833.876831,482
833.995056,488
834.113281,465
834.231628,485
834.349915,477
834.468201,477
834.586426,496
834.704651,472
834.822998,470
834.941162,488
835.059448,487
835.177673,487
835.295959,471
835.414246,474
835.53241,484
835.650635,482
835.768921,474
835.887146,465
836.005371,467
836.123596,501
836.241821,479
836.360046,483
836.478271,479
836.596497,477
836.714722,464
836.832886,471
836.95105,483
837.069336,474
837.1875,469
837.305725,481
837.423889,471
837.542053,479
837.660339,460
837.778503,463
837.896667,465
838.014832,471
838.132996,482
838.25116,494
838.369385,475
838.487488,496
838.605713,480
838.723877,487
838.84198,467
838.960205,488
839.078308,474
839.196472,481
839.314636,495
839.4328,480
839.550964,480
839.669067,483
839.787231,489
839.905396,479
840.023499,470
840.141602,477
840.259766,480
840.377869,493
840.495972,493
840.614136,516
840.732239,483
840.850342,499
840.968445,484
841.086548,491
841.204651,502
841.322754,504
841.440918,504
841.55896,501
841.677002,501
841.795166,513
841.913208,489
842.031311,500
842.149353,484
842.267456,492
842.385498,499
842.503601,507
842.621643,489
842.739746,487
842.857788,502
842.97583,494
843.093933,485
843.211975,514
843.330017,482
843.44812,482
843.566101,487
843.684204,494
843.802246,508
843.920227,492
844.038269,493
844.156311,494
844.274292,493
844.392395,502
844.510376,473
844.628357,487
844.74646,489
844.864441,484
844.982422,492
845.100403,482
845.218384,470
845.336426,500
845.454468,493
845.572449,493
845.69043,496
845.808411,466
845.926453,486
846.044373,493
846.162354,482
846.280396,493
846.398315,480
846.516296,495
846.634216,486
846.752197,484
846.870178,481
846.988098,478
847.106079,495
847.22406,492
847.34198,494
847.4599,484
847.577881,473
847.695801,481
847.813782,468
847.931641,470
848.049561,475
848.167603,496
848.285461,493
848.403381,499
848.521362,476
848.639221,504
848.75708,486
848.875,497
848.99292,502
849.110901,487
849.22876,473
849.34668,498
849.464539,466
849.582458,484
849.700317,495
849.818176,501
849.936096,469
850.053955,495
850.171875,486
850.289673,501
850.407593,486
850.525452,497
850.643311,494
850.761169,493
850.878967,487
850.996887,510
851.114746,475
851.232544,485
851.350403,487
851.468262,470
851.58606,490
851.703979,475
851.821777,498
851.939636,471
852.057434,487
852.175232,491
852.293091,498
852.410889,501
852.528687,509
852.646545,536
852.764343,491
852.88208,522
852.999939,505
853.117676,509
853.235535,487
853.353271,490
853.471069,494
853.588928,497
853.706604,481
853.824402,470
853.9422,478
854.059998,469
854.177734,487
854.295532,475
854.413269,485
854.531006,465
854.648804,482
854.766541,466
854.884277,482
855.002014,480
855.119751,487
855.237549,482
855.355225,489
855.473022,485
855.590698,494
855.708435,478
855.826172,489
855.943848,494
856.061646,503
856.179321,503
856.296997,490
856.414795,493
856.53241,486
856.650085,499
856.767822,491
856.885559,503
857.003174,497
857.120911,513
857.238586,493
857.356201,511
857.473938,495
857.591614,483
857.709351,493
857.826965,489
857.944641,503
858.062317,528
858.179993,484
858.297668,492
858.415283,487
858.532959,503
858.650574,494
858.768188,490
858.885803,500
859.003479,492
859.121094,488
859.23877,484
859.356384,495
859.473999,512
859.591675,473
859.709229,501
859.826843,484
859.944458,485
860.062012,493
860.179626,486
860.297302,480
860.414856,493
860.532471,487
860.650024,476
860.767639,492
860.885193,485
861.002808,478
861.120361,514
861.237976,508
861.35553,502
861.473022,492
861.590698,487
861.708191,504
861.825745,486
861.943298,499
862.060852,451
862.178406,468
862.295959,495
862.413513,482
862.531006,510
862.64856,476
862.766113,466
862.883667,464
863.00116,466
863.118713,475
863.236206,481
863.353699,472
863.471252,472
863.588745,466
863.706177,487
863.82373,479
863.941162,475
864.058716,461
864.176208,472
864.29364,460
864.411194,487
864.528687,451
864.646118,457
864.763611,454
864.881042,458
864.998535,451
865.116028,473
865.233459,495
865.350891,484
865.468384,457
865.585754,476
865.703308,456
865.820679,480
865.938171,449
866.055542,473
866.173035,469
866.290466,466
866.407837,479
866.52533,477
866.6427,470
866.760071,502
866.877563,466
866.994934,476
867.112305,470
867.229736,480
867.347107,480
867.464539,477
867.58197,475
867.699341,486
867.81665,481
867.934082,475
868.051453,477
868.168823,480
868.286194,486
868.403564,480
868.520935,484
868.638306,485
868.755676,446
868.872986,491
868.990295,481
869.107727,488
869.225037,479
869.342346,490
869.459717,483
869.577026,501
869.694336,482
869.811707,507
869.929016,480
870.046326,499
870.163635,492
870.280945,488
870.398254,494
870.515564,497
870.632812,481
870.750183,492
870.867432,499
870.984741,502
871.102051,488
871.219299,501
871.336609,501
871.453918,513
871.571106,493
871.688416,499
871.805664,485
871.922852,480
872.040222,512
872.157471,506
872.274719,524
872.391968,519
872.509155,505
872.626465,498
872.743652,484
872.860962,509
872.978149,492
873.095337,504
873.212646,514
873.329834,500
873.44696,497
873.564209,499
873.681396,504
873.798645,512
873.915894,495
874.03302,508
874.150208,495
874.267456,495
874.384583,489
874.501831,485
874.618958,500
874.736145,501
874.853333,503
874.970459,527
875.087646,506
875.204834,493
875.32196,497
875.439148,499
875.556274,479
875.673401,483
875.790527,488
875.907715,495
876.024841,480
876.141968,484
876.259094,514
876.376282,523
876.493347,484
876.610474,476
876.7276,495
876.844727,505
876.961853,491
877.078918,492
877.195984,482
877.313171,481
877.430237,488
877.547302,496
877.664368,472
877.781433,487
877.898499,479
878.015625,481
878.13269,506
878.249695,476
878.366821,475
878.483887,470
878.600952,491
878.717957,461
878.834961,493
878.952087,471
879.069092,466
879.186157,484
879.303162,448
879.420227,493
879.537231,449
879.654236,487
879.77124,490
879.888306,495
880.005249,486
880.122314,475
880.239319,481
880.356323,457
880.473328,465
880.590271,486
880.707275,457
880.824341,472
880.941284,470
881.058228,472
881.175232,473
881.292236,478
881.40918,485
881.526123,456
881.643066,465
881.760071,477
881.877014,450
881.993958,478
882.11084,468
882.227783,462
882.344727,471
882.46167,472
882.578613,467
882.695618,475
882.812439,474
882.929382,466
883.046326,455
883.163208,449
883.280151,473
883.397034,472
883.513916,495
883.630798,485
883.747742,470
883.864563,470
883.981506,484
884.098389,490
884.21521,464
884.332153,495
884.448975,494
884.565796,505
884.682678,500
884.7995,507
884.916443,504
885.033264,508
885.150085,524
885.266968,523
885.383789,528
885.500671,515
885.617493,523
885.734314,529
885.851196,555
885.967896,519
886.084717,502
886.201599,533
886.318359,503
886.435181,520
886.552002,517
886.668762,537
886.785645,507
886.902344,531
887.019165,519
887.135925,506
887.252747,511
887.369446,503
887.486267,520
887.603027,497
887.719788,507
887.836548,511
887.953247,476
888.070068,487
888.186829,486
888.303528,476
888.420288,485
888.536987,456
888.653687,477
888.770447,461
888.887146,442
889.003967,460
889.120667,473
889.237305,476
889.354065,454
889.470703,480
889.587463,472
889.704163,481
889.820862,469
889.937561,469
890.054199,475
890.170837,458
890.287598,438
890.404236,480
890.520874,466
890.637634,476
890.754211,456
890.87085,463
890.987549,461
891.104187,478
891.220886,472
891.337463,480
891.454102,443
891.57074,474
891.687378,465
891.804077,471
891.920654,473
892.037231,471
892.15387,448
892.270447,487
892.387085,456
892.503723,468
892.6203,451
892.736877,494
892.853516,470
892.970032,468
893.08667,462
893.203186,466
893.319763,469
893.43634,484
893.552917,454
893.669556,470
893.786011,449
893.902588,469
894.019165,477
894.135681,468
894.252197,451
894.368835,483
894.485291,473
894.601868,465
894.718384,478
894.8349,470
894.951355,469
895.067932,456
895.184448,463
895.300964,469
895.417419,465
895.533936,448
895.650452,465
895.766907,444
895.883423,477
895.999878,478
896.116333,474
896.232849,471
896.349304,453
896.465759,460
896.582214,461
896.698669,481
896.815125,484
896.931641,491
897.048035,461
897.164551,470
897.280884,462
897.397339,464
897.513794,475
897.630249,449
897.746582,470
897.863098,462
897.979431,485
898.095886,451
898.212341,459
898.328674,465
898.445129,475
898.561462,501
898.677795,447
898.794312,469
898.910645,462
899.026978,472
899.143433,462
899.259766,465
899.37616,476
899.492493,462
899.608765,455
899.725159,486
899.841553,455
899.957947,470
900.07428,477
900.190552,463
900.306946,461
900.423157,488
900.53949,469
900.655884,479
900.772156,485
900.888489,470
901.004822,448
901.121033,469
901.237366,464
901.353699,472
901.46991,475
901.586304,475
901.702515,473
901.818787,486
901.93512,506
902.051331,494
902.167603,468
902.283875,493
902.400085,474
902.516418,507
902.632629,510
902.74884,495
902.865112,511
902.981384,511
903.097595,535
903.213867,517
903.330017,493
903.446289,501
903.5625,501
903.67865,514
903.794922,492
903.911072,491
904.027344,488
904.143494,483
904.259705,488
904.375916,493
904.492065,475
904.608215,480
904.724426,487
904.840576,479
904.956726,479
905.072876,494
905.189087,478
905.305176,505
905.421387,458
905.537537,498
905.653687,450
905.769775,460
905.885925,473
906.002014,487
906.118164,466
906.234314,462
906.350403,479
906.466492,477
906.582642,472
906.69873,481
906.814758,449
906.930908,467
907.046936,460
907.163086,464
907.279175,470
907.395264,454
907.511353,471
907.62738,465
907.743408,448
907.859497,467
907.975525,457
908.091553,452
908.207703,473
908.32373,484
908.439758,453
908.555786,499
908.671814,459
908.787842,470
908.90387,456
909.019775,494
909.135864,480
909.251892,466
909.367859,482
909.483826,473
909.599854,466
909.715881,477
909.831848,470
909.947815,469
910.063782,452
910.179749,446
910.295776,470
910.411743,457
910.527649,489
910.643616,464
910.759583,462
910.875488,476
910.991455,464
911.107361,471
911.223267,468
911.339294,469
911.4552,453
911.571106,442
911.687073,477
911.802979,472
911.918823,467
912.034729,472
912.150635,444
912.266602,454
912.382446,457
912.498352,472
912.614197,440
912.730103,459
912.846008,460
792.44574,866
792.56488,855
792.68396,911
792.80304,841
792.92218,791
793.041199,770
793.160339,772
793.279419,774
793.398499,756
793.517578,697
793.636658,747
793.755737,730
793.874817,730
793.993896,734
794.112976,721
794.232056,699
794.351074,675
794.470215,677
794.589233,681
794.708313,653
794.827393,652
794.946411,648
795.065552,681
795.18457,652
795.303589,661
795.422668,659
795.541687,652
795.660767,620
795.779846,646
795.898865,636
796.017883,647
796.136963,634
796.255981,622
796.375061,623
796.49408,611
796.613037,621
796.732117,606
796.851135,603
796.970154,612
797.089233,586
797.208191,604
797.327271,603
797.446228,594
797.565186,575
797.684265,607
797.803223,603
797.922241,567
798.04126,573
798.160278,586
798.279297,576
798.398315,561
798.517273,598
798.636292,566
798.75531,576
798.874268,578
798.993286,562
799.112244,555
799.231323,585
799.350281,586
799.469238,567
799.588257,552
799.707153,566
799.826111,538
799.945129,571
800.064087,570
800.183044,579
800.302063,567
800.421021,559
800.539978,558
800.658936,563
800.777893,572
800.896912,556
801.015747,551
801.134705,561
801.253723,533
801.37262,547
801.491638,545
801.610535,538
801.729492,555
801.84845,535
801.967407,557
802.086243,548
802.205261,550
802.324158,551
802.443115,530
802.562073,547
802.680969,564
802.799927,540
802.918762,544
803.037659,548
803.156677,524
803.275574,527
803.39447,529
803.513428,555
803.632263,538
803.751221,522
803.870117,551
803.989014,539
804.107971,546
804.226746,547
804.345642,529
804.4646,526
804.583496,526
804.702393,549
804.821228,540
804.940125,537
805.059021,515
805.177917,537
805.296814,547
805.415649,528
805.534546,548
805.653442,533
805.772278,527
805.891113,529
806.01001,521
806.128906,532
806.247742,530
806.366577,516
806.485413,533
806.604309,536
806.723145,520
806.84198,538
806.960876,546
807.079712,530
807.198486,530
807.317383,526
807.436218,499
807.554993,514
807.673889,537
807.792725,531
807.91156,517
808.030396,533
808.14917,514
808.268005,513
808.386841,507
808.505676,527
808.624451,514
808.743286,520
808.862122,515
808.980896,513
809.099731,514
809.218506,519
809.337341,495
809.456116,530
809.57489,516
809.693726,509
809.8125,523
809.931274,502
810.050049,538
810.168884,522
810.287659,514
810.406372,495
810.525269,511
810.643982,511
810.762756,540
810.881531,507
811.000305,505
811.11908,512
811.237854,515
811.356567,503
811.475403,510
811.594116,491
811.71283,518
811.831604,525
811.950378,509
812.069153,519
812.187927,516
812.30658,527
812.425415,516
812.544128,534
812.662781,503
812.781616,517
812.900269,513
813.019043,518
813.137756,510
813.256531,519
813.375244,522
813.493896,508
813.612671,553
813.731384,518
813.850037,505
813.96875,507
814.087524,503
814.206238,505
814.324951,505
814.443604,481
814.562256,518
814.68103,495
814.799683,513
814.918335,499
815.037109,506
815.155762,503
815.274475,498
815.393188,496
815.511841,520
815.630554,503
815.749146,505
815.867859,526
815.986572,502
816.105164,509
816.223877,492
816.342529,506
816.461182,502
816.579895,505
816.698486,523
816.817139,496
816.935791,519
817.054504,519
817.173096,532
817.291748,539
817.4104,521
817.529053,507
817.647644,535
817.766235,505
817.884949,518
818.00354,512
818.122192,516
818.240845,489
818.359436,503
818.478088,483
818.59668,493
818.715271,516
818.833923,519
818.952515,503
819.071106,504
819.189758,506
819.30835,482
819.426941,497
819.545532,500
819.664124,499
819.782715,473
819.901306,501
820.019897,500
820.138489,502
820.25708,499
820.375671,479
820.494202,489
820.612732,492
820.731384,493
820.849915,508
820.968506,484
821.087097,493
821.205627,483
821.324158,496
821.442749,457
821.561279,497
821.679871,479
821.798401,487
821.916931,478
822.035461,495
822.154053,497
822.272583,478
822.391174,481
822.509583,494
822.628174,477
822.746704,477
822.865234,475
822.983765,473
823.102295,453
823.220825,484
823.339294,474
823.457825,499
823.576355,465
823.694824,482
823.813354,478
823.931885,479
824.050354,515
824.168884,487
824.287354,493
824.405823,452
824.524353,482
824.642822,486
824.761353,499
824.879822,487
824.998291,478
825.116699,487
825.235291,494
825.353699,491
825.472168,488
825.590637,484
825.709106,480
825.827576,497
825.946045,490
826.064453,460
826.182983,458
826.301392,472
826.4198,463
826.53833,478
826.656738,475
826.775208,476
826.893677,487
827.012024,475
827.130493,469
827.248962,476
827.36731,475
827.485779,460
827.604248,483
827.722595,493
827.841064,482
827.959412,483
828.077942,462
828.196289,467
828.314636,482
828.433105,502
828.551514,475
828.669861,452
828.78833,485
828.906677,473
829.025085,469
829.143433,468
829.261841,479
829.38031,461
829.498657,485
829.617004,488
829.735413,467
829.85376,473
829.972107,484
830.090515,478
830.208862,484
830.327209,482
830.445557,468
830.563904,491
830.682312,466
830.800659,489
830.919006,474
831.037354,485
831.155701,492
831.274048,486
831.392395,469
831.51062,497
831.629028,488
831.747314,490
831.865662,486
831.984009,475
832.102356,486
832.220642,471
832.338928,480
832.457275,478
832.575623,488
832.693909,489
832.812134,475
832.930481,489
833.048828,472
833.167114,461
833.2854,474
833.403687,469
833.521973,474
833.640259,470
833.758545,484
833.876831,484
833.995056,470
834.113281,486
834.231628,494
834.349915,482
834.468201,467
834.586426,479
834.704651,483
834.822998,473
834.941162,476
835.059448,483
835.177673,498
835.295959,475
835.414246,478
835.53241,486
835.650635,478
835.768921,480
835.887146,487
836.005371,482
836.123596,467
836.241821,469
836.360046,468
836.478271,498
836.596497,466
836.714722,466
836.832886,460
836.95105,469
837.069336,480
837.1875,473
837.305725,466
837.423889,480
837.542053,454
837.660339,467
837.778503,482
837.896667,476
838.014832,457
838.132996,477
838.25116,484
838.369385,503
838.487488,474
838.605713,493
838.723877,458
838.84198,466
838.960205,477
839.078308,485
839.196472,466
839.314636,472
839.4328,494
839.550964,479
839.669067,476
839.787231,494
839.905396,502
840.023499,481
840.141602,491
840.259766,488
840.377869,495
840.495972,485
840.614136,498
840.732239,490
840.850342,495
840.968445,490
841.086548,502
841.204651,502
841.322754,492
841.440918,497
841.55896,485
841.677002,492
841.795166,502
841.913208,496
842.031311,496
842.149353,509
842.267456,529
842.385498,486
842.503601,484
842.621643,500
842.739746,490
842.857788,492
842.97583,484
843.093933,501
843.211975,497
843.330017,487
843.44812,508
843.566101,483
843.684204,483
843.802246,500
843.920227,486
844.038269,496
844.156311,485
844.274292,516
844.392395,495
844.510376,490
844.628357,482
844.74646,494
844.864441,494
844.982422,518
845.100403,475
845.218384,462
845.336426,510
845.454468,466
845.572449,496
845.69043,483
845.808411,485
845.926453,490
846.044373,491
846.162354,484
846.280396,478
846.398315,472
846.516296,487
846.634216,489
846.752197,504
846.870178,496
846.988098,462
847.106079,501
847.22406,478
847.34198,479
847.4599,498
847.577881,487
847.695801,479
847.813782,505
847.931641,485
848.049561,502
848.167603,498
848.285461,483
848.403381,493
848.521362,496
848.639221,511
848.75708,489
848.875,483
848.99292,515
849.110901,482
849.22876,499
849.34668,475
849.464539,484
849.582458,502
849.700317,493
849.818176,498
849.936096,502
850.053955,472
850.171875,490
850.289673,473
850.407593,509
850.525452,487
850.643311,485
850.761169,499
850.878967,493
850.996887,485
851.114746,476
851.232544,499
851.350403,466
851.468262,479
851.58606,493
851.703979,491
851.821777,485
851.939636,492
852.057434,481
852.175232,498
852.293091,478
852.410889,490
852.528687,495
852.646545,499
852.764343,522
852.88208,502
852.999939,505
853.117676,503
853.235535,506
853.353271,483
853.471069,481
853.588928,506
853.706604,497
853.824402,481
853.9422,488
854.059998,476
854.177734,490
854.295532,464
854.413269,496
854.531006,468
854.648804,492
854.766541,496
854.884277,486
855.002014,499
855.119751,485
855.237549,472
855.355225,497
855.473022,496
855.590698,482
855.708435,483
855.826172,504
855.943848,478
856.061646,482
856.179321,490
856.296997,492
856.414795,503
856.53241,489
856.650085,497
856.767822,509
856.885559,514
857.003174,494
857.120911,476
857.238586,492
857.356201,507
857.473938,492
857.591614,512
857.709351,492
857.826965,496
857.944641,507
858.062317,519
858.179993,510
858.297668,491
858.415283,502
858.532959,487
858.650574,512
858.768188,511
858.885803,502
859.003479,488
859.121094,504
859.23877,525
859.356384,485
859.473999,492
859.591675,504
859.709229,495
859.826843,500
859.944458,490
860.062012,492
860.179626,499
860.297302,509
860.414856,472
860.532471,485
860.650024,495
860.767639,498
860.885193,483
861.002808,495
861.120361,504
861.237976,484
861.35553,482
861.473022,499
861.590698,476
861.708191,495
861.825745,484
861.943298,481
862.060852,470
862.178406,491
862.295959,462
862.413513,513
862.531006,477
862.64856,472
862.766113,489
862.883667,484
863.00116,475
863.118713,474
863.236206,472
863.353699,485
863.471252,486
863.588745,477
863.706177,490
863.82373,491
863.941162,470
864.058716,474
864.176208,482
864.29364,472
864.411194,499
864.528687,484
864.646118,483
864.763611,474
864.881042,489
864.998535,473
865.116028,479
865.233459,482
865.350891,459
865.468384,469
865.585754,483
865.703308,465
865.820679,479
865.938171,485
866.055542,471
866.173035,497
866.290466,476
866.407837,467
866.52533,496
866.6427,471
866.760071,481
866.877563,490
866.994934,489
867.112305,477
867.229736,479
867.347107,491
867.464539,475
867.58197,480
867.699341,476
867.81665,477
867.934082,486
868.051453,495
868.168823,470
868.286194,478
868.403564,493
868.520935,488
868.638306,482
868.755676,457
868.872986,503
868.990295,493
869.107727,465
869.225037,474
869.342346,460
869.459717,483
869.577026,485
869.694336,492
869.811707,489
869.929016,502
870.046326,493
870.163635,499
870.280945,502
870.398254,497
870.515564,489
870.632812,483
870.750183,477
870.867432,494
870.984741,507
871.102051,502
871.219299,515
871.336609,520
871.453918,525
871.571106,511
871.688416,497
871.805664,509
871.922852,504
872.040222,510
872.157471,505
872.274719,495
872.391968,512
872.509155,510
872.626465,514
872.743652,492
872.860962,486
872.978149,497
873.095337,503
873.212646,509
873.329834,517
873.44696,470
873.564209,505
873.681396,494
873.798645,509
873.915894,490
874.03302,508
874.150208,494
874.267456,509
874.384583,503
874.501831,512
874.618958,526
874.736145,519
874.853333,495
874.970459,507
875.087646,508
875.204834,494
875.32196,517
875.439148,509
875.556274,513
875.673401,511
875.790527,499
875.907715,508
876.024841,508
876.141968,502
876.259094,493
876.376282,519
876.493347,509
876.610474,503
876.7276,489
876.844727,489
876.961853,483
877.078918,483
877.195984,493
877.313171,485
877.430237,504
877.547302,487
877.664368,469
877.781433,497
877.898499,481
878.015625,483
878.13269,482
878.249695,479
878.366821,475
878.483887,478
878.600952,478
878.717957,480
878.834961,480
878.952087,495
879.069092,497
879.186157,493
879.303162,467
879.420227,484
879.537231,489
879.654236,489
879.77124,487
879.888306,457
880.005249,485
880.122314,461
880.239319,471
880.356323,471
880.473328,492
880.590271,472
880.707275,475
880.824341,480
880.941284,467
881.058228,471
881.175232,489
881.292236,482
881.40918,455
881.526123,464
881.643066,477
881.760071,486
881.877014,485
881.993958,457
882.11084,476
882.227783,474
882.344727,482
882.46167,474
882.578613,479
882.695618,456
882.812439,467
882.929382,477
883.046326,469
883.163208,473
883.280151,478
883.397034,481
883.513916,468
883.630798,481
883.747742,495
883.864563,481
883.981506,483
884.098389,491
884.21521,485
884.332153,499
884.448975,503
884.565796,499
884.682678,475
884.7995,496
884.916443,509
885.033264,542
885.150085,509
885.266968,530
885.383789,537
885.500671,543
885.617493,538
885.734314,539
885.851196,528
885.967896,533
886.084717,522
886.201599,524
886.318359,537
886.435181,523
886.552002,535
886.668762,516
886.785645,532
886.902344,513
887.019165,518
887.135925,524
887.252747,510
887.369446,508
887.486267,505
887.603027,488
887.719788,503
887.836548,473
887.953247,484
888.070068,483
888.186829,491
888.303528,469
888.420288,497
888.536987,474
888.653687,470
888.770447,474
888.887146,471
889.003967,478
889.120667,470
889.237305,481
889.354065,470
889.470703,479
889.587463,454
889.704163,460
889.820862,463
889.937561,466
890.054199,474
890.170837,472
890.287598,456
890.404236,481
890.520874,463
890.637634,463
890.754211,475
890.87085,475
890.987549,474
891.104187,450
891.220886,474
891.337463,465
891.454102,460
891.57074,478
891.687378,458
891.804077,450
891.920654,465
892.037231,468
892.15387,481
892.270447,466
892.387085,472
892.503723,477
892.6203,466
892.736877,457
892.853516,474
892.970032,470
893.08667,487
893.203186,468
893.319763,475
893.43634,479
893.552917,480
893.669556,476
893.786011,451
893.902588,454
894.019165,478
894.135681,469
894.252197,472
894.368835,462
894.485291,459
894.601868,470
894.718384,456
894.8349,448
894.951355,452
895.067932,466
895.184448,464
895.300964,472
895.417419,476
895.533936,472
895.650452,477
895.766907,456
895.883423,451
895.999878,467
896.116333,452
896.232849,472
896.349304,474
896.465759,453
896.582214,462
896.698669,481
896.815125,461
896.931641,475
897.048035,454
897.164551,455
897.280884,476
897.397339,465
897.513794,478
897.630249,453
897.746582,463
897.863098,465
897.979431,481
898.095886,466
898.212341,497
898.328674,485
898.445129,473
898.561462,462
898.677795,469
898.794312,473
898.910645,470
899.026978,485
899.143433,473
899.259766,475
899.37616,489
899.492493,484
899.608765,479
899.725159,465
899.841553,485
899.957947,483
900.07428,454
900.190552,470
900.306946,467
900.423157,484
900.53949,480
900.655884,469
900.772156,477
900.888489,498
901.004822,472
901.121033,463
901.237366,478
901.353699,458
901.46991,472
901.586304,484
901.702515,485
901.818787,492
901.93512,479
902.051331,490
902.167603,478
902.283875,497
902.400085,511
902.516418,520
902.632629,494
902.74884,531
902.865112,515
902.981384,513
903.097595,510
903.213867,493
903.330017,510
903.446289,502
903.5625,524
903.67865,485
903.794922,500
903.911072,499
904.027344,496
904.143494,485
904.259705,493
904.375916,467
904.492065,476
904.608215,470
904.724426,480
904.840576,490
904.956726,491
905.072876,483
905.189087,474
905.305176,485
905.421387,470
905.537537,482
905.653687,468
905.769775,468
905.885925,471
906.002014,470
906.118164,498
906.234314,470
906.350403,465
906.466492,458
906.582642,461
906.69873,471
906.814758,475
906.930908,482
907.046936,473
907.163086,465
907.279175,472
907.395264,451
907.511353,472
907.62738,462
907.743408,457
907.859497,451
907.975525,491
908.091553,460
908.207703,456
908.32373,471
908.439758,461
908.555786,458
908.671814,485
908.787842,456
908.90387,475
909.019775,464
909.135864,456
909.251892,487
909.367859,455
909.483826,473
909.599854,495
909.715881,477
909.831848,481
909.947815,479
910.063782,475
910.179749,488
910.295776,479
910.411743,484
910.527649,472
910.643616,469
910.759583,466
910.875488,465
910.991455,456
911.107361,466
911.223267,470
911.339294,474
911.4552,469
911.571106,468
911.687073,470
911.802979,463
911.918823,474
912.034729,478
912.150635,458
912.266602,481
912.382446,467
912.498352,446
912.614197,476
912.730103,461
912.846008,487
792.44574,838
792.56488,861
792.68396,911
792.80304,863
792.92218,793
793.041199,787
793.160339,781
793.279419,744
793.398499,754
793.517578,729
793.636658,734
793.755737,744
793.874817,729
793.993896,694
794.112976,712
794.232056,661
794.351074,672
794.470215,723
794.589233,671
794.708313,675
794.827393,660
794.946411,682
795.065552,650
795.18457,670
795.303589,681
795.422668,640
795.541687,649
795.660767,646
795.779846,641
795.898865,657
796.017883,661
796.136963,631
796.255981,620
796.375061,619
796.49408,633
796.613037,631
796.732117,592
796.851135,623
796.970154,624
797.089233,594
797.208191,584
797.327271,595
797.446228,603
797.565186,591
797.684265,627
797.803223,579
797.922241,596
798.04126,574
798.160278,579
798.279297,565
798.398315,577
798.517273,573
798.636292,569
798.75531,579
798.874268,592
798.993286,568
799.112244,582
799.231323,546
799.350281,575
799.469238,564
799.588257,553
799.707153,543
799.826111,571
799.945129,561
800.064087,570
800.183044,554
800.302063,551
800.421021,574
800.539978,556
800.658936,562
800.777893,557
800.896912,542
801.015747,557
801.134705,538
801.253723,552
801.37262,570
801.491638,549
801.610535,561
801.729492,546
801.84845,540
801.967407,543
802.086243,562
802.205261,563
802.324158,542
802.443115,537
802.562073,546
802.680969,545
802.799927,559
802.918762,559
803.037659,538
803.156677,511
803.275574,525
803.39447,551
803.513428,541
803.632263,535
803.751221,547
803.870117,521
803.989014,515
804.107971,531
804.226746,514
804.345642,519
804.4646,523
804.583496,538
804.702393,540
804.821228,526
804.940125,526
805.059021,540
805.177917,517
805.296814,527
805.415649,531
805.534546,517
805.653442,530
805.772278,510
805.891113,515
806.01001,512
806.128906,506
806.247742,546
806.366577,519
806.485413,526
806.604309,515
806.723145,510
806.84198,513
806.960876,528
807.079712,505
807.198486,519
807.317383,513
807.436218,522
807.554993,525
807.673889,513
807.792725,525
807.91156,524
808.030396,525
808.14917,526
808.268005,520
808.386841,534
808.505676,535
808.624451,507
808.743286,519
808.862122,529
808.980896,502
809.099731,514
809.218506,496
809.337341,538
809.456116,515
809.57489,528
809.693726,502
809.8125,537
809.931274,493
810.050049,533
810.168884,525
810.287659,513
810.406372,512
810.525269,519
810.643982,507
810.762756,507
810.881531,516
811.000305,517
811.11908,517
811.237854,505
811.356567,528
811.475403,516
811.594116,524
811.71283,495
811.831604,513
811.950378,534
812.069153,522
812.187927,508
812.30658,518
812.425415,503
812.544128,512
812.662781,505
812.781616,514
812.900269,530
813.019043,504
813.137756,508
813.256531,525
813.375244,521
813.493896,501
813.612671,530
813.731384,518
813.850037,497
813.96875,509
814.087524,513
814.206238,514
814.324951,519
814.443604,503
814.562256,506
814.68103,504
814.799683,512
814.918335,525
815.037109,518
815.155762,531
815.274475,531
815.393188,509
815.511841,502
815.630554,507
815.749146,494
815.867859,495
815.986572,502
816.105164,519
816.223877,512
816.342529,510
816.461182,518
816.579895,500
816.698486,513
816.817139,516
816.935791,519
817.054504,509
817.173096,516
817.291748,517
817.4104,519
817.529053,505
817.647644,520
817.766235,498
817.884949,498
818.00354,499
818.122192,512
818.240845,477
818.359436,488
818.478088,493
818.59668,477
818.715271,489
818.833923,503
818.952515,513
819.071106,501
819.189758,483
819.30835,489
819.426941,486
819.545532,476
819.664124,495
819.782715,500
819.901306,488
820.019897,479
820.138489,495
820.25708,495
820.375671,499
820.494202,507
820.612732,484
820.731384,490
820.849915,486
820.968506,497
821.087097,499
821.205627,493
821.324158,490
821.442749,502
821.561279,479
821.679871,487
821.798401,475
821.916931,498
822.035461,492
822.154053,473
822.272583,457
822.391174,496
822.509583,480
822.628174,499
822.746704,480
822.865234,468
822.983765,473
823.102295,483
823.220825,479
823.339294,471
823.457825,490
823.576355,490
823.694824,481
823.813354,484
823.931885,483
824.050354,459
824.168884,472
824.287354,466
824.405823,501
824.524353,504
824.642822,498
824.761353,483
824.879822,470
824.998291,485
825.116699,478
825.235291,492
825.353699,488
825.472168,473
825.590637,471
825.709106,515
825.827576,479
825.946045,486
826.064453,475
826.182983,493
826.301392,494
826.4198,485
826.53833,480
826.656738,480
826.775208,478
826.893677,488
827.012024,484
827.130493,464
827.248962,470
827.36731,481
827.485779,469
827.604248,503
827.722595,471
827.841064,477
827.959412,476
828.077942,479
828.196289,457
828.314636,486
828.433105,477
828.551514,474
828.669861,480
828.78833,470
828.906677,467
829.025085,466
829.143433,474
829.261841,474
829.38031,479
829.498657,473
829.617004,472
829.735413,485
829.85376,465
829.972107,460
830.090515,482
830.208862,465
830.327209,480
830.445557,485
830.563904,464
830.682312,467
830.800659,479
830.919006,476
831.037354,466
831.155701,489
831.274048,483
831.392395,482
831.51062,480
831.629028,450
831.747314,477
831.865662,467
831.984009,509
832.102356,470
832.220642,467
832.338928,477
832.457275,490
832.575623,476
832.693909,473
832.812134,479
832.930481,477
833.048828,466
833.167114,463
833.2854,484
833.403687,475
833.521973,482
833.640259,508
833.758545,468
833.876831,472
833.995056,482
834.113281,476
834.231628,487
834.349915,479
834.468201,465
834.586426,473
834.704651,469
834.822998,485
834.941162,475
835.059448,476
835.177673,474
835.295959,473
835.414246,474
835.53241,484
835.650635,500
835.768921,467
835.887146,478
836.005371,477
836.123596,464
836.241821,478
836.360046,474
836.478271,472
836.596497,470
836.714722,462
836.832886,478
836.95105,488
837.069336,460
837.1875,480
837.305725,463
837.423889,478
837.542053,484
837.660339,453
837.778503,479
837.896667,489
838.014832,476
838.132996,477
838.25116,460
838.369385,493
838.487488,462
838.605713,479
838.723877,494
838.84198,470
838.960205,475
839.078308,483
839.196472,480
839.314636,482
839.4328,481
839.550964,473
839.669067,487
839.787231,496
839.905396,501
840.023499,470
840.141602,498
840.259766,495
840.377869,507
840.495972,476
840.614136,491
840.732239,507
840.850342,497
840.968445,495
841.086548,479
841.204651,490
841.322754,512
841.440918,479
841.55896,520
841.677002,473
841.795166,507
841.913208,486
842.031311,496
842.149353,505
842.267456,482
842.385498,471
842.503601,490
842.621643,496
842.739746,501
842.857788,499
842.97583,499
843.093933,501
843.211975,502
843.330017,494
843.44812,490
843.566101,496
843.684204,512
843.802246,491
843.920227,497
844.038269,493
844.156311,501
844.274292,487
844.392395,501
844.510376,505
844.628357,498
844.74646,455
844.864441,488
844.982422,478
845.100403,486
845.218384,491
845.336426,504
845.454468,481
845.572449,496
845.69043,480
845.808411,486
845.926453,482
846.044373,491
846.162354,471
846.280396,484
846.398315,486
846.516296,477
846.634216,470
846.752197,472
846.870178,497
846.988098,496
847.106079,474
847.22406,509
847.34198,476
847.4599,495
847.577881,480
847.695801,492
847.813782,471
847.931641,498
848.049561,500
848.167603,479
848.285461,487
848.403381,484
848.521362,514
848.639221,499
848.75708,496
848.875,497
848.99292,492
849.110901,487
849.22876,484
849.34668,492
849.464539,493
849.582458,487
849.700317,478
849.818176,505
849.936096,459
850.053955,477
850.171875,467
850.289673,481
850.407593,472
850.525452,489
850.643311,481
850.761169,490
850.878967,494
850.996887,503
851.114746,478
851.232544,479
851.350403,493
851.468262,488
851.58606,475
851.703979,495
851.821777,481
851.939636,485
852.057434,505
852.175232,510
852.293091,490
852.410889,511
852.528687,502
852.646545,523
852.764343,507
852.88208,497
852.999939,518
853.117676,504
853.235535,453
853.353271,497
853.471069,468
853.588928,477
853.706604,481
853.824402,505
853.9422,480
854.059998,476
854.177734,486
854.295532,496
854.413269,485
854.531006,491
854.648804,504
854.766541,492
854.884277,482
855.002014,490
855.119751,481
855.237549,498
855.355225,470
855.473022,476
855.590698,461
855.708435,504
855.826172,479
855.943848,477
856.061646,473
856.179321,498
856.296997,485
856.414795,506
856.53241,492
856.650085,491
856.767822,488
856.885559,486
857.003174,514
857.120911,499
857.238586,508
857.356201,496
857.473938,500
857.591614,502
857.709351,515
857.826965,499
857.944641,484
858.062317,478
858.179993,521
858.297668,504
858.415283,469
858.532959,485
858.650574,500
858.768188,502
858.885803,504
859.003479,477
859.121094,479
859.23877,512
859.356384,474
859.473999,491
859.591675,491
859.709229,509
859.826843,482
859.944458,494
860.062012,459
860.179626,484
860.297302,485
860.414856,467
860.532471,494
860.650024,489
860.767639,473
860.885193,475
861.002808,479
861.120361,484
861.237976,484
861.35553,494
861.473022,481
861.590698,492
861.708191,478
861.825745,492
861.943298,505
862.060852,484
862.178406,476
862.295959,486
862.413513,484
862.531006,485
862.64856,481
862.766113,489
862.883667,490
863.00116,457
863.118713,479
863.236206,486
863.353699,478
863.471252,480
863.588745,469
863.706177,465
863.82373,478
863.941162,482
864.058716,475
864.176208,491
864.29364,483
864.411194,475
864.528687,467
864.646118,466
864.763611,468
864.881042,492
864.998535,466
865.116028,481
865.233459,489
865.350891,471
865.468384,478
865.585754,494
865.703308,485
865.820679,459
865.938171,481
866.055542,492
866.173035,473
866.290466,494
866.407837,473
866.52533,504
866.6427,471
866.760071,470
866.877563,487
866.994934,491
867.112305,480
867.229736,478
867.347107,458
867.464539,510
867.58197,488
867.699341,498
867.81665,474
867.934082,484
868.051453,504
868.168823,488
868.286194,492
868.403564,509
868.520935,490
868.638306,491
868.755676,490
868.872986,473
868.990295,493
869.107727,498
869.225037,482
869.342346,491
869.459717,497
869.577026,487
869.694336,480
869.811707,509
869.929016,486
870.046326,481
870.163635,495
870.280945,525
870.398254,486
870.515564,507
870.632812,501
870.750183,493
870.867432,498
870.984741,488
871.102051,493
871.219299,510
871.336609,507
871.453918,517
871.571106,509
871.688416,528
871.805664,495
871.922852,510
872.040222,517
872.157471,504
872.274719,491
872.391968,496
872.509155,501
872.626465,504
872.743652,507
872.860962,502
872.978149,502
873.095337,495
873.212646,508
873.329834,493
873.44696,488
873.564209,489
873.681396,500
873.798645,504
873.915894,491
874.03302,508
874.150208,500
874.267456,495
874.384583,494
874.501831,494
874.618958,498
874.736145,516
874.853333,488
874.970459,506
875.087646,514
875.204834,516
875.32196,501
875.439148,498
875.556274,501
875.673401,516
875.790527,483
875.907715,503
876.024841,495
876.141968,504
876.259094,478
876.376282,493
876.493347,483
876.610474,492
876.7276,490
876.844727,470
876.961853,485
877.078918,498
877.195984,476
877.313171,494
877.430237,484
877.547302,493
877.664368,497
877.781433,485
877.898499,472
878.015625,503
878.13269,487
878.249695,468
878.366821,480
878.483887,494
878.600952,481
878.717957,487
878.834961,468
878.952087,482
879.069092,480
879.186157,500
879.303162,470
879.420227,482
879.537231,481
879.654236,477
879.77124,478
879.888306,478
880.005249,474
880.122314,481
880.239319,485
880.356323,468
880.473328,480
880.590271,482
880.707275,463
880.824341,460
880.941284,481
881.058228,464
881.175232,475
881.292236,465
881.40918,464
881.526123,487
881.643066,477
881.760071,464
881.877014,489
881.993958,477
882.11084,449
882.227783,449
882.344727,467
882.46167,482
882.578613,466
882.695618,472
882.812439,464
882.929382,474
883.046326,487
883.163208,483
883.280151,488
883.397034,493
883.513916,494
883.630798,475
883.747742,450
883.864563,485
883.981506,474
884.098389,502
884.21521,475
884.332153,492
884.448975,488
884.565796,493
884.682678,483
884.7995,518
884.916443,491
885.033264,518
885.150085,510
885.266968,526
885.383789,531
885.500671,554
885.617493,546
885.734314,556
885.851196,527
885.967896,535
886.084717,516
886.201599,543
886.318359,535
886.435181,536
886.552002,543
886.668762,499
886.785645,518
886.902344,516
887.019165,507
887.135925,510
887.252747,497
887.369446,515
887.486267,508
887.603027,491
887.719788,492
887.836548,495
887.953247,487
888.070068,492
888.186829,490
888.303528,515
888.420288,487
888.536987,477
888.653687,467
888.770447,479
888.887146,462
889.003967,467
889.120667,460
889.237305,475
889.354065,481
889.470703,472
889.587463,460
889.704163,463
889.820862,468
889.937561,471
890.054199,462
890.170837,482
890.287598,481
890.404236,463
890.520874,457
890.637634,460
890.754211,464
890.87085,467
890.987549,476
891.104187,460
891.220886,478
891.337463,478
891.454102,483
891.57074,475
891.687378,470
891.804077,487
891.920654,458
892.037231,460
892.15387,486
892.270447,459
892.387085,448
892.503723,463
892.6203,472
892.736877,456
892.853516,447
892.970032,474
893.08667,484
893.203186,481
893.319763,466
893.43634,468
893.552917,448
893.669556,467
893.786011,470
893.902588,461
894.019165,471
894.135681,453
894.252197,478
894.368835,486
894.485291,476
894.601868,486
894.718384,470
894.8349,481
894.951355,469
895.067932,489
895.184448,455
895.300964,486
895.417419,476
895.533936,487
895.650452,470
895.766907,465
895.883423,449
895.999878,476
896.116333,459
896.232849,488
896.349304,467
896.465759,475
896.582214,482
896.698669,480
896.815125,471
896.931641,441
897.048035,453
897.164551,478
897.280884,479
897.397339,482
897.513794,470
897.630249,483
897.746582,459
897.863098,479
897.979431,469
898.095886,470
898.212341,469
898.328674,465
898.445129,462
898.561462,482
898.677795,477
898.794312,458
898.910645,480
899.026978,479
899.143433,463
899.259766,470
899.37616,479
899.492493,472
899.608765,454
899.725159,455
899.841553,462
899.957947,491
900.07428,478
900.190552,477
900.306946,484
900.423157,487
900.53949,449
900.655884,465
900.772156,486
900.888489,456
901.004822,481
901.121033,455
901.237366,464
901.353699,474
901.46991,472
901.586304,491
901.702515,498
901.818787,498
901.93512,478
902.051331,503
902.167603,501
902.283875,494
902.400085,511
902.516418,490
902.632629,504
902.74884,503
902.865112,499
902.981384,514
903.097595,521
903.213867,494
903.330017,514
903.446289,501
903.5625,489
903.67865,515
903.794922,485
903.911072,500
904.027344,513
904.143494,495
904.259705,477
904.375916,480
904.492065,503
904.608215,480
904.724426,493
904.840576,484
904.956726,488
905.072876,464
905.189087,481
905.305176,503
905.421387,483
905.537537,470
905.653687,484
905.769775,491
905.885925,475
906.002014,453
906.118164,486
906.234314,474
906.350403,472
906.466492,468
906.582642,477
906.69873,482
906.814758,477
906.930908,459
907.046936,464
907.163086,497
907.279175,491
907.395264,464
907.511353,456
907.62738,484
907.743408,458
907.859497,486
907.975525,481
908.091553,461
908.207703,479
908.32373,448
908.439758,465
908.555786,475
908.671814,460
908.787842,460
908.90387,491
909.019775,454
909.135864,468
909.251892,481
909.367859,484
909.483826,485
909.599854,477
909.715881,461
909.831848,477
909.947815,469
910.063782,475
910.179749,469
910.295776,487
910.411743,485
910.527649,459
910.643616,473
910.759583,482
910.875488,472
910.991455,459
911.107361,474
911.223267,482
911.339294,487
911.4552,466
911.571106,463
911.687073,468
911.802979,482
911.918823,468
912.034729,472
912.150635,454
912.266602,473
912.382446,469
912.498352,463
912.614197,469
912.730103,472
912.846008,461
