792.44574,598
792.56488,623
792.68396,669
792.80304,657
792.92218,633
793.041199,587
793.160339,568
793.279419,622
793.398499,601
793.517578,587
793.636658,581
793.755737,590
793.874817,597
793.993896,584
794.112976,581
794.232056,584
794.351074,577
794.470215,591
794.589233,603
794.708313,597
794.827393,582
794.946411,588
795.065552,606
795.18457,582
795.303589,604
795.422668,580
795.541687,567
795.660767,578
795.779846,548
795.898865,573
796.017883,563
796.136963,587
796.255981,558
796.375061,583
796.49408,579
796.613037,594
796.732117,576
796.851135,574
796.970154,584
797.089233,568
797.208191,570
797.327271,577
797.446228,564
797.565186,590
797.684265,576
797.803223,580
797.922241,557
798.04126,576
798.160278,574
798.279297,582
798.398315,572
798.517273,590
798.636292,568
798.75531,583
798.874268,557
798.993286,563
799.112244,582
799.231323,567
799.350281,582
799.469238,578
799.588257,565
799.707153,578
799.826111,551
799.945129,572
800.064087,586
800.183044,567
800.302063,577
800.421021,571
800.539978,558
800.658936,568
800.777893,600
800.896912,585
801.015747,553
801.134705,560
801.253723,582
801.37262,574
801.491638,557
801.610535,584
801.729492,569
801.84845,584
801.967407,556
802.086243,597
802.205261,570
802.324158,584
802.443115,574
802.562073,568
802.680969,584
802.799927,584
802.918762,573
803.037659,588
803.156677,572
803.275574,570
803.39447,579
803.513428,599
803.632263,582
803.751221,583
803.870117,598
803.989014,599
804.107971,576
804.226746,566
804.345642,594
804.4646,613
804.583496,588
804.702393,572
804.821228,603
804.940125,602
805.059021,592
805.177917,576
805.296814,602
805.415649,627
805.534546,593
805.653442,595
805.772278,625
805.891113,560
806.01001,586
806.128906,610
806.247742,598
806.366577,612
806.485413,598
806.604309,591
806.723145,606
806.84198,627
806.960876,588
807.079712,620
807.198486,597
807.317383,608
807.436218,624
807.554993,623
807.673889,590
807.792725,626
807.91156,603
808.030396,575
808.14917,599
808.268005,618
808.386841,633
808.505676,604
808.624451,612
808.743286,611
808.862122,592
808.980896,618
809.099731,613
809.218506,620
809.337341,615
809.456116,596
809.57489,608
809.693726,631
809.8125,604
809.931274,611
810.050049,638
810.168884,608
810.287659,625
810.406372,632
810.525269,620
810.643982,615
810.762756,616
810.881531,624
811.000305,624
811.11908,611
811.237854,630
811.356567,633
811.475403,631
811.594116,624
811.71283,615
811.831604,644
811.950378,632
812.069153,622
812.187927,623
812.30658,628
812.425415,623
812.544128,635
812.662781,630
812.781616,625
812.900269,631
813.019043,605
813.137756,624
813.256531,638
813.375244,624
813.493896,634
813.612671,629
813.731384,631
813.850037,624
813.96875,632
814.087524,633
814.206238,611
814.324951,605
814.443604,591
814.562256,622
814.68103,611
814.799683,615
814.918335,608
815.037109,593
815.155762,617
815.274475,608
815.393188,614
815.511841,612
815.630554,619
815.749146,601
815.867859,616
815.986572,631
816.105164,612
816.223877,608
816.342529,606
816.461182,618
816.579895,599
816.698486,614
816.817139,600
816.935791,620
817.054504,611
817.173096,617
817.291748,589
817.4104,610
817.529053,637
817.647644,583
817.766235,602
817.884949,597
818.00354,580
818.122192,549
818.240845,532
818.359436,532
818.478088,555
818.59668,534
818.715271,540
818.833923,493
818.952515,509
819.071106,532
819.189758,523
819.30835,533
819.426941,492
819.545532,496
819.664124,499
819.782715,508
819.901306,507
820.019897,489
820.138489,487
820.25708,500
820.375671,473
820.494202,512
820.612732,500
820.731384,503
820.849915,486
820.968506,481
821.087097,463
821.205627,480
821.324158,480
821.442749,468
821.561279,476
821.679871,463
821.798401,463
821.916931,484
822.035461,465
822.154053,471
822.272583,496
822.391174,470
822.509583,475
822.628174,472
822.746704,482
822.865234,444
822.983765,481
823.102295,472
823.220825,484
823.339294,486
823.457825,480
823.576355,473
823.694824,470
823.813354,493
823.931885,482
824.050354,474
824.168884,502
824.287354,475
824.405823,498
824.524353,500
824.642822,460
824.761353,487
824.879822,491
824.998291,467
825.116699,483
825.235291,490
825.353699,486
825.472168,478
825.590637,497
825.709106,480
825.827576,458
825.946045,461
826.064453,450
826.182983,460
826.301392,480
826.4198,460
826.53833,481
826.656738,464
826.775208,458
826.893677,456
827.012024,460
827.130493,474
827.248962,447
827.36731,473
827.485779,480
827.604248,460
827.722595,462
827.841064,477
827.959412,459
828.077942,464
828.196289,476
828.314636,487
828.433105,475
828.551514,460
828.669861,465
828.78833,447
828.906677,454
829.025085,451
829.143433,454
829.261841,470
829.38031,468
829.498657,470
829.617004,474
829.735413,458
829.85376,456
829.972107,449
830.090515,473
830.208862,466
830.327209,470
830.445557,454
830.563904,451
830.682312,447
830.800659,459
830.919006,457
831.037354,477
831.155701,463
831.274048,447
831.392395,455
831.51062,472
831.629028,459
831.747314,452
831.865662,445
831.984009,464
832.102356,463
832.220642,464
832.338928,454
832.457275,460
832.575623,453
832.693909,455
832.812134,444
832.930481,441
833.048828,440
833.167114,460
833.2854,453
833.403687,462
833.521973,468
833.640259,467
833.758545,441
833.876831,471
833.995056,448
834.113281,458
834.231628,474
834.349915,456
834.468201,447
834.586426,446
834.704651,458
834.822998,461
834.941162,454
835.059448,458
835.177673,449
835.295959,445
835.414246,472
835.53241,466
835.650635,446
835.768921,468
835.887146,466
836.005371,453
836.123596,462
836.241821,490
836.360046,443
836.478271,457
836.596497,466
836.714722,455
836.832886,456
836.95105,475
837.069336,468
837.1875,485
837.305725,468
837.423889,480
837.542053,471
837.660339,485
837.778503,458
837.896667,466
838.014832,459
838.132996,466
838.25116,469
838.369385,454
838.487488,442
838.605713,461
838.723877,461
838.84198,470
838.960205,460
839.078308,490
839.196472,470
839.314636,457
839.4328,476
839.550964,452
839.669067,472
839.787231,469
839.905396,475
840.023499,470
840.141602,462
840.259766,470
840.377869,462
840.495972,458
840.614136,473
840.732239,474
840.850342,456
840.968445,466
841.086548,455
841.204651,465
841.322754,460
841.440918,465
841.55896,452
841.677002,454
841.795166,446
841.913208,450
842.031311,441
842.149353,445
842.267456,461
842.385498,455
842.503601,458
842.621643,446
842.739746,452
842.857788,469
842.97583,442
843.093933,448
843.211975,444
843.330017,447
843.44812,436
843.566101,442
843.684204,453
843.802246,450
843.920227,450
844.038269,431
844.156311,452
844.274292,453
844.392395,435
844.510376,453
844.628357,428
844.74646,450
844.864441,444
844.982422,446
845.100403,461
845.218384,455
845.336426,459
845.454468,443
845.572449,448
845.69043,449
845.808411,456
845.926453,437
846.044373,438
846.162354,453
846.280396,461
846.398315,461
846.516296,437
846.634216,439
846.752197,425
846.870178,466
846.988098,434
847.106079,433
847.22406,468
847.34198,447
847.4599,449
847.577881,455
847.695801,454
847.813782,456
847.931641,419
848.049561,453
848.167603,446
848.285461,438
848.403381,448
848.521362,449
848.639221,457
848.75708,436
848.875,426
848.99292,445
849.110901,463
849.22876,452
849.34668,439
849.464539,455
849.582458,449
849.700317,433
849.818176,448
849.936096,450
850.053955,434
850.171875,458
850.289673,458
850.407593,451
850.525452,441
850.643311,470
850.761169,441
850.878967,457
850.996887,460
851.114746,448
851.232544,428
851.350403,456
851.468262,446
851.58606,460
851.703979,434
851.821777,444
851.939636,437
852.057434,461
852.175232,432
852.293091,452
852.410889,450
852.528687,448
852.646545,450
852.764343,455
852.88208,421
852.999939,443
853.117676,435
853.235535,451
853.353271,466
853.471069,427
853.588928,443
853.706604,448
853.824402,448
853.9422,472
854.059998,455
854.177734,442
854.295532,437
854.413269,469
854.531006,432
854.648804,444
854.766541,445
854.884277,434
855.002014,439
855.119751,461
855.237549,448
855.355225,437
855.473022,461
855.590698,467
855.708435,436
855.826172,436
855.943848,452
856.061646,451
856.179321,463
856.296997,453
856.414795,451
856.53241,446
856.650085,454
856.767822,423
856.885559,436
857.003174,454
857.120911,441
857.238586,447
857.356201,449
857.473938,450
857.591614,452
857.709351,458
857.826965,455
857.944641,440
858.062317,457
858.179993,450
858.297668,455
858.415283,440
858.532959,452
858.650574,445
858.768188,471
858.885803,439
859.003479,454
859.121094,450
859.23877,451
859.356384,447
859.473999,437
859.591675,452
859.709229,437
859.826843,454
859.944458,458
860.062012,436
860.179626,442
860.297302,444
860.414856,448
860.532471,448
860.650024,438
860.767639,451
860.885193,439
861.002808,462
861.120361,454
861.237976,442
861.35553,437
861.473022,427
861.590698,446
861.708191,431
861.825745,431
861.943298,438
862.060852,458
862.178406,450
862.295959,451
862.413513,443
862.531006,458
862.64856,452
862.766113,440
862.883667,437
863.00116,443
863.118713,438
863.236206,436
863.353699,445
863.471252,451
863.588745,457
863.706177,445
863.82373,463
863.941162,451
864.058716,457
864.176208,449
864.29364,454
864.411194,448
864.528687,470
864.646118,458
864.763611,458
864.881042,444
864.998535,455
865.116028,450
865.233459,453
865.350891,446
865.468384,447
865.585754,427
865.703308,464
865.820679,456
865.938171,449
866.055542,447
866.173035,452
866.290466,451
866.407837,453
866.52533,436
866.6427,474
866.760071,442
866.877563,465
866.994934,452
867.112305,446
867.229736,476
867.347107,440
867.464539,441
867.58197,452
867.699341,437
867.81665,459
867.934082,449
868.051453,457
868.168823,450
868.286194,453
868.403564,463
868.520935,473
868.638306,465
868.755676,451
868.872986,426
868.990295,465
869.107727,439
869.225037,464
869.342346,463
869.459717,436
869.577026,445
869.694336,453
869.811707,449
869.929016,438
870.046326,457
870.163635,454
870.280945,443
870.398254,440
870.515564,437
870.632812,455
870.750183,450
870.867432,447
870.984741,472
871.102051,453
871.219299,467
871.336609,451
871.453918,459
871.571106,442
871.688416,442
871.805664,440
871.922852,445
872.040222,439
872.157471,448
872.274719,458
872.391968,457
872.509155,447
872.626465,455
872.743652,438
872.860962,445
872.978149,453
873.095337,446
873.212646,441
873.329834,464
873.44696,454
873.564209,450
873.681396,464
873.798645,444
873.915894,458
874.03302,445
874.150208,451
874.267456,456
874.384583,444
874.501831,455
874.618958,459
874.736145,439
874.853333,441
874.970459,453
875.087646,470
875.204834,448
875.32196,451
875.439148,437
875.556274,452
875.673401,452
875.790527,440
875.907715,419
876.024841,463
876.141968,460
876.259094,453
876.376282,457
876.493347,449
876.610474,460
876.7276,453
876.844727,453
876.961853,462
877.078918,450
877.195984,456
877.313171,455
877.430237,456
877.547302,444
877.664368,477
877.781433,432
877.898499,450
878.015625,458
878.13269,435
878.249695,458
878.366821,446
878.483887,437
878.600952,464
878.717957,448
878.834961,467
878.952087,450
879.069092,434
879.186157,462
879.303162,463
879.420227,446
879.537231,460
879.654236,442
879.77124,445
879.888306,464
880.005249,436
880.122314,452
880.239319,448
880.356323,444
880.473328,449
880.590271,443
880.707275,461
880.824341,450
880.941284,465
881.058228,444
881.175232,461
881.292236,440
881.40918,444
881.526123,466
881.643066,452
881.760071,452
881.877014,452
881.993958,440
882.11084,470
882.227783,453
882.344727,438
882.46167,451
882.578613,460
882.695618,446
882.812439,468
882.929382,450
883.046326,429
883.163208,450
883.280151,448
883.397034,440
883.513916,455
883.630798,449
883.747742,445
883.864563,454
883.981506,459
884.098389,431
884.21521,455
884.332153,488
884.448975,463
884.565796,454
884.682678,439
884.7995,447
884.916443,458
885.033264,459
885.150085,460
885.266968,440
885.383789,464
885.500671,467
885.617493,450
885.734314,461
885.851196,475
885.967896,456
886.084717,441
886.201599,465
886.318359,461
886.435181,451
886.552002,469
886.668762,434
886.785645,459
886.902344,453
887.019165,446
887.135925,451
887.252747,453
887.369446,456
887.486267,455
887.603027,447
887.719788,459
887.836548,437
887.953247,469
888.070068,451
888.186829,456
888.303528,442
888.420288,445
888.536987,459
888.653687,459
888.770447,443
888.887146,462
889.003967,476
889.120667,450
889.237305,450
889.354065,455
889.470703,458
889.587463,455
889.704163,445
889.820862,461
889.937561,447
890.054199,450
890.170837,461
890.287598,455
890.404236,465
890.520874,466
890.637634,470
890.754211,446
890.87085,449
890.987549,456
891.104187,463
891.220886,453
891.337463,462
891.454102,458
891.57074,474
891.687378,459
891.804077,449
891.920654,456
892.037231,458
892.15387,451
892.270447,464
892.387085,458
892.503723,457
892.6203,454
892.736877,460
892.853516,452
892.970032,475
893.08667,459
893.203186,457
893.319763,454
893.43634,467
893.552917,465
893.669556,452
893.786011,463
893.902588,463
894.019165,475
894.135681,446
894.252197,460
894.368835,466
894.485291,476
894.601868,450
894.718384,445
894.8349,441
894.951355,461
895.067932,455
895.184448,445
895.300964,444
895.417419,454
895.533936,463
895.650452,452
895.766907,462
895.883423,434
895.999878,473
896.116333,457
896.232849,444
896.349304,448
896.465759,453
896.582214,449
896.698669,455
896.815125,467
896.931641,454
897.048035,461
897.164551,464
897.280884,474
897.397339,461
897.513794,469
897.630249,458
897.746582,445
897.863098,468
897.979431,457
898.095886,449
898.212341,467
898.328674,441
898.445129,474
898.561462,474
898.677795,446
898.794312,451
898.910645,451
899.026978,450
899.143433,443
899.259766,470
899.37616,455
899.492493,464
899.608765,476
899.725159,473
899.841553,457
899.957947,461
900.07428,460
900.190552,464
900.306946,489
900.423157,449
900.53949,466
900.655884,470
900.772156,470
900.888489,464
901.004822,465
901.121033,476
901.237366,457
901.353699,474
901.46991,471
901.586304,449
901.702515,472
901.818787,466
901.93512,466
902.051331,458
902.167603,452
902.283875,474
902.400085,451
902.516418,480
902.632629,466
902.74884,470
902.865112,460
902.981384,463
903.097595,456
903.213867,472
903.330017,459
903.446289,455
903.5625,475
903.67865,474
903.794922,480
903.911072,462
904.027344,489
904.143494,463
904.259705,459
904.375916,443
904.492065,474
904.608215,463
904.724426,461
904.840576,474
904.956726,480
905.072876,441
905.189087,470
905.305176,445
905.421387,466
905.537537,476
905.653687,474
905.769775,454
905.885925,448
906.002014,454
906.118164,463
906.234314,471
906.350403,470
906.466492,465
906.582642,475
906.69873,449
906.814758,476
906.930908,471
907.046936,462
907.163086,474
907.279175,466
907.395264,465
907.511353,477
907.62738,458
907.743408,482
907.859497,471
907.975525,467
908.091553,455
908.207703,455
908.32373,456
908.439758,462
908.555786,456
908.671814,446
908.787842,466
908.90387,451
909.019775,454
909.135864,449
909.251892,461
909.367859,483
909.483826,457
909.599854,480
909.715881,464
909.831848,479
909.947815,463
910.063782,471
910.179749,437
910.295776,460
910.411743,465
910.527649,475
910.643616,459
910.759583,475
910.875488,479
910.991455,465
911.107361,445
911.223267,471
911.339294,466
911.4552,461
911.571106,482
911.687073,468
911.802979,459
911.918823,460
912.034729,468
912.150635,459
912.266602,464
912.382446,489
912.498352,449
912.614197,440
912.730103,461
912.846008,476
792.44574,605
792.56488,622
792.68396,675
792.80304,657
792.92218,625
793.041199,620
793.160339,583
793.279419,614
793.398499,610
793.517578,595
793.636658,590
793.755737,609
793.874817,615
793.993896,602
794.112976,590
794.232056,604
794.351074,594
794.470215,589
794.589233,576
794.708313,603
794.827393,565
794.946411,587
795.065552,605
795.18457,602
795.303589,582
795.422668,581
795.541687,600
795.660767,582
795.779846,584
795.898865,551
796.017883,589
796.136963,593
796.255981,590
796.375061,584
796.49408,597
796.613037,570
796.732117,561
796.851135,546
796.970154,578
797.089233,574
797.208191,564
797.327271,577
797.446228,584
797.565186,593
797.684265,582
797.803223,569
797.922241,568
798.04126,567
798.160278,580
798.279297,593
798.398315,579
798.517273,567
798.636292,589
798.75531,561
798.874268,570
798.993286,590
799.112244,592
799.231323,565
799.350281,578
799.469238,579
799.588257,573
799.707153,558
799.826111,561
799.945129,568
800.064087,586
800.183044,592
800.302063,572
800.421021,563
800.539978,588
800.658936,560
800.777893,600
800.896912,583
801.015747,573
801.134705,585
801.253723,588
801.37262,567
801.491638,582
801.610535,550
801.729492,576
801.84845,570
801.967407,582
802.086243,584
802.205261,577
802.324158,583
802.443115,583
802.562073,585
802.680969,594
802.799927,588
802.918762,579
803.037659,574
803.156677,591
803.275574,581
803.39447,596
803.513428,582
803.632263,593
803.751221,586
803.870117,576
803.989014,595
804.107971,571
804.226746,583
804.345642,617
804.4646,617
804.583496,624
804.702393,601
804.821228,595
804.940125,601
805.059021,608
805.177917,586
805.296814,601
805.415649,596
805.534546,592
805.653442,605
805.772278,587
805.891113,609
806.01001,626
806.128906,610
806.247742,613
806.366577,599
806.485413,636
806.604309,614
806.723145,621
806.84198,595
806.960876,641
807.079712,607
807.198486,620
807.317383,601
807.436218,610
807.554993,607
807.673889,610
807.792725,623
807.91156,584
808.030396,622
808.14917,586
808.268005,588
808.386841,596
808.505676,627
808.624451,632
808.743286,622
808.862122,616
808.980896,615
809.099731,613
809.218506,610
809.337341,630
809.456116,628
809.57489,625
809.693726,621
809.8125,616
809.931274,627
810.050049,618
810.168884,621
810.287659,629
810.406372,630
810.525269,633
810.643982,632
810.762756,618
810.881531,621
811.000305,628
811.11908,604
811.237854,636
811.356567,596
811.475403,632
811.594116,616
811.71283,652
811.831604,611
811.950378,634
812.069153,625
812.187927,638
812.30658,627
812.425415,630
812.544128,637
812.662781,628
812.781616,616
812.900269,643
813.019043,640
813.137756,615
813.256531,631
813.375244,638
813.493896,617
813.612671,630
813.731384,635
813.850037,626
813.96875,639
814.087524,646
814.206238,602
814.324951,621
814.443604,637
814.562256,613
814.68103,621
814.799683,624
814.918335,618
815.037109,637
815.155762,598
815.274475,637
815.393188,607
815.511841,630
815.630554,618
815.749146,620
815.867859,618
815.986572,598
816.105164,593
816.223877,597
816.342529,615
816.461182,616
816.579895,611
816.698486,588
816.817139,591
816.935791,638
817.054504,598
817.173096,636
817.291748,595
817.4104,597
817.529053,603
817.647644,577
817.766235,583
817.884949,579
818.00354,550
818.122192,572
818.240845,561
818.359436,538
818.478088,550
818.59668,555
818.715271,522
818.833923,520
818.952515,524
819.071106,498
819.189758,508
819.30835,523
819.426941,501
819.545532,492
819.664124,497
819.782715,488
819.901306,519
820.019897,532
820.138489,490
820.25708,488
820.375671,491
820.494202,486
820.612732,487
820.731384,484
820.849915,498
820.968506,498
821.087097,493
821.205627,500
821.324158,476
821.442749,460
821.561279,476
821.679871,506
821.798401,493
821.916931,496
822.035461,471
822.154053,495
822.272583,468
822.391174,491
822.509583,464
822.628174,492
822.746704,471
822.865234,492
822.983765,460
823.102295,481
823.220825,473
823.339294,486
823.457825,489
823.576355,464
823.694824,465
823.813354,469
823.931885,482
824.050354,469
824.168884,493
824.287354,482
824.405823,470
824.524353,504
824.642822,492
824.761353,476
824.879822,489
824.998291,483
825.116699,458
825.235291,481
825.353699,477
825.472168,478
825.590637,490
825.709106,474
825.827576,455
825.946045,485
826.064453,463
826.182983,480
826.301392,449
826.4198,497
826.53833,469
826.656738,486
826.775208,466
826.893677,489
827.012024,473
827.130493,460
827.248962,467
827.36731,459
827.485779,466
827.604248,472
827.722595,468
827.841064,465
827.959412,463
828.077942,485
828.196289,464
828.314636,467
828.433105,444
828.551514,457
828.669861,443
828.78833,440
828.906677,460
829.025085,476
829.143433,453
829.261841,447
829.38031,473
829.498657,455
829.617004,464
829.735413,445
829.85376,446
829.972107,467
830.090515,462
830.208862,442
830.327209,435
830.445557,450
830.563904,455
830.682312,459
830.800659,451
830.919006,456
831.037354,448
831.155701,452
831.274048,454
831.392395,464
831.51062,445
831.629028,461
831.747314,453
831.865662,451
831.984009,454
832.102356,452
832.220642,454
832.338928,457
832.457275,451
832.575623,462
832.693909,453
832.812134,457
832.930481,451
833.048828,461
833.167114,453
833.2854,465
833.403687,465
833.521973,459
833.640259,445
833.758545,464
833.876831,446
833.995056,466
834.113281,450
834.231628,453
834.349915,446
834.468201,449
834.586426,443
834.704651,472
834.822998,457
834.941162,471
835.059448,462
835.177673,467
835.295959,462
835.414246,466
835.53241,451
835.650635,445
835.768921,457
835.887146,470
836.005371,460
836.123596,461
836.241821,472
836.360046,459
836.478271,454
836.596497,472
836.714722,473
836.832886,487
836.95105,473
837.069336,473
837.1875,486
837.305725,482
837.423889,480
837.542053,452
837.660339,474
837.778503,469
837.896667,482
838.014832,469
838.132996,482
838.25116,470
838.369385,472
838.487488,468
838.605713,464
838.723877,466
838.84198,475
838.960205,470
839.078308,453
839.196472,464
839.314636,472
839.4328,473
839.550964,468
839.669067,465
839.787231,479
839.905396,468
840.023499,458
840.141602,478
840.259766,462
840.377869,464
840.495972,463
840.614136,474
840.732239,443
840.850342,464
840.968445,470
841.086548,453
841.204651,453
841.322754,455
841.440918,447
841.55896,473
841.677002,452
841.795166,441
841.913208,460
842.031311,456
842.149353,446
842.267456,441
842.385498,443
842.503601,450
842.621643,429
842.739746,445
842.857788,429
842.97583,468
843.093933,454
843.211975,451
843.330017,449
843.44812,458
843.566101,457
843.684204,476
843.802246,420
843.920227,445
844.038269,447
844.156311,444
844.274292,446
844.392395,465
844.510376,445
844.628357,455
844.74646,449
844.864441,463
844.982422,462
845.100403,450
845.218384,440
845.336426,457
845.454468,450
845.572449,460
845.69043,433
845.808411,443
845.926453,459
846.044373,449
846.162354,452
846.280396,439
846.398315,452
846.516296,441
846.634216,443
846.752197,452
846.870178,430
846.988098,434
847.106079,437
847.22406,456
847.34198,442
847.4599,438
847.577881,447
847.695801,454
847.813782,454
847.931641,439
848.049561,449
848.167603,459
848.285461,438
848.403381,441
848.521362,444
848.639221,442
848.75708,442
848.875,464
848.99292,446
849.110901,449
849.22876,443
849.34668,433
849.464539,465
849.582458,442
849.700317,437
849.818176,457
849.936096,440
850.053955,451
850.171875,444
850.289673,454
850.407593,438
850.525452,449
850.643311,456
850.761169,466
850.878967,454
850.996887,454
851.114746,428
851.232544,425
851.350403,446
851.468262,473
851.58606,449
851.703979,462
851.821777,444
851.939636,449
852.057434,432
852.175232,447
852.293091,452
852.410889,441
852.528687,425
852.646545,449
852.764343,458
852.88208,428
852.999939,453
853.117676,461
853.235535,446
853.353271,449
853.471069,467
853.588928,438
853.706604,462
853.824402,442
853.9422,448
854.059998,453
854.177734,430
854.295532,444
854.413269,444
854.531006,451
854.648804,444
854.766541,467
854.884277,455
855.002014,452
855.119751,448
855.237549,446
855.355225,425
855.473022,435
855.590698,428
855.708435,455
855.826172,444
855.943848,435
856.061646,460
856.179321,454
856.296997,449
856.414795,439
856.53241,451
856.650085,473
856.767822,441
856.885559,460
857.003174,451
857.120911,441
857.238586,447
857.356201,460
857.473938,444
857.591614,454
857.709351,452
857.826965,464
857.944641,461
858.062317,460
858.179993,471
858.297668,438
858.415283,458
858.532959,450
858.650574,464
858.768188,455
858.885803,448
859.003479,471
859.121094,431
859.23877,459
859.356384,444
859.473999,475
859.591675,473
859.709229,447
859.826843,450
859.944458,448
860.062012,445
860.179626,424
860.297302,436
860.414856,455
860.532471,447
860.650024,464
860.767639,437
860.885193,462
861.002808,443
861.120361,432
861.237976,456
861.35553,465
861.473022,430
861.590698,456
861.708191,453
861.825745,438
861.943298,439
862.060852,439
862.178406,442
862.295959,447
862.413513,443
862.531006,445
862.64856,444
862.766113,449
862.883667,447
863.00116,449
863.118713,471
863.236206,455
863.353699,446
863.471252,428
863.588745,456
863.706177,440
863.82373,429
863.941162,463
864.058716,455
864.176208,466
864.29364,446
864.411194,443
864.528687,446
864.646118,466
864.763611,440
864.881042,453
864.998535,445
865.116028,456
865.233459,439
865.350891,463
865.468384,456
865.585754,466
865.703308,451
865.820679,451
865.938171,443
866.055542,455
866.173035,437
866.290466,443
866.407837,443
866.52533,437
866.6427,454
866.760071,466
866.877563,437
866.994934,445
867.112305,439
867.229736,442
867.347107,455
867.464539,470
867.58197,452
867.699341,448
867.81665,443
867.934082,462
868.051453,446
868.168823,462
868.286194,443
868.403564,457
868.520935,451
868.638306,460
868.755676,449
868.872986,447
868.990295,454
869.107727,469
869.225037,435
869.342346,472
869.459717,448
869.577026,462
869.694336,461
869.811707,461
869.929016,450
870.046326,444
870.163635,442
870.280945,439
870.398254,445
870.515564,465
870.632812,423
870.750183,457
870.867432,438
870.984741,439
871.102051,440
871.219299,458
871.336609,452
871.453918,464
871.571106,440
871.688416,445
871.805664,448
871.922852,440
872.040222,448
872.157471,456
872.274719,445
872.391968,446
872.509155,452
872.626465,454
872.743652,447
872.860962,446
872.978149,442
873.095337,448
873.212646,435
873.329834,454
873.44696,452
873.564209,443
873.681396,435
873.798645,452
873.915894,441
874.03302,444
874.150208,453
874.267456,445
874.384583,441
874.501831,440
874.618958,443
874.736145,449
874.853333,446
874.970459,469
875.087646,443
875.204834,454
875.32196,439
875.439148,454
875.556274,430
875.673401,464
875.790527,430
875.907715,441
876.024841,434
876.141968,464
876.259094,440
876.376282,442
876.493347,455
876.610474,451
876.7276,445
876.844727,447
876.961853,455
877.078918,452
877.195984,453
877.313171,448
877.430237,456
877.547302,442
877.664368,429
877.781433,458
877.898499,459
878.015625,461
878.13269,456
878.249695,462
878.366821,456
878.483887,453
878.600952,449
878.717957,450
878.834961,449
878.952087,465
879.069092,447
879.186157,431
879.303162,435
879.420227,456
879.537231,430
879.654236,448
879.77124,450
879.888306,455
880.005249,458
880.122314,450
880.239319,433
880.356323,448
880.473328,440
880.590271,448
880.707275,447
880.824341,459
880.941284,445
881.058228,441
881.175232,464
881.292236,455
881.40918,436
881.526123,457
881.643066,438
881.760071,471
881.877014,469
881.993958,450
882.11084,435
882.227783,456
882.344727,444
882.46167,467
882.578613,442
882.695618,453
882.812439,460
882.929382,449
883.046326,447
883.163208,450
883.280151,460
883.397034,459
883.513916,453
883.630798,451
883.747742,438
883.864563,472
883.981506,442
884.098389,468
884.21521,445
884.332153,439
884.448975,443
884.565796,461
884.682678,456
884.7995,473
884.916443,439
885.033264,449
885.150085,447
885.266968,465
885.383789,450
885.500671,439
885.617493,451
885.734314,468
885.851196,440
885.967896,454
886.084717,448
886.201599,456
886.318359,442
886.435181,458
886.552002,453
886.668762,468
886.785645,445
886.902344,458
887.019165,458
887.135925,462
887.252747,457
887.369446,448
887.486267,447
887.603027,472
887.719788,427
887.836548,450
887.953247,454
888.070068,450
888.186829,470
888.303528,464
888.420288,449
888.536987,466
888.653687,448
888.770447,478
888.887146,440
889.003967,450
889.120667,434
889.237305,462
889.354065,449
889.470703,463
889.587463,458
889.704163,466
889.820862,452
889.937561,444
890.054199,434
890.170837,456
890.287598,471
890.404236,459
890.520874,454
890.637634,440
890.754211,460
890.87085,465
890.987549,466
891.104187,470
891.220886,452
891.337463,451
891.454102,458
891.57074,467
891.687378,468
891.804077,443
891.920654,479
892.037231,481
892.15387,455
892.270447,459
892.387085,457
892.503723,454
892.6203,455
892.736877,467
892.853516,457
892.970032,459
893.08667,445
893.203186,470
893.319763,443
893.43634,452
893.552917,468
893.669556,458
893.786011,459
893.902588,471
894.019165,445
894.135681,459
894.252197,467
894.368835,474
894.485291,467
894.601868,460
894.718384,470
894.8349,471
894.951355,477
895.067932,474
895.184448,441
895.300964,446
895.417419,454
895.533936,457
895.650452,429
895.766907,464
895.883423,452
895.999878,454
896.116333,463
896.232849,452
896.349304,469
896.465759,452
896.582214,467
896.698669,449
896.815125,458
896.931641,459
897.048035,473
897.164551,469
897.280884,450
897.397339,471
897.513794,479
897.630249,461
897.746582,441
897.863098,436
897.979431,445
898.095886,466
898.212341,453
898.328674,464
898.445129,455
898.561462,451
898.677795,454
898.794312,461
898.910645,462
899.026978,469
899.143433,471
899.259766,462
899.37616,459
899.492493,461
899.608765,447
899.725159,459
899.841553,458
899.957947,471
900.07428,481
900.190552,456
900.306946,453
900.423157,463
900.53949,464
900.655884,466
900.772156,445
900.888489,464
901.004822,466
901.121033,481
901.237366,452
901.353699,467
901.46991,455
901.586304,473
901.702515,453
901.818787,462
901.93512,464
902.051331,457
902.167603,466
902.283875,486
902.400085,462
902.516418,470
902.632629,460
902.74884,471
902.865112,476
902.981384,471
903.097595,471
903.213867,468
903.330017,453
903.446289,475
903.5625,454
903.67865,465
903.794922,467
903.911072,465
904.027344,466
904.143494,447
904.259705,467
904.375916,462
904.492065,468
904.608215,464
904.724426,449
904.840576,456
904.956726,459
905.072876,475
905.189087,453
905.305176,471
905.421387,454
905.537537,470
905.653687,472
905.769775,483
905.885925,472
906.002014,455
906.118164,443
906.234314,493
906.350403,456
906.466492,467
906.582642,478
906.69873,452
906.814758,445
906.930908,473
907.046936,464
907.163086,468
907.279175,460
907.395264,464
907.511353,471
907.62738,460
907.743408,455
907.859497,472
907.975525,460
908.091553,475
908.207703,441
908.32373,486
908.439758,473
908.555786,468
908.671814,470
908.787842,481
908.90387,460
909.019775,486
909.135864,458
909.251892,463
909.367859,451
909.483826,470
909.599854,455
909.715881,472
909.831848,472
909.947815,485
910.063782,470
910.179749,481
910.295776,451
910.411743,459
910.527649,470
910.643616,465
910.759583,473
910.875488,472
910.991455,446
911.107361,458
911.223267,478
911.339294,454
911.4552,458
911.571106,469
911.687073,464
911.802979,487
911.918823,482
912.034729,465
912.150635,469
912.266602,480
912.382446,471
912.498352,465
912.614197,467
912.730103,455
912.846008,437
792.44574,599
792.56488,647
792.68396,681
792.80304,658
792.92218,627
793.041199,586
793.160339,630
793.279419,596
793.398499,613
793.517578,597
793.636658,570
793.755737,592
793.874817,618
793.993896,605
794.112976,620
794.232056,577
794.351074,610
794.470215,588
794.589233,582
794.708313,563
794.827393,580
794.946411,604
795.065552,605
795.18457,603
795.303589,588
795.422668,557
795.541687,581
795.660767,585
795.779846,595
795.898865,548
796.017883,589
796.136963,574
796.255981,585
796.375061,598
796.49408,590
796.613037,567
796.732117,565
796.851135,562
796.970154,576
797.089233,553
797.208191,570
797.327271,567
797.446228,576
797.565186,574
797.684265,570
797.803223,554
797.922241,571
798.04126,572
798.160278,564
798.279297,562
798.398315,553
798.517273,569
798.636292,577
798.75531,585
798.874268,590
798.993286,583
799.112244,573
799.231323,583
799.350281,572
799.469238,581
799.588257,587
799.707153,563
799.826111,567
799.945129,582
800.064087,566
800.183044,564
800.302063,574
800.421021,566
800.539978,575
800.658936,572
800.777893,573
800.896912,587
801.015747,586
801.134705,558
801.253723,579
801.37262,578
801.491638,578
801.610535,583
801.729492,592
801.84845,560
801.967407,558
802.086243,596
802.205261,588
802.324158,593
802.443115,589
802.562073,546
802.680969,593
802.799927,608
802.918762,585
803.037659,593
803.156677,589
803.275574,595
803.39447,596
803.513428,561
803.632263,582
803.751221,587
803.870117,600
803.989014,602
804.107971,623
804.226746,591
804.345642,610
804.4646,600
804.583496,603
804.702393,604
804.821228,608
804.940125,578
805.059021,586
805.177917,581
805.296814,577
805.415649,598
805.534546,600
805.653442,611
805.772278,616
805.891113,611
806.01001,612
806.128906,596
806.247742,596
806.366577,599
806.485413,605
806.604309,589
806.723145,614
806.84198,599
806.960876,595
807.079712,607
807.198486,600
807.317383,609
807.436218,613
807.554993,606
807.673889,621
807.792725,604
807.91156,619
808.030396,611
808.14917,601
808.268005,593
808.386841,609
808.505676,609
808.624451,639
808.743286,615
808.862122,634
808.980896,614
809.099731,618
809.218506,607
809.337341,621
809.456116,635
809.57489,642
809.693726,613
809.8125,600
809.931274,618
810.050049,654
810.168884,644
810.287659,629
810.406372,625
810.525269,640
810.643982,615
810.762756,639
810.881531,606
811.000305,647
811.11908,615
811.237854,614
811.356567,609
811.475403,652
811.594116,616
811.71283,629
811.831604,624
811.950378,628
812.069153,602
812.187927,637
812.30658,635
812.425415,609
812.544128,602
812.662781,612
812.781616,600
812.900269,630
813.019043,613
813.137756,624
813.256531,600
813.375244,643
813.493896,652
813.612671,636
813.731384,627
813.850037,626
813.96875,609
814.087524,610
814.206238,607
814.324951,630
814.443604,615
814.562256,619
814.68103,591
814.799683,636
814.918335,625
815.037109,611
815.155762,607
815.274475,633
815.393188,602
815.511841,619
815.630554,614
815.749146,617
815.867859,612
815.986572,625
816.105164,610
816.223877,592
816.342529,580
816.461182,610
816.579895,605
816.698486,609
816.817139,602
816.935791,611
817.054504,611
817.173096,610
817.291748,602
817.4104,617
817.529053,585
817.647644,585
817.766235,586
817.884949,576
818.00354,574
818.122192,571
818.240845,563
818.359436,559
818.478088,554
818.59668,544
818.715271,543
818.833923,531
818.952515,533
819.071106,513
819.189758,500
819.30835,512
819.426941,513
819.545532,501
819.664124,502
819.782715,519
819.901306,507
820.019897,515
820.138489,484
820.25708,506
820.375671,484
820.494202,498
820.612732,487
820.731384,489
820.849915,490
820.968506,489
821.087097,477
821.205627,510
821.324158,464
821.442749,476
821.561279,480
821.679871,502
821.798401,472
821.916931,493
822.035461,475
822.154053,458
822.272583,494
822.391174,483
822.509583,480
822.628174,481
822.746704,475
822.865234,491
822.983765,475
823.102295,507
823.220825,464
823.339294,481
823.457825,466
823.576355,479
823.694824,476
823.813354,485
823.931885,484
824.050354,474
824.168884,479
824.287354,512
824.405823,478
824.524353,491
824.642822,480
824.761353,471
824.879822,489
824.998291,503
825.116699,508
825.235291,473
825.353699,501
825.472168,464
825.590637,466
825.709106,503
825.827576,457
825.946045,482
826.064453,477
826.182983,479
826.301392,465
826.4198,471
826.53833,485
826.656738,476
826.775208,471
826.893677,448
827.012024,467
827.130493,490
827.248962,463
827.36731,459
827.485779,469
827.604248,459
827.722595,451
827.841064,479
827.959412,460
828.077942,458
828.196289,470
828.314636,457
828.433105,450
828.551514,466
828.669861,464
828.78833,444
828.906677,462
829.025085,454
829.143433,461
829.261841,467
829.38031,471
829.498657,479
829.617004,439
829.735413,460
829.85376,473
829.972107,451
830.090515,455
830.208862,501
830.327209,443
830.445557,474
830.563904,468
830.682312,464
830.800659,456
830.919006,465
831.037354,463
831.155701,471
831.274048,443
831.392395,460
831.51062,448
831.629028,455
831.747314,461
831.865662,469
831.984009,464
832.102356,465
832.220642,469
832.338928,456
832.457275,445
832.575623,452
832.693909,467
832.812134,456
832.930481,471
833.048828,460
833.167114,472
833.2854,477
833.403687,453
833.521973,460
833.640259,457
833.758545,441
833.876831,433
833.995056,464
834.113281,466
834.231628,458
834.349915,441
834.468201,475
834.586426,459
834.704651,459
834.822998,457
834.941162,474
835.059448,451
835.177673,455
835.295959,434
835.414246,468
835.53241,469
835.650635,452
835.768921,461
835.887146,459
836.005371,448
836.123596,463
836.241821,476
836.360046,484
836.478271,467
836.596497,472
836.714722,442
836.832886,475
836.95105,481
837.069336,477
837.1875,476
837.305725,448
837.423889,475
837.542053,488
837.660339,462
837.778503,466
837.896667,464
838.014832,455
838.132996,479
838.25116,477
838.369385,486
838.487488,477
838.605713,463
838.723877,474
838.84198,464
838.960205,448
839.078308,490
839.196472,468
839.314636,472
839.4328,468
839.550964,465
839.669067,448
839.787231,462
839.905396,457
840.023499,476
840.141602,474
840.259766,489
840.377869,449
840.495972,483
840.614136,466
840.732239,471
840.850342,475
840.968445,470
841.086548,465
841.204651,460
841.322754,459
841.440918,443
841.55896,473
841.677002,474
841.795166,472
841.913208,459
842.031311,467
842.149353,460
842.267456,463
842.385498,437
842.503601,455
842.621643,467
842.739746,460
842.857788,446
842.97583,458
843.093933,441
843.211975,443
843.330017,439
843.44812,470
843.566101,455
843.684204,450
843.802246,452
843.920227,480
844.038269,464
844.156311,434
844.274292,439
844.392395,441
844.510376,460
844.628357,456
844.74646,432
844.864441,465
844.982422,468
845.100403,463
845.218384,440
845.336426,454
845.454468,452
845.572449,449
845.69043,446
845.808411,443
845.926453,443
846.044373,453
846.162354,440
846.280396,451
846.398315,450
846.516296,440
846.634216,442
846.752197,470
846.870178,445
846.988098,449
847.106079,461
847.22406,449
847.34198,428
847.4599,455
847.577881,438
847.695801,463
847.813782,424
847.931641,434
848.049561,457
848.167603,447
848.285461,443
848.403381,451
848.521362,457
848.639221,443
848.75708,442
848.875,450
848.99292,455
849.110901,446
849.22876,448
849.34668,460
849.464539,450
849.582458,434
849.700317,449
849.818176,451
849.936096,443
850.053955,462
850.171875,429
850.289673,449
850.407593,450
850.525452,452
850.643311,459
850.761169,455
850.878967,440
850.996887,455
851.114746,466
851.232544,460
851.350403,453
851.468262,440
851.58606,435
851.703979,461
851.821777,452
851.939636,445
852.057434,448
852.175232,434
852.293091,443
852.410889,448
852.528687,439
852.646545,439
852.764343,435
852.88208,454
852.999939,437
853.117676,442
853.235535,456
853.353271,455
853.471069,471
853.588928,442
853.706604,448
853.824402,474
853.9422,445
854.059998,465
854.177734,442
854.295532,457
854.413269,443
854.531006,460
854.648804,442
854.766541,458
854.884277,460
855.002014,469
855.119751,433
855.237549,467
855.355225,444
855.473022,440
855.590698,461
855.708435,436
855.826172,474
855.943848,469
856.061646,443
856.179321,465
856.296997,453
856.414795,459
856.53241,476
856.650085,443
856.767822,450
856.885559,458
857.003174,462
857.120911,452
857.238586,439
857.356201,477
857.473938,459
857.591614,479
857.709351,441
857.826965,472
857.944641,441
858.062317,457
858.179993,451
858.297668,451
858.415283,452
858.532959,457
858.650574,446
858.768188,453
858.885803,459
859.003479,469
859.121094,452
859.23877,462
859.356384,454
859.473999,437
859.591675,441
859.709229,457
859.826843,451
859.944458,469
860.062012,451
860.179626,436
860.297302,441
860.414856,452
860.532471,462
860.650024,463
860.767639,447
860.885193,461
861.002808,447
861.120361,448
861.237976,446
861.35553,461
861.473022,461
861.590698,451
861.708191,442
861.825745,447
861.943298,434
862.060852,449
862.178406,440
862.295959,460
862.413513,467
862.531006,441
862.64856,448
862.766113,450
862.883667,467
863.00116,459
863.118713,437
863.236206,472
863.353699,447
863.471252,475
863.588745,445
863.706177,460
863.82373,436
863.941162,456
864.058716,462
864.176208,450
864.29364,457
864.411194,477
864.528687,455
864.646118,452
864.763611,447
864.881042,443
864.998535,453
865.116028,452
865.233459,445
865.350891,449
865.468384,445
865.585754,443
865.703308,453
865.820679,459
865.938171,449
866.055542,466
866.173035,449
866.290466,455
866.407837,452
866.52533,468
866.6427,457
866.760071,462
866.877563,464
866.994934,470
867.112305,461
867.229736,471
867.347107,438
867.464539,427
867.58197,466
867.699341,442
867.81665,456
867.934082,469
868.051453,443
868.168823,458
868.286194,450
868.403564,449
868.520935,453
868.638306,453
868.755676,454
868.872986,430
868.990295,456
869.107727,461
869.225037,458
869.342346,457
869.459717,464
869.577026,464
869.694336,445
869.811707,454
869.929016,452
870.046326,451
870.163635,441
870.280945,437
870.398254,441
870.515564,446
870.632812,455
870.750183,466
870.867432,456
870.984741,440
871.102051,454
871.219299,446
871.336609,437
871.453918,448
871.571106,442
871.688416,455
871.805664,436
871.922852,439
872.040222,446
872.157471,442
872.274719,450
872.391968,456
872.509155,446
872.626465,455
872.743652,446
872.860962,452
872.978149,465
873.095337,456
873.212646,445
873.329834,455
873.44696,444
873.564209,447
873.681396,452
873.798645,453
873.915894,437
874.03302,450
874.150208,433
874.267456,454
874.384583,455
874.501831,447
874.618958,446
874.736145,456
874.853333,456
874.970459,461
875.087646,465
875.204834,439
875.32196,462
875.439148,439
875.556274,462
875.673401,456
875.790527,463
875.907715,441
876.024841,444
876.141968,453
876.259094,446
876.376282,460
876.493347,476
876.610474,454
876.7276,433
876.844727,454
876.961853,454
877.078918,462
877.195984,434
877.313171,474
877.430237,429
877.547302,447
877.664368,467
877.781433,456
877.898499,431
878.015625,484
878.13269,446
878.249695,456
878.366821,461
878.483887,449
878.600952,446
878.717957,462
878.834961,458
878.952087,437
879.069092,464
879.186157,444
879.303162,456
879.420227,449
879.537231,436
879.654236,461
879.77124,466
879.888306,476
880.005249,450
880.122314,449
880.239319,447
880.356323,444
880.473328,448
880.590271,461
880.707275,452
880.824341,454
880.941284,444
881.058228,459
881.175232,457
881.292236,444
881.40918,467
881.526123,441
881.643066,442
881.760071,465
881.877014,446
881.993958,468
882.11084,455
882.227783,433
882.344727,454
882.46167,453
882.578613,449
882.695618,455
882.812439,452
882.929382,460
883.046326,442
883.163208,472
883.280151,452
883.397034,440
883.513916,444
883.630798,440
883.747742,432
883.864563,436
883.981506,450
884.098389,451
884.21521,453
884.332153,471
884.448975,461
884.565796,455
884.682678,465
884.7995,463
884.916443,464
885.033264,454
885.150085,459
885.266968,444
885.383789,461
885.500671,453
885.617493,463
885.734314,464
885.851196,459
885.967896,459
886.084717,440
886.201599,464
886.318359,449
886.435181,458
886.552002,461
886.668762,468
886.785645,442
886.902344,479
887.019165,456
887.135925,457
887.252747,444
887.369446,471
887.486267,440
887.603027,461
887.719788,464
887.836548,455
887.953247,454
888.070068,442
888.186829,436
888.303528,477
888.420288,461
888.536987,454
888.653687,450
888.770447,458
888.887146,433
889.003967,465
889.120667,442
889.237305,456
889.354065,464
889.470703,459
889.587463,460
889.704163,458
889.820862,448
889.937561,471
890.054199,443
890.170837,457
890.287598,457
890.404236,464
890.520874,461
890.637634,475
890.754211,463
890.87085,458
890.987549,447
891.104187,446
891.220886,454
891.337463,449
891.454102,446
891.57074,454
891.687378,447
891.804077,475
891.920654,453
892.037231,442
892.15387,456
892.270447,476
892.387085,473
892.503723,457
892.6203,442
892.736877,459
892.853516,457
892.970032,467
893.08667,431
893.203186,460
893.319763,465
893.43634,456
893.552917,455
893.669556,457
893.786011,457
893.902588,484
894.019165,452
894.135681,463
894.252197,452
894.368835,485
894.485291,469
894.601868,477
894.718384,455
894.8349,500
894.951355,458
895.067932,479
895.184448,468
895.300964,473
895.417419,465
895.533936,467
895.650452,462
895.766907,475
895.883423,442
895.999878,467
896.116333,467
896.232849,476
896.349304,478
896.465759,470
896.582214,453
896.698669,460
896.815125,470
896.931641,457
897.048035,455
897.164551,467
897.280884,446
897.397339,439
897.513794,463
897.630249,468
897.746582,459
897.863098,450
897.979431,467
898.095886,481
898.212341,471
898.328674,462
898.445129,452
898.561462,458
898.677795,465
898.794312,464
898.910645,452
899.026978,475
899.143433,446
899.259766,476
899.37616,447
899.492493,463
899.608765,468
899.725159,463
899.841553,471
899.957947,474
900.07428,450
900.190552,478
900.306946,472
900.423157,454
900.53949,471
900.655884,477
900.772156,465
900.888489,467
901.004822,446
901.121033,465
901.237366,460
901.353699,465
901.46991,479
901.586304,469
901.702515,459
901.818787,474
901.93512,456
902.051331,457
902.167603,473
902.283875,470
902.400085,477
902.516418,481
902.632629,450
902.74884,461
902.865112,469
902.981384,475
903.097595,480
903.213867,470
903.330017,463
903.446289,447
903.5625,462
903.67865,468
903.794922,460
903.911072,487
904.027344,468
904.143494,455
904.259705,474
904.375916,485
904.492065,467
904.608215,480
904.724426,456
904.840576,452
904.956726,447
905.072876,481
905.189087,461
905.305176,481
905.421387,459
905.537537,464
905.653687,478
905.769775,461
905.885925,467
906.002014,456
906.118164,484
906.234314,461
906.350403,455
906.466492,487
906.582642,471
906.69873,445
906.814758,455
906.930908,469
907.046936,467
907.163086,476
907.279175,459
907.395264,479
907.511353,483
907.62738,450
907.743408,470
907.859497,471
907.975525,474
908.091553,454
908.207703,475
908.32373,492
908.439758,468
908.555786,490
908.671814,445
908.787842,474
908.90387,471
909.019775,486
909.135864,475
909.251892,472
909.367859,485
909.483826,461
909.599854,472
909.715881,487
909.831848,463
909.947815,457
910.063782,472
910.179749,483
910.295776,459
910.411743,470
910.527649,460
910.643616,466
910.759583,465
910.875488,477
910.991455,463
911.107361,479
911.223267,481
911.339294,463
911.4552,444
911.571106,487
911.687073,472
911.802979,478
911.918823,458
912.034729,484
912.150635,453
912.266602,477
912.382446,460
912.498352,485
912.614197,477
912.730103,459
912.846008,468
