792.44574,1186
792.56488,1197
792.68396,1231
792.80304,1199
792.92218,1097
793.041199,1085
793.160339,1030
793.279419,1013
793.398499,1025
793.517578,990
793.636658,963
793.755737,979
793.874817,979
793.993896,944
794.112976,895
794.232056,916
794.351074,895
794.470215,874
794.589233,831
794.708313,884
794.827393,847
794.946411,812
795.065552,830
795.18457,855
795.303589,818
795.422668,815
795.541687,791
795.660767,775
795.779846,797
795.898865,758
796.017883,765
796.136963,745
796.255981,746
796.375061,741
796.49408,756
796.613037,727
796.732117,758
796.851135,722
796.970154,716
797.089233,722
797.208191,718
797.327271,728
797.446228,686
797.565186,695
797.684265,696
797.803223,689
797.922241,689
798.04126,684
798.160278,675
798.279297,695
798.398315,675
798.517273,671
798.636292,659
798.75531,690
798.874268,634
798.993286,669
799.112244,678
799.231323,668
799.350281,646
799.469238,661
799.588257,672
799.707153,672
799.826111,664
799.945129,637
800.064087,648
800.183044,636
800.302063,657
800.421021,632
800.539978,646
800.658936,649
800.777893,634
800.896912,632
801.015747,639
801.134705,655
801.253723,615
801.37262,643
801.491638,613
801.610535,593
801.729492,630
801.84845,617
801.967407,598
802.086243,615
802.205261,620
802.324158,625
802.443115,597
802.562073,617
802.680969,622
802.799927,609
802.918762,607
803.037659,592
803.156677,617
803.275574,635
803.39447,584
803.513428,605
803.632263,611
803.751221,610
803.870117,588
803.989014,583
804.107971,611
804.226746,597
804.345642,603
804.4646,586
804.583496,615
804.702393,579
804.821228,592
804.940125,592
805.059021,582
805.177917,588
805.296814,589
805.415649,596
805.534546,597
805.653442,593
805.772278,586
805.891113,636
806.01001,568
806.128906,599
806.247742,569
806.366577,573
806.485413,578
806.604309,587
806.723145,593
806.84198,591
806.960876,565
807.079712,603
807.198486,566
807.317383,586
807.436218,580
807.554993,568
807.673889,600
807.792725,575
807.91156,590
808.030396,603
808.14917,574
808.268005,579
808.386841,562
808.505676,577
808.624451,574
808.743286,576
808.862122,587
808.980896,590
809.099731,563
809.218506,579
809.337341,553
809.456116,570
809.57489,600
809.693726,566
809.8125,572
809.931274,570
810.050049,584
810.168884,570
810.287659,578
810.406372,562
810.525269,559
810.643982,559
810.762756,557
810.881531,585
811.000305,560
811.11908,572
811.237854,583
811.356567,606
811.475403,579
811.594116,576
811.71283,580
811.831604,576
811.950378,567
812.069153,599
812.187927,594
812.30658,572
812.425415,573
812.544128,595
812.662781,589
812.781616,600
812.900269,579
813.019043,554
813.137756,599
813.256531,594
813.375244,577
813.493896,563
813.612671,599
813.731384,553
813.850037,563
813.96875,571
814.087524,544
814.206238,567
814.324951,581
814.443604,575
814.562256,543
814.68103,567
814.799683,582
814.918335,565
815.037109,582
815.155762,575
815.274475,587
815.393188,573
815.511841,542
815.630554,550
815.749146,561
815.867859,565
815.986572,566
816.105164,589
816.223877,576
816.342529,570
816.461182,564
816.579895,561
816.698486,576
816.817139,602
816.935791,554
817.054504,570
817.173096,580
817.291748,575
817.4104,589
817.529053,583
817.647644,531
817.766235,539
817.884949,553
818.00354,564
818.122192,540
818.240845,574
818.359436,549
818.478088,550
818.59668,533
818.715271,546
818.833923,544
818.952515,539
819.071106,531
819.189758,551
819.30835,522
819.426941,532
819.545532,529
819.664124,537
819.782715,554
819.901306,544
820.019897,529
820.138489,544
820.25708,523
820.375671,544
820.494202,530
820.612732,512
820.731384,523
820.849915,519
820.968506,519
821.087097,527
821.205627,521
821.324158,507
821.442749,507
821.561279,522
821.679871,518
821.798401,524
821.916931,510
822.035461,515
822.154053,522
822.272583,504
822.391174,521
822.509583,528
822.628174,496
822.746704,519
822.865234,516
822.983765,513
823.102295,493
823.220825,498
823.339294,505
823.457825,475
823.576355,496
823.694824,496
823.813354,495
823.931885,503
824.050354,506
824.168884,493
824.287354,509
824.405823,511
824.524353,505
824.642822,522
824.761353,496
824.879822,520
824.998291,501
825.116699,525
825.235291,519
825.353699,496
825.472168,503
825.590637,544
825.709106,525
825.827576,515
825.946045,505
826.064453,502
826.182983,511
826.301392,484
826.4198,480
826.53833,495
826.656738,507
826.775208,497
826.893677,514
827.012024,500
827.130493,497
827.248962,506
827.36731,488
827.485779,513
827.604248,507
827.722595,483
827.841064,487
827.959412,517
828.077942,483
828.196289,522
828.314636,503
828.433105,486
828.551514,496
828.669861,500
828.78833,486
828.906677,494
829.025085,496
829.143433,496
829.261841,509
829.38031,503
829.498657,486
829.617004,508
829.735413,502
829.85376,515
829.972107,480
830.090515,487
830.208862,506
830.327209,492
830.445557,497
830.563904,499
830.682312,489
830.800659,496
830.919006,514
831.037354,497
831.155701,519
831.274048,502
831.392395,491
831.51062,492
831.629028,497
831.747314,508
831.865662,515
831.984009,509
832.102356,476
832.220642,495
832.338928,509
832.457275,535
832.575623,517
832.693909,513
832.812134,514
832.930481,505
833.048828,506
833.167114,507
833.2854,502
833.403687,511
833.521973,511
833.640259,503
833.758545,533
833.876831,513
833.995056,509
834.113281,502
834.231628,511
834.349915,533
834.468201,523
834.586426,539
834.704651,511
834.822998,523
834.941162,514
835.059448,500
835.177673,501
835.295959,503
835.414246,485
835.53241,506
835.650635,508
835.768921,514
835.887146,491
836.005371,493
836.123596,482
836.241821,505
836.360046,500
836.478271,493
836.596497,482
836.714722,519
836.832886,506
836.95105,507
837.069336,517
837.1875,496
837.305725,508
837.423889,497
837.542053,499
837.660339,507
837.778503,500
837.896667,490
838.014832,517
838.132996,491
838.25116,503
838.369385,500
838.487488,498
838.605713,507
838.723877,503
838.84198,526
838.960205,487
839.078308,516
839.196472,524
839.314636,523
839.4328,499
839.550964,528
839.669067,523
839.787231,521
839.905396,537
840.023499,523
840.141602,532
840.259766,534
840.377869,512
840.495972,538
840.614136,541
840.732239,528
840.850342,516
840.968445,536
841.086548,554
841.204651,542
841.322754,526
841.440918,537
841.55896,548
841.677002,570
841.795166,555
841.913208,553
842.031311,567
842.149353,558
842.267456,548
842.385498,547
842.503601,555
842.621643,537
842.739746,528
842.857788,529
842.97583,539
843.093933,543
843.211975,527
843.330017,551
843.44812,557
843.566101,544
843.684204,532
843.802246,532
843.920227,531
844.038269,536
844.156311,547
844.274292,512
844.392395,529
844.510376,528
844.628357,527
844.74646,528
844.864441,529
844.982422,532
845.100403,559
845.218384,529
845.336426,545
845.454468,524
845.572449,534
845.69043,515
845.808411,525
845.926453,532
846.044373,530
846.162354,515
846.280396,531
846.398315,542
846.516296,531
846.634216,540
846.752197,517
846.870178,530
846.988098,529
847.106079,547
847.22406,513
847.34198,550
847.4599,533
847.577881,537
847.695801,514
847.813782,529
847.931641,530
848.049561,542
848.167603,504
848.285461,533
848.403381,542
848.521362,541
848.639221,520
848.75708,525
848.875,527
848.99292,540
849.110901,567
849.22876,532
849.34668,532
849.464539,547
849.582458,527
849.700317,531
849.818176,552
849.936096,539
850.053955,522
850.171875,536
850.289673,538
850.407593,522
850.525452,543
850.643311,519
850.761169,535
850.878967,530
850.996887,516
851.114746,524
851.232544,529
851.350403,528
851.468262,550
851.58606,520
851.703979,521
851.821777,507
851.939636,532
852.057434,533
852.175232,532
852.293091,536
852.410889,567
852.528687,541
852.646545,569
852.764343,581
852.88208,550
852.999939,570
853.117676,513
853.235535,542
853.353271,532
853.471069,538
853.588928,517
853.706604,524
853.824402,531
853.9422,535
854.059998,521
854.177734,538
854.295532,545
854.413269,538
854.531006,523
854.648804,551
854.766541,535
854.884277,536
855.002014,533
855.119751,539
855.237549,526
855.355225,549
855.473022,533
855.590698,541
855.708435,550
855.826172,530
855.943848,516
856.061646,555
856.179321,529
856.296997,512
856.414795,526
856.53241,561
856.650085,569
856.767822,537
856.885559,543
857.003174,565
857.120911,548
857.238586,558
857.356201,539
857.473938,549
857.591614,564
857.709351,557
857.826965,534
857.944641,545
858.062317,547
858.179993,554
858.297668,566
858.415283,566
858.532959,520
858.650574,544
858.768188,533
858.885803,551
859.003479,520
859.121094,543
859.23877,556
859.356384,549
859.473999,567
859.591675,562
859.709229,539
859.826843,536
859.944458,526
860.062012,520
860.179626,529
860.297302,552
860.414856,515
860.532471,533
860.650024,520
860.767639,547
860.885193,528
861.002808,507
861.120361,523
861.237976,521
861.35553,535
861.473022,544
861.590698,539
861.708191,526
861.825745,547
861.943298,523
862.060852,508
862.178406,529
862.295959,501
862.413513,514
862.531006,519
862.64856,511
862.766113,493
862.883667,512
863.00116,480
863.118713,504
863.236206,529
863.353699,515
863.471252,492
863.588745,515
863.706177,506
863.82373,517
863.941162,530
864.058716,532
864.176208,513
864.29364,523
864.411194,527
864.528687,516
864.646118,522
864.763611,510
864.881042,509
864.998535,485
865.116028,504
865.233459,520
865.350891,491
865.468384,493
865.585754,480
865.703308,491
865.820679,513
865.938171,526
866.055542,520
866.173035,526
866.290466,526
866.407837,501
866.52533,511
866.6427,498
866.760071,501
866.877563,513
866.994934,501
867.112305,516
867.229736,505
867.347107,513
867.464539,519
867.58197,507
867.699341,511
867.81665,521
867.934082,492
868.051453,498
868.168823,507
868.286194,530
868.403564,501
868.520935,512
868.638306,531
868.755676,523
868.872986,524
868.990295,519
869.107727,511
869.225037,533
869.342346,523
869.459717,536
869.577026,526
869.694336,548
869.811707,515
869.929016,546
870.046326,538
870.163635,516
870.280945,532
870.398254,545
870.515564,545
870.632812,540
870.750183,529
870.867432,551
870.984741,560
871.102051,540
871.219299,566
871.336609,559
871.453918,549
871.571106,567
871.688416,567
871.805664,555
871.922852,559
872.040222,547
872.157471,569
872.274719,560
872.391968,553
872.509155,557
872.626465,558
872.743652,547
872.860962,542
872.978149,531
873.095337,566
873.212646,535
873.329834,563
873.44696,540
873.564209,529
873.681396,550
873.798645,546
873.915894,540
874.03302,525
874.150208,559
874.267456,541
874.384583,540
874.501831,559
874.618958,562
874.736145,551
874.853333,559
874.970459,548
875.087646,572
875.204834,534
875.32196,554
875.439148,528
875.556274,533
875.673401,552
875.790527,531
875.907715,556
876.024841,535
876.141968,543
876.259094,522
876.376282,546
876.493347,554
876.610474,527
876.7276,518
876.844727,499
876.961853,538
877.078918,542
877.195984,521
877.313171,533
877.430237,518
877.547302,531
877.664368,526
877.781433,543
877.898499,531
878.015625,533
878.13269,523
878.249695,517
878.366821,540
878.483887,549
878.600952,515
878.717957,512
878.834961,509
878.952087,511
879.069092,533
879.186157,500
879.303162,516
879.420227,513
879.537231,492
879.654236,510
879.77124,501
879.888306,496
880.005249,509
880.122314,487
880.239319,510
880.356323,487
880.473328,507
880.590271,503
880.707275,512
880.824341,505
880.941284,508
881.058228,495
881.175232,499
881.292236,518
881.40918,510
881.526123,495
881.643066,486
881.760071,514
881.877014,512
881.993958,505
882.11084,515
882.227783,493
882.344727,483
882.46167,494
882.578613,517
882.695618,519
882.812439,483
882.929382,492
883.046326,489
883.163208,510
883.280151,512
883.397034,500
883.513916,490
883.630798,513
883.747742,490
883.864563,533
883.981506,490
884.098389,487
884.21521,505
884.332153,522
884.448975,514
884.565796,522
884.682678,571
884.7995,553
884.916443,564
885.033264,578
885.150085,573
885.266968,567
885.383789,599
885.500671,623
885.617493,614
885.734314,591
885.851196,612
885.967896,584
886.084717,585
886.201599,589
886.318359,599
886.435181,592
886.552002,578
886.668762,589
886.785645,599
886.902344,590
887.019165,578
887.135925,575
887.252747,579
887.369446,602
887.486267,557
887.603027,556
887.719788,538
887.836548,543
887.953247,531
888.070068,526
888.186829,524
888.303528,531
888.420288,512
888.536987,513
888.653687,499
888.770447,505
888.887146,492
889.003967,512
889.120667,480
889.237305,468
889.354065,475
889.470703,505
889.587463,471
889.704163,490
889.820862,481
889.937561,506
890.054199,491
890.170837,482
890.287598,478
890.404236,476
890.520874,496
890.637634,475
890.754211,492
890.87085,484
890.987549,487
891.104187,494
891.220886,480
891.337463,495
891.454102,483
891.57074,485
891.687378,468
891.804077,487
891.920654,492
892.037231,493
892.15387,489
892.270447,489
892.387085,494
892.503723,483
892.6203,492
892.736877,480
892.853516,499
892.970032,464
893.08667,487
893.203186,479
893.319763,472
893.43634,467
893.552917,496
893.669556,495
893.786011,493
893.902588,495
894.019165,496
894.135681,483
894.252197,484
894.368835,485
894.485291,488
894.601868,469
894.718384,484
894.8349,489
894.951355,487
895.067932,466
895.184448,487
895.300964,474
895.417419,482
895.533936,494
895.650452,494
895.766907,464
895.883423,492
895.999878,467
896.116333,460
896.232849,469
896.349304,485
896.465759,469
896.582214,472
896.698669,485
896.815125,474
896.931641,478
897.048035,465
897.164551,480
897.280884,484
897.397339,490
897.513794,481
897.630249,479
897.746582,477
897.863098,467
897.979431,487
898.095886,483
898.212341,487
898.328674,474
898.445129,504
898.561462,490
898.677795,509
898.794312,480
898.910645,493
899.026978,482
899.143433,479
899.259766,504
899.37616,492
899.492493,488
899.608765,489
899.725159,488
899.841553,485
899.957947,476
900.07428,502
900.190552,477
900.306946,499
900.423157,467
900.53949,466
900.655884,503
900.772156,483
900.888489,484
901.004822,501
901.121033,494
901.237366,488
901.353699,482
901.46991,507
901.586304,517
901.702515,511
901.818787,489
901.93512,518
902.051331,517
902.167603,506
902.283875,528
902.400085,524
902.516418,523
902.632629,547
902.74884,555
902.865112,547
902.981384,547
903.097595,553
903.213867,550
903.330017,544
903.446289,523
903.5625,541
903.67865,522
903.794922,538
903.911072,523
904.027344,519
904.143494,535
904.259705,511
904.375916,516
904.492065,509
904.608215,487
904.724426,498
904.840576,491
904.956726,512
905.072876,478
905.189087,504
905.305176,478
905.421387,478
905.537537,479
905.653687,487
905.769775,477
905.885925,473
906.002014,483
906.118164,473
906.234314,491
906.350403,478
906.466492,478
906.582642,488
906.69873,489
906.814758,479
906.930908,489
907.046936,466
907.163086,467
907.279175,493
907.395264,466
907.511353,486
907.62738,469
907.743408,464
907.859497,469
907.975525,468
908.091553,458
908.207703,470
908.32373,479
908.439758,485
908.555786,469
908.671814,491
908.787842,481
908.90387,481
909.019775,465
909.135864,482
909.251892,473
909.367859,497
909.483826,482
909.599854,478
909.715881,473
909.831848,454
909.947815,469
910.063782,485
910.179749,477
910.295776,489
910.411743,472
910.527649,476
910.643616,472
910.759583,482
910.875488,476
910.991455,479
911.107361,477
911.223267,464
911.339294,469
911.4552,460
911.571106,457
911.687073,471
911.802979,461
911.918823,454
912.034729,446
912.150635,460
912.266602,468
912.382446,465
912.498352,484
912.614197,475
912.730103,457
912.846008,494
792.44574,1172
792.56488,1194
792.68396,1205
792.80304,1173
792.92218,1084
793.041199,1041
793.160339,1033
793.279419,1049
793.398499,1034
793.517578,985
793.636658,934
793.755737,961
793.874817,975
793.993896,941
794.112976,906
794.232056,883
794.351074,904
794.470215,901
794.589233,861
794.708313,858
794.827393,840
794.946411,814
795.065552,823
795.18457,826
795.303589,807
795.422668,835
795.541687,817
795.660767,766
795.779846,751
795.898865,782
796.017883,755
796.136963,782
796.255981,741
796.375061,736
796.49408,746
796.613037,763
796.732117,741
796.851135,716
796.970154,726
797.089233,729
797.208191,719
797.327271,709
797.446228,706
797.565186,720
797.684265,694
797.803223,672
797.922241,693
798.04126,682
798.160278,691
798.279297,677
798.398315,677
798.517273,671
798.636292,689
798.75531,651
798.874268,673
798.993286,677
799.112244,643
799.231323,676
799.350281,666
799.469238,662
799.588257,668
799.707153,650
799.826111,649
799.945129,663
800.064087,668
800.183044,637
800.302063,634
800.421021,632
800.539978,643
800.658936,645
800.777893,632
800.896912,627
801.015747,658
801.134705,645
801.253723,634
801.37262,624
801.491638,629
801.610535,633
801.729492,619
801.84845,624
801.967407,613
802.086243,630
802.205261,598
802.324158,617
802.443115,627
802.562073,610
802.680969,621
802.799927,593
802.918762,618
803.037659,592
803.156677,608
803.275574,595
803.39447,606
803.513428,605
803.632263,606
803.751221,617
803.870117,600
803.989014,606
804.107971,581
804.226746,597
804.345642,590
804.4646,572
804.583496,599
804.702393,592
804.821228,583
804.940125,613
805.059021,587
805.177917,572
805.296814,600
805.415649,566
805.534546,574
805.653442,587
805.772278,592
805.891113,597
806.01001,587
806.128906,594
806.247742,596
806.366577,581
806.485413,594
806.604309,593
806.723145,591
806.84198,580
806.960876,582
807.079712,598
807.198486,598
807.317383,568
807.436218,573
807.554993,602
807.673889,576
807.792725,593
807.91156,566
808.030396,588
808.14917,594
808.268005,582
808.386841,574
808.505676,572
808.624451,589
808.743286,580
808.862122,575
808.980896,568
809.099731,564
809.218506,570
809.337341,567
809.456116,564
809.57489,583
809.693726,563
809.8125,573
809.931274,576
810.050049,576
810.168884,570
810.287659,571
810.406372,575
810.525269,593
810.643982,573
810.762756,575
810.881531,566
811.000305,574
811.11908,571
811.237854,589
811.356567,574
811.475403,594
811.594116,572
811.71283,584
811.831604,587
811.950378,572
812.069153,591
812.187927,588
812.30658,589
812.425415,610
812.544128,581
812.662781,569
812.781616,593
812.900269,564
813.019043,581
813.137756,569
813.256531,579
813.375244,572
813.493896,576
813.612671,569
813.731384,565
813.850037,594
813.96875,569
814.087524,552
814.206238,579
814.324951,587
814.443604,587
814.562256,553
814.68103,563
814.799683,568
814.918335,562
815.037109,564
815.155762,577
815.274475,568
815.393188,585
815.511841,554
815.630554,550
815.749146,548
815.867859,578
815.986572,557
816.105164,562
816.223877,578
816.342529,572
816.461182,550
816.579895,598
816.698486,563
816.817139,561
816.935791,565
817.054504,567
817.173096,567
817.291748,577
817.4104,565
817.529053,575
817.647644,564
817.766235,543
817.884949,560
818.00354,578
818.122192,564
818.240845,544
818.359436,534
818.478088,548
818.59668,534
818.715271,566
818.833923,533
818.952515,541
819.071106,541
819.189758,544
819.30835,545
819.426941,531
819.545532,532
819.664124,535
819.782715,526
819.901306,519
820.019897,518
820.138489,527
820.25708,525
820.375671,523
820.494202,531
820.612732,516
820.731384,530
820.849915,529
820.968506,495
821.087097,510
821.205627,512
821.324158,504
821.442749,520
821.561279,531
821.679871,494
821.798401,519
821.916931,529
822.035461,497
822.154053,523
822.272583,504
822.391174,497
822.509583,533
822.628174,521
822.746704,523
822.865234,519
822.983765,512
823.102295,501
823.220825,498
823.339294,499
823.457825,515
823.576355,504
823.694824,510
823.813354,486
823.931885,526
824.050354,519
824.168884,487
824.287354,508
824.405823,511
824.524353,506
824.642822,510
824.761353,495
824.879822,531
824.998291,499
825.116699,507
825.235291,507
825.353699,513
825.472168,520
825.590637,479
825.709106,490
825.827576,504
825.946045,494
826.064453,515
826.182983,503
826.301392,522
826.4198,494
826.53833,513
826.656738,543
826.775208,499
826.893677,511
827.012024,508
827.130493,499
827.248962,509
827.36731,522
827.485779,509
827.604248,513
827.722595,509
827.841064,519
827.959412,522
828.077942,503
828.196289,494
828.314636,503
828.433105,497
828.551514,487
828.669861,511
828.78833,501
828.906677,511
829.025085,495
829.143433,499
829.261841,491
829.38031,489
829.498657,503
829.617004,513
829.735413,505
829.85376,500
829.972107,518
830.090515,501
830.208862,505
830.327209,487
830.445557,499
830.563904,493
830.682312,514
830.800659,494
830.919006,502
831.037354,520
831.155701,524
831.274048,500
831.392395,485
831.51062,515
831.629028,505
831.747314,490
831.865662,497
831.984009,495
832.102356,500
832.220642,485
832.338928,517
832.457275,502
832.575623,491
832.693909,510
832.812134,520
832.930481,516
833.048828,510
833.167114,527
833.2854,496
833.403687,503
833.521973,505
833.640259,497
833.758545,499
833.876831,507
833.995056,495
834.113281,484
834.231628,527
834.349915,502
834.468201,493
834.586426,493
834.704651,517
834.822998,507
834.941162,518
835.059448,520
835.177673,492
835.295959,513
835.414246,507
835.53241,514
835.650635,506
835.768921,491
835.887146,496
836.005371,514
836.123596,507
836.241821,499
836.360046,492
836.478271,505
836.596497,509
836.714722,503
836.832886,489
836.95105,496
837.069336,498
837.1875,501
837.305725,503
837.423889,483
837.542053,506
837.660339,497
837.778503,521
837.896667,487
838.014832,495
838.132996,514
838.25116,528
838.369385,508
838.487488,504
838.605713,508
838.723877,495
838.84198,507
838.960205,501
839.078308,506
839.196472,523
839.314636,500
839.4328,522
839.550964,524
839.669067,508
839.787231,525
839.905396,523
840.023499,551
840.141602,517
840.259766,542
840.377869,538
840.495972,551
840.614136,553
840.732239,533
840.850342,541
840.968445,526
841.086548,523
841.204651,535
841.322754,529
841.440918,553
841.55896,539
841.677002,543
841.795166,545
841.913208,566
842.031311,549
842.149353,549
842.267456,547
842.385498,541
842.503601,535
842.621643,545
842.739746,541
842.857788,546
842.97583,524
843.093933,553
843.211975,522
843.330017,577
843.44812,541
843.566101,552
843.684204,547
843.802246,522
843.920227,527
844.038269,532
844.156311,563
844.274292,533
844.392395,545
844.510376,540
844.628357,540
844.74646,543
844.864441,506
844.982422,556
845.100403,548
845.218384,531
845.336426,537
845.454468,552
845.572449,540
845.69043,535
845.808411,538
845.926453,536
846.044373,525
846.162354,521
846.280396,533
846.398315,534
846.516296,510
846.634216,540
846.752197,532
846.870178,553
846.988098,536
847.106079,540
847.22406,538
847.34198,538
847.4599,536
847.577881,529
847.695801,520
847.813782,552
847.931641,536
848.049561,541
848.167603,526
848.285461,545
848.403381,532
848.521362,544
848.639221,530
848.75708,516
848.875,533
848.99292,506
849.110901,518
849.22876,549
849.34668,526
849.464539,560
849.582458,542
849.700317,533
849.818176,547
849.936096,527
850.053955,561
850.171875,540
850.289673,537
850.407593,547
850.525452,521
850.643311,537
850.761169,546
850.878967,514
850.996887,519
851.114746,532
851.232544,538
851.350403,525
851.468262,529
851.58606,521
851.703979,536
851.821777,546
851.939636,535
852.057434,553
852.175232,539
852.293091,535
852.410889,545
852.528687,571
852.646545,561
852.764343,563
852.88208,562
852.999939,538
853.117676,542
853.235535,539
853.353271,538
853.471069,538
853.588928,519
853.706604,513
853.824402,527
853.9422,529
854.059998,536
854.177734,550
854.295532,505
854.413269,531
854.531006,540
854.648804,544
854.766541,543
854.884277,566
855.002014,535
855.119751,541
855.237549,539
855.355225,533
855.473022,545
855.590698,540
855.708435,528
855.826172,508
855.943848,528
856.061646,544
856.179321,531
856.296997,526
856.414795,554
856.53241,554
856.650085,550
856.767822,537
856.885559,544
857.003174,562
857.120911,552
857.238586,553
857.356201,531
857.473938,550
857.591614,549
857.709351,544
857.826965,565
857.944641,563
858.062317,549
858.179993,566
858.297668,546
858.415283,541
858.532959,549
858.650574,554
858.768188,561
858.885803,564
859.003479,550
859.121094,564
859.23877,554
859.356384,530
859.473999,551
859.591675,540
859.709229,540
859.826843,539
859.944458,527
860.062012,549
860.179626,525
860.297302,534
860.414856,537
860.532471,515
860.650024,514
860.767639,546
860.885193,516
861.002808,517
861.120361,563
861.237976,549
861.35553,533
861.473022,535
861.590698,542
861.708191,508
861.825745,523
861.943298,527
862.060852,525
862.178406,530
862.295959,529
862.413513,522
862.531006,499
862.64856,499
862.766113,513
862.883667,518
863.00116,494
863.118713,498
863.236206,513
863.353699,491
863.471252,502
863.588745,512
863.706177,499
863.82373,513
863.941162,517
864.058716,500
864.176208,513
864.29364,526
864.411194,514
864.528687,543
864.646118,515
864.763611,516
864.881042,522
864.998535,502
865.116028,498
865.233459,519
865.350891,516
865.468384,513
865.585754,504
865.703308,500
865.820679,514
865.938171,524
866.055542,484
866.173035,504
866.290466,493
866.407837,499
866.52533,506
866.6427,515
866.760071,500
866.877563,513
866.994934,520
867.112305,498
867.229736,530
867.347107,531
867.464539,529
867.58197,512
867.699341,520
867.81665,512
867.934082,499
868.051453,520
868.168823,513
868.286194,518
868.403564,528
868.520935,520
868.638306,520
868.755676,487
868.872986,539
868.990295,526
869.107727,511
869.225037,516
869.342346,537
869.459717,536
869.577026,530
869.694336,537
869.811707,516
869.929016,555
870.046326,543
870.163635,545
870.280945,542
870.398254,542
870.515564,531
870.632812,531
870.750183,552
870.867432,545
870.984741,564
871.102051,566
871.219299,554
871.336609,549
871.453918,556
871.571106,548
871.688416,559
871.805664,564
871.922852,561
872.040222,555
872.157471,565
872.274719,573
872.391968,569
872.509155,557
872.626465,546
872.743652,557
872.860962,563
872.978149,555
873.095337,537
873.212646,552
873.329834,553
873.44696,548
873.564209,560
873.681396,559
873.798645,552
873.915894,538
874.03302,529
874.150208,541
874.267456,540
874.384583,568
874.501831,573
874.618958,564
874.736145,544
874.853333,568
874.970459,558
875.087646,541
875.204834,560
875.32196,561
875.439148,555
875.556274,552
875.673401,557
875.790527,534
875.907715,537
876.024841,537
876.141968,518
876.259094,533
876.376282,536
876.493347,565
876.610474,543
876.7276,560
876.844727,536
876.961853,520
877.078918,546
877.195984,534
877.313171,539
877.430237,547
877.547302,530
877.664368,505
877.781433,524
877.898499,541
878.015625,541
878.13269,534
878.249695,521
878.366821,531
878.483887,499
878.600952,542
878.717957,527
878.834961,514
878.952087,529
879.069092,510
879.186157,517
879.303162,519
879.420227,525
879.537231,521
879.654236,497
879.77124,513
879.888306,501
880.005249,515
880.122314,489
880.239319,487
880.356323,512
880.473328,508
880.590271,499
880.707275,513
880.824341,499
880.941284,508
881.058228,499
881.175232,503
881.292236,503
881.40918,494
881.526123,514
881.643066,497
881.760071,522
881.877014,477
881.993958,518
882.11084,500
882.227783,480
882.344727,486
882.46167,517
882.578613,514
882.695618,498
882.812439,482
882.929382,483
883.046326,489
883.163208,486
883.280151,509
883.397034,489
883.513916,502
883.630798,503
883.747742,505
883.864563,511
883.981506,517
884.098389,527
884.21521,515
884.332153,530
884.448975,528
884.565796,527
884.682678,525
884.7995,547
884.916443,572
885.033264,570
885.150085,568
885.266968,617
885.383789,585
885.500671,594
885.617493,623
885.734314,612
885.851196,595
885.967896,614
886.084717,627
886.201599,595
886.318359,588
886.435181,593
886.552002,604
886.668762,598
886.785645,591
886.902344,562
887.019165,585
887.135925,556
887.252747,589
887.369446,552
887.486267,556
887.603027,574
887.719788,546
887.836548,540
887.953247,535
888.070068,545
888.186829,538
888.303528,528
888.420288,513
888.536987,491
888.653687,511
888.770447,490
888.887146,482
889.003967,502
889.120667,506
889.237305,507
889.354065,489
889.470703,477
889.587463,477
889.704163,481
889.820862,494
889.937561,490
890.054199,492
890.170837,475
890.287598,488
890.404236,469
890.520874,489
890.637634,474
890.754211,471
890.87085,481
890.987549,484
891.104187,472
891.220886,477
891.337463,484
891.454102,496
891.57074,476
891.687378,495
891.804077,490
891.920654,472
892.037231,502
892.15387,495
892.270447,472
892.387085,471
892.503723,487
892.6203,513
892.736877,487
892.853516,487
892.970032,441
893.08667,496
893.203186,509
893.319763,482
893.43634,494
893.552917,485
893.669556,501
893.786011,487
893.902588,481
894.019165,485
894.135681,487
894.252197,490
894.368835,475
894.485291,505
894.601868,494
894.718384,486
894.8349,488
894.951355,491
895.067932,487
895.184448,480
895.300964,494
895.417419,481
895.533936,483
895.650452,469
895.766907,479
895.883423,472
895.999878,461
896.116333,482
896.232849,481
896.349304,474
896.465759,477
896.582214,491
896.698669,476
896.815125,466
896.931641,479
897.048035,487
897.164551,498
897.280884,462
897.397339,478
897.513794,477
897.630249,489
897.746582,509
897.863098,471
897.979431,493
898.095886,494
898.212341,470
898.328674,476
898.445129,493
898.561462,500
898.677795,483
898.794312,490
898.910645,483
899.026978,488
899.143433,470
899.259766,481
899.37616,490
899.492493,490
899.608765,496
899.725159,492
899.841553,488
899.957947,480
900.07428,489
900.190552,482
900.306946,491
900.423157,493
900.53949,484
900.655884,471
900.772156,478
900.888489,479
901.004822,495
901.121033,488
901.237366,502
901.353699,489
901.46991,517
901.586304,490
901.702515,514
901.818787,484
901.93512,511
902.051331,512
902.167603,542
902.283875,509
902.400085,530
902.516418,523
902.632629,533
902.74884,555
902.865112,565
902.981384,555
903.097595,552
903.213867,537
903.330017,551
903.446289,532
903.5625,525
903.67865,501
903.794922,561
903.911072,521
904.027344,516
904.143494,518
904.259705,526
904.375916,506
904.492065,515
904.608215,515
904.724426,518
904.840576,487
904.956726,497
905.072876,483
905.189087,494
905.305176,481
905.421387,511
905.537537,504
905.653687,487
905.769775,488
905.885925,487
906.002014,472
906.118164,479
906.234314,490
906.350403,491
906.466492,471
906.582642,456
906.69873,469
906.814758,475
906.930908,468
907.046936,474
907.163086,478
907.279175,474
907.395264,469
907.511353,499
907.62738,478
907.743408,486
907.859497,470
907.975525,486
908.091553,488
908.207703,491
908.32373,490
908.439758,481
908.555786,489
908.671814,486
908.787842,486
908.90387,483
909.019775,475
909.135864,491
909.251892,482
909.367859,476
909.483826,481
909.599854,490
909.715881,467
909.831848,472
909.947815,489
910.063782,496
910.179749,472
910.295776,494
910.411743,466
910.527649,477
910.643616,479
910.759583,481
910.875488,495
910.991455,481
911.107361,464
911.223267,495
911.339294,465
911.4552,481
911.571106,478
911.687073,479
911.802979,468
911.918823,480
912.034729,500
912.150635,464
912.266602,503
912.382446,481
912.498352,477
912.614197,462
912.730103,457
912.846008,478
792.44574,1225
792.56488,1189
792.68396,1211
792.80304,1216
792.92218,1096
793.041199,1075
793.160339,1050
793.279419,1064
793.398499,1018
793.517578,971
793.636658,967
793.755737,1003
793.874817,956
793.993896,904
794.112976,927
794.232056,887
794.351074,897
794.470215,898
794.589233,869
794.708313,846
794.827393,830
794.946411,821
795.065552,828
795.18457,817
795.303589,814
795.422668,799
795.541687,815
795.660767,795
795.779846,786
795.898865,767
796.017883,739
796.136963,734
796.255981,764
796.375061,745
796.49408,735
796.613037,736
796.732117,740
796.851135,726
796.970154,725
797.089233,713
797.208191,702
797.327271,694
797.446228,694
797.565186,691
797.684265,713
797.803223,691
797.922241,684
798.04126,698
798.160278,693
798.279297,671
798.398315,686
798.517273,672
798.636292,688
798.75531,661
798.874268,664
798.993286,675
799.112244,658
799.231323,684
799.350281,661
799.469238,628
799.588257,658
799.707153,662
799.826111,673
799.945129,660
800.064087,652
800.183044,651
800.302063,651
800.421021,664
800.539978,646
800.658936,645
800.777893,641
800.896912,639
801.015747,623
801.134705,641
801.253723,621
801.37262,635
801.491638,629
801.610535,597
801.729492,618
801.84845,613
801.967407,638
802.086243,631
802.205261,610
802.324158,614
802.443115,617
802.562073,617
802.680969,621
802.799927,624
802.918762,595
803.037659,610
803.156677,627
803.275574,579
803.39447,610
803.513428,589
803.632263,610
803.751221,621
803.870117,598
803.989014,598
804.107971,611
804.226746,611
804.345642,593
804.4646,605
804.583496,593
804.702393,574
804.821228,582
804.940125,585
805.059021,594
805.177917,580
805.296814,587
805.415649,592
805.534546,619
805.653442,585
805.772278,589
805.891113,589
806.01001,597
806.128906,608
806.247742,599
806.366577,597
806.485413,576
806.604309,573
806.723145,589
806.84198,587
806.960876,601
807.079712,592
807.198486,594
807.317383,581
807.436218,563
807.554993,554
807.673889,578
807.792725,590
807.91156,566
808.030396,588
808.14917,558
808.268005,565
808.386841,584
808.505676,580
808.624451,598
808.743286,559
808.862122,571
808.980896,571
809.099731,589
809.218506,595
809.337341,585
809.456116,583
809.57489,577
809.693726,598
809.8125,583
809.931274,578
810.050049,565
810.168884,581
810.287659,587
810.406372,580
810.525269,570
810.643982,582
810.762756,585
810.881531,571
811.000305,569
811.11908,571
811.237854,606
811.356567,579
811.475403,587
811.594116,587
811.71283,566
811.831604,554
811.950378,598
812.069153,576
812.187927,570
812.30658,581
812.425415,595
812.544128,560
812.662781,588
812.781616,587
812.900269,586
813.019043,583
813.137756,594
813.256531,575
813.375244,598
813.493896,609
813.612671,593
813.731384,544
813.850037,578
813.96875,587
814.087524,603
814.206238,574
814.324951,561
814.443604,567
814.562256,556
814.68103,560
814.799683,570
814.918335,588
815.037109,562
815.155762,568
815.274475,572
815.393188,554
815.511841,580
815.630554,566
815.749146,554
815.867859,571
815.986572,547
816.105164,563
816.223877,569
816.342529,583
816.461182,555
816.579895,578
816.698486,568
816.817139,582
816.935791,591
817.054504,591
817.173096,577
817.291748,578
817.4104,568
817.529053,541
817.647644,550
817.766235,553
817.884949,566
818.00354,542
818.122192,546
818.240845,544
818.359436,543
818.478088,551
818.59668,550
818.715271,519
818.833923,531
818.952515,550
819.071106,510
819.189758,526
819.30835,502
819.426941,528
819.545532,512
819.664124,517
819.782715,523
819.901306,516
820.019897,532
820.138489,535
820.25708,535
820.375671,523
820.494202,518
820.612732,535
820.731384,509
820.849915,539
820.968506,522
821.087097,535
821.205627,514
821.324158,536
821.442749,535
821.561279,515
821.679871,496
821.798401,495
821.916931,504
822.035461,491
822.154053,509
822.272583,510
822.391174,512
822.509583,506
822.628174,503
822.746704,526
822.865234,521
822.983765,511
823.102295,507
823.220825,508
823.339294,502
823.457825,508
823.576355,515
823.694824,515
823.813354,512
823.931885,508
824.050354,487
824.168884,513
824.287354,513
824.405823,528
824.524353,506
824.642822,513
824.761353,478
824.879822,522
824.998291,516
825.116699,496
825.235291,499
825.353699,523
825.472168,497
825.590637,503
825.709106,496
825.827576,496
825.946045,513
826.064453,509
826.182983,484
826.301392,497
826.4198,497
826.53833,499
826.656738,495
826.775208,494
826.893677,503
827.012024,498
827.130493,516
827.248962,508
827.36731,509
827.485779,504
827.604248,494
827.722595,501
827.841064,498
827.959412,513
828.077942,491
828.196289,499
828.314636,493
828.433105,498
828.551514,495
828.669861,497
828.78833,496
828.906677,518
829.025085,501
829.143433,494
829.261841,501
829.38031,522
829.498657,490
829.617004,485
829.735413,503
829.85376,508
829.972107,486
830.090515,513
830.208862,471
830.327209,504
830.445557,496
830.563904,472
830.682312,498
830.800659,490
830.919006,493
831.037354,519
831.155701,506
831.274048,509
831.392395,488
831.51062,506
831.629028,479
831.747314,503
831.865662,497
831.984009,499
832.102356,488
832.220642,538
832.338928,509
832.457275,516
832.575623,506
832.693909,505
832.812134,508
832.930481,500
833.048828,508
833.167114,502
833.2854,525
833.403687,522
833.521973,493
833.640259,505
833.758545,481
833.876831,527
833.995056,517
834.113281,507
834.231628,497
834.349915,510
834.468201,523
834.586426,530
834.704651,501
834.822998,500
834.941162,498
835.059448,501
835.177673,486
835.295959,523
835.414246,502
835.53241,506
835.650635,527
835.768921,488
835.887146,494
836.005371,513
836.123596,485
836.241821,485
836.360046,520
836.478271,508
836.596497,506
836.714722,514
836.832886,500
836.95105,515
837.069336,490
837.1875,522
837.305725,501
837.423889,505
837.542053,501
837.660339,508
837.778503,508
837.896667,493
838.014832,499
838.132996,509
838.25116,508
838.369385,529
838.487488,512
838.605713,488
838.723877,509
838.84198,500
838.960205,480
839.078308,514
839.196472,515
839.314636,524
839.4328,527
839.550964,524
839.669067,510
839.787231,505
839.905396,538
840.023499,523
840.141602,537
840.259766,533
840.377869,531
840.495972,533
840.614136,530
840.732239,536
840.850342,540
840.968445,541
841.086548,537
841.204651,539
841.322754,539
841.440918,562
841.55896,540
841.677002,555
841.795166,539
841.913208,529
842.031311,538
842.149353,532
842.267456,558
842.385498,540
842.503601,563
842.621643,554
842.739746,549
842.857788,535
842.97583,556
843.093933,541
843.211975,546
843.330017,540
843.44812,548
843.566101,555
843.684204,574
843.802246,524
843.920227,550
844.038269,518
844.156311,514
844.274292,534
844.392395,528
844.510376,548
844.628357,533
844.74646,540
844.864441,517
844.982422,549
845.100403,519
845.218384,526
845.336426,543
845.454468,519
845.572449,530
845.69043,528
845.808411,538
845.926453,547
846.044373,528
846.162354,553
846.280396,516
846.398315,530
846.516296,519
846.634216,533
846.752197,506
846.870178,544
846.988098,546
847.106079,548
847.22406,541
847.34198,533
847.4599,545
847.577881,551
847.695801,553
847.813782,520
847.931641,533
848.049561,551
848.167603,530
848.285461,539
848.403381,525
848.521362,523
848.639221,527
848.75708,527
848.875,522
848.99292,533
849.110901,512
849.22876,546
849.34668,509
849.464539,545
849.582458,535
849.700317,533
849.818176,551
849.936096,519
850.053955,537
850.171875,509
850.289673,538
850.407593,539
850.525452,537
850.643311,536
850.761169,516
850.878967,530
850.996887,533
851.114746,520
851.232544,513
851.350403,529
851.468262,567
851.58606,542
851.703979,555
851.821777,532
851.939636,503
852.057434,546
852.175232,523
852.293091,532
852.410889,546
852.528687,572
852.646545,568
852.764343,569
852.88208,552
852.999939,565
853.117676,547
853.235535,552
853.353271,533
853.471069,516
853.588928,535
853.706604,531
853.824402,524
853.9422,540
854.059998,529
854.177734,538
854.295532,543
854.413269,554
854.531006,563
854.648804,544
854.766541,530
854.884277,533
855.002014,541
855.119751,517
855.237549,534
855.355225,546
855.473022,540
855.590698,529
855.708435,545
855.826172,534
855.943848,551
856.061646,551
856.179321,539
856.296997,545
856.414795,526
856.53241,551
856.650085,561
856.767822,542
856.885559,564
857.003174,574
857.120911,548
857.238586,557
857.356201,568
857.473938,565
857.591614,562
857.709351,574
857.826965,539
857.944641,543
858.062317,553
858.179993,554
858.297668,587
858.415283,539
858.532959,562
858.650574,560
858.768188,537
858.885803,537
859.003479,540
859.121094,552
859.23877,550
859.356384,552
859.473999,527
859.591675,544
859.709229,511
859.826843,546
859.944458,533
860.062012,538
860.179626,506
860.297302,542
860.414856,537
860.532471,524
860.650024,515
860.767639,533
860.885193,521
861.002808,528
861.120361,537
861.237976,544
861.35553,537
861.473022,538
861.590698,521
861.708191,540
861.825745,525
861.943298,529
862.060852,503
862.178406,520
862.295959,506
862.413513,499
862.531006,528
862.64856,489
862.766113,514
862.883667,523
863.00116,503
863.118713,497
863.236206,501
863.353699,495
863.471252,512
863.588745,500
863.706177,507
863.82373,510
863.941162,511
864.058716,514
864.176208,524
864.29364,515
864.411194,515
864.528687,520
864.646118,510
864.763611,514
864.881042,488
864.998535,523
865.116028,502
865.233459,494
865.350891,502
865.468384,505
865.585754,504
865.703308,513
865.820679,492
865.938171,518
866.055542,524
866.173035,505
866.290466,504
866.407837,514
866.52533,498
866.6427,508
866.760071,499
866.877563,511
866.994934,501
867.112305,494
867.229736,506
867.347107,523
867.464539,516
867.58197,522
867.699341,531
867.81665,536
867.934082,501
868.051453,532
868.168823,508
868.286194,520
868.403564,531
868.520935,535
868.638306,524
868.755676,515
868.872986,503
868.990295,529
869.107727,512
869.225037,528
869.342346,520
869.459717,529
869.577026,523
869.694336,526
869.811707,538
869.929016,531
870.046326,544
870.163635,543
870.280945,522
870.398254,538
870.515564,553
870.632812,544
870.750183,569
870.867432,546
870.984741,536
871.102051,555
871.219299,563
871.336609,560
871.453918,554
871.571106,593
871.688416,543
871.805664,558
871.922852,563
872.040222,560
872.157471,553
872.274719,566
872.391968,541
872.509155,570
872.626465,547
872.743652,568
872.860962,553
872.978149,569
873.095337,568
873.212646,530
873.329834,548
873.44696,546
873.564209,532
873.681396,558
873.798645,536
873.915894,539
874.03302,550
874.150208,559
874.267456,557
874.384583,547
874.501831,566
874.618958,576
874.736145,573
874.853333,559
874.970459,558
875.087646,537
875.204834,537
875.32196,538
875.439148,551
875.556274,554
875.673401,538
875.790527,541
875.907715,524
876.024841,531
876.141968,553
876.259094,560
876.376282,547
876.493347,529
876.610474,536
876.7276,526
876.844727,525
876.961853,526
877.078918,546
877.195984,553
877.313171,529
877.430237,551
877.547302,530
877.664368,512
877.781433,506
877.898499,511
878.015625,538
878.13269,522
878.249695,524
878.366821,541
878.483887,506
878.600952,522
878.717957,506
878.834961,495
878.952087,514
879.069092,520
879.186157,518
879.303162,513
879.420227,508
879.537231,528
879.654236,508
879.77124,517
879.888306,503
880.005249,517
880.122314,515
880.239319,526
880.356323,499
880.473328,497
880.590271,517
880.707275,483
880.824341,511
880.941284,497
881.058228,509
881.175232,511
881.292236,484
881.40918,492
881.526123,481
881.643066,523
881.760071,490
881.877014,501
881.993958,491
882.11084,501
882.227783,491
882.344727,496
882.46167,487
882.578613,493
882.695618,500
882.812439,514
882.929382,499
883.046326,502
883.163208,489
883.280151,501
883.397034,479
883.513916,505
883.630798,504
883.747742,518
883.864563,506
883.981506,514
884.098389,514
884.21521,531
884.332153,515
884.448975,531
884.565796,547
884.682678,550
884.7995,545
884.916443,552
885.033264,570
885.150085,582
885.266968,585
885.383789,588
885.500671,577
885.617493,639
885.734314,635
885.851196,626
885.967896,607
886.084717,615
886.201599,613
886.318359,586
886.435181,604
886.552002,598
886.668762,587
886.785645,583
886.902344,585
887.019165,570
887.135925,571
887.252747,564
887.369446,565
887.486267,585
887.603027,570
887.719788,546
887.836548,557
887.953247,543
888.070068,533
888.186829,539
888.303528,522
888.420288,500
888.536987,496
888.653687,508
888.770447,495
888.887146,506
889.003967,504
889.120667,495
889.237305,500
889.354065,485
889.470703,484
889.587463,484
889.704163,499
889.820862,481
889.937561,491
890.054199,468
890.170837,496
890.287598,485
890.404236,475
890.520874,494
890.637634,494
890.754211,493
890.87085,486
890.987549,470
891.104187,481
891.220886,499
891.337463,475
891.454102,484
891.57074,474
891.687378,495
891.804077,508
891.920654,469
892.037231,492
892.15387,505
892.270447,478
892.387085,490
892.503723,488
892.6203,513
892.736877,482
892.853516,486
892.970032,493
893.08667,491
893.203186,476
893.319763,473
893.43634,499
893.552917,478
893.669556,477
893.786011,476
893.902588,491
894.019165,479
894.135681,489
894.252197,514
894.368835,481
894.485291,478
894.601868,466
894.718384,470
894.8349,476
894.951355,481
895.067932,487
895.184448,487
895.300964,484
895.417419,461
895.533936,484
895.650452,492
895.766907,473
895.883423,475
895.999878,495
896.116333,495
896.232849,490
896.349304,470
896.465759,499
896.582214,484
896.698669,495
896.815125,488
896.931641,475
897.048035,483
897.164551,485
897.280884,491
897.397339,486
897.513794,506
897.630249,493
897.746582,479
897.863098,481
897.979431,484
898.095886,489
898.212341,493
898.328674,510
898.445129,490
898.561462,499
898.677795,476
898.794312,507
898.910645,488
899.026978,480
899.143433,485
899.259766,485
899.37616,485
899.492493,492
899.608765,501
899.725159,494
899.841553,468
899.957947,494
900.07428,482
900.190552,499
900.306946,500
900.423157,479
900.53949,510
900.655884,500
900.772156,496
900.888489,495
901.004822,509
901.121033,510
901.237366,470
901.353699,504
901.46991,489
901.586304,490
901.702515,504
901.818787,497
901.93512,528
902.051331,503
902.167603,526
902.283875,521
902.400085,522
902.516418,542
902.632629,551
902.74884,547
902.865112,540
902.981384,568
903.097595,551
903.213867,555
903.330017,544
903.446289,535
903.5625,542
903.67865,544
903.794922,538
903.911072,537
904.027344,525
904.143494,536
904.259705,511
904.375916,522
904.492065,512
904.608215,507
904.724426,518
904.840576,489
904.956726,511
905.072876,494
905.189087,477
905.305176,497
905.421387,517
905.537537,501
905.653687,501
905.769775,489
905.885925,480
906.002014,491
906.118164,485
906.234314,459
906.350403,479
906.466492,475
906.582642,481
906.69873,487
906.814758,451
906.930908,469
907.046936,475
907.163086,493
907.279175,487
907.395264,466
907.511353,482
907.62738,498
907.743408,466
907.859497,451
907.975525,461
908.091553,483
908.207703,478
908.32373,472
908.439758,490
908.555786,484
908.671814,473
908.787842,473
908.90387,469
909.019775,486
909.135864,491
909.251892,490
909.367859,474
909.483826,466
909.599854,470
909.715881,477
909.831848,474
909.947815,462
910.063782,494
910.179749,473
910.295776,477
910.411743,472
910.527649,501
910.643616,495
910.759583,502
910.875488,479
910.991455,468
911.107361,476
911.223267,466
911.339294,458
911.4552,490
911.571106,469
911.687073,472
911.802979,478
911.918823,479
912.034729,473
912.150635,481
912.266602,466
912.382446,474
912.498352,464
912.614197,477
912.730103,477
912.846008,460
