792.44574,596
792.56488,640
792.68396,664
792.80304,650
792.92218,616
793.041199,583
793.160339,581
793.279419,582
793.398499,603
793.517578,583
793.636658,599
793.755737,613
793.874817,610
793.993896,609
794.112976,596
794.232056,602
794.351074,584
794.470215,579
794.589233,609
794.708313,601
794.827393,584
794.946411,585
795.065552,568
795.18457,572
795.303589,569
795.422668,582
795.541687,573
795.660767,586
795.779846,575
795.898865,586
796.017883,569
796.136963,592
796.255981,578
796.375061,571
796.49408,598
796.613037,585
796.732117,582
796.851135,559
796.970154,565
797.089233,589
797.208191,568
797.327271,566
797.446228,561
797.565186,593
797.684265,582
797.803223,571
797.922241,576
798.04126,570
798.160278,555
798.279297,551
798.398315,572
798.517273,584
798.636292,574
798.75531,580
798.874268,593
798.993286,600
799.112244,560
799.231323,548
799.350281,583
799.469238,564
799.588257,591
799.707153,583
799.826111,562
799.945129,563
800.064087,569
800.183044,579
800.302063,585
800.421021,565
800.539978,581
800.658936,565
800.777893,590
800.896912,573
801.015747,565
801.134705,577
801.253723,560
801.37262,584
801.491638,565
801.610535,567
801.729492,584
801.84845,589
801.967407,584
802.086243,587
802.205261,582
802.324158,567
802.443115,566
802.562073,573
802.680969,598
802.799927,578
802.918762,580
803.037659,572
803.156677,606
803.275574,589
803.39447,561
803.513428,608
803.632263,592
803.751221,569
803.870117,569
803.989014,586
804.107971,591
804.226746,596
804.345642,602
804.4646,606
804.583496,604
804.702393,608
804.821228,592
804.940125,605
805.059021,598
805.177917,595
805.296814,605
805.415649,583
805.534546,618
805.653442,610
805.772278,619
805.891113,608
806.01001,615
806.128906,600
806.247742,610
806.366577,604
806.485413,607
806.604309,617
806.723145,609
806.84198,598
806.960876,615
807.079712,617
807.198486,609
807.317383,604
807.436218,635
807.554993,597
807.673889,626
807.792725,608
807.91156,618
808.030396,598
808.14917,601
808.268005,624
808.386841,624
808.505676,636
808.624451,628
808.743286,610
808.862122,602
808.980896,641
809.099731,600
809.218506,610
809.337341,594
809.456116,619
809.57489,632
809.693726,628
809.8125,621
809.931274,632
810.050049,616
810.168884,606
810.287659,620
810.406372,605
810.525269,609
810.643982,621
810.762756,627
810.881531,632
811.000305,624
811.11908,630
811.237854,640
811.356567,625
811.475403,603
811.594116,634
811.71283,603
811.831604,626
811.950378,613
812.069153,621
812.187927,614
812.30658,622
812.425415,607
812.544128,623
812.662781,627
812.781616,636
812.900269,618
813.019043,618
813.137756,616
813.256531,628
813.375244,611
813.493896,599
813.612671,613
813.731384,619
813.850037,613
813.96875,640
814.087524,607
814.206238,636
814.324951,610
814.443604,623
814.562256,629
814.68103,611
814.799683,629
814.918335,635
815.037109,599
815.155762,635
815.274475,598
815.393188,608
815.511841,619
815.630554,609
815.749146,606
815.867859,602
815.986572,620
816.105164,623
816.223877,576
816.342529,581
816.461182,608
816.579895,638
816.698486,609
816.817139,609
816.935791,630
817.054504,608
817.173096,611
817.291748,597
817.4104,606
817.529053,577
817.647644,597
817.766235,572
817.884949,580
818.00354,572
818.122192,550
818.240845,569
818.359436,559
818.478088,551
818.59668,532
818.715271,543
818.833923,499
818.952515,509
819.071106,513
819.189758,505
819.30835,516
819.426941,503
819.545532,510
819.664124,522
819.782715,489
819.901306,476
820.019897,487
820.138489,489
820.25708,491
820.375671,486
820.494202,504
820.612732,508
820.731384,482
820.849915,495
820.968506,497
821.087097,467
821.205627,483
821.324158,503
821.442749,480
821.561279,488
821.679871,477
821.798401,462
821.916931,506
822.035461,474
822.154053,486
822.272583,499
822.391174,482
822.509583,469
822.628174,483
822.746704,466
822.865234,466
822.983765,452
823.102295,477
823.220825,468
823.339294,471
823.457825,481
823.576355,479
823.694824,468
823.813354,494
823.931885,491
824.050354,480
824.168884,473
824.287354,485
824.405823,452
824.524353,478
824.642822,484
824.761353,466
824.879822,487
824.998291,482
825.116699,480
825.235291,488
825.353699,502
825.472168,464
825.590637,476
825.709106,474
825.827576,477
825.946045,480
826.064453,486
826.182983,479
826.301392,451
826.4198,476
826.53833,462
826.656738,453
826.775208,477
826.893677,458
827.012024,480
827.130493,449
827.248962,456
827.36731,452
827.485779,451
827.604248,468
827.722595,462
827.841064,463
827.959412,455
828.077942,441
828.196289,452
828.314636,452
828.433105,475
828.551514,462
828.669861,445
828.78833,460
828.906677,458
829.025085,469
829.143433,464
829.261841,447
829.38031,448
829.498657,456
829.617004,465
829.735413,456
829.85376,437
829.972107,462
830.090515,462
830.208862,461
830.327209,454
830.445557,455
830.563904,467
830.682312,469
830.800659,468
830.919006,449
831.037354,464
831.155701,443
831.274048,465
831.392395,448
831.51062,464
831.629028,462
831.747314,454
831.865662,437
831.984009,452
832.102356,431
832.220642,459
832.338928,458
832.457275,452
832.575623,469
832.693909,450
832.812134,449
832.930481,453
833.048828,437
833.167114,471
833.2854,474
833.403687,458
833.521973,432
833.640259,466
833.758545,445
833.876831,444
833.995056,462
834.113281,459
834.231628,454
834.349915,459
834.468201,465
834.586426,457
834.704651,461
834.822998,460
834.941162,441
835.059448,449
835.177673,457
835.295959,437
835.414246,461
835.53241,457
835.650635,454
835.768921,459
835.887146,457
836.005371,450
836.123596,458
836.241821,469
836.360046,466
836.478271,470
836.596497,469
836.714722,458
836.832886,461
836.95105,455
837.069336,483
837.1875,467
837.305725,466
837.423889,461
837.542053,481
837.660339,478
837.778503,472
837.896667,469
838.014832,484
838.132996,478
838.25116,476
838.369385,445
838.487488,471
838.605713,465
838.723877,458
838.84198,464
838.960205,442
839.078308,465
839.196472,446
839.314636,471
839.4328,456
839.550964,466
839.669067,470
839.787231,466
839.905396,455
840.023499,449
840.141602,461
840.259766,477
840.377869,479
840.495972,461
840.614136,471
840.732239,474
840.850342,450
840.968445,462
841.086548,462
841.204651,453
841.322754,440
841.440918,476
841.55896,441
841.677002,453
841.795166,467
841.913208,445
842.031311,451
842.149353,445
842.267456,449
842.385498,462
842.503601,453
842.621643,476
842.739746,444
842.857788,450
842.97583,460
843.093933,453
843.211975,433
843.330017,459
843.44812,433
843.566101,437
843.684204,436
843.802246,459
843.920227,460
844.038269,434
844.156311,459
844.274292,433
844.392395,456
844.510376,459
844.628357,447
844.74646,441
844.864441,449
844.982422,438
845.100403,445
845.218384,452
845.336426,445
845.454468,476
845.572449,443
845.69043,454
845.808411,445
845.926453,453
846.044373,437
846.162354,441
846.280396,440
846.398315,432
846.516296,432
846.634216,462
846.752197,445
846.870178,442
846.988098,448
847.106079,453
847.22406,444
847.34198,447
847.4599,444
847.577881,442
847.695801,442
847.813782,438
847.931641,447
848.049561,459
848.167603,454
848.285461,450
848.403381,440
848.521362,453
848.639221,447
848.75708,432
848.875,439
848.99292,445
849.110901,434
849.22876,431
849.34668,424
849.464539,451
849.582458,436
849.700317,460
849.818176,454
849.936096,442
850.053955,436
850.171875,453
850.289673,429
850.407593,457
850.525452,436
850.643311,442
850.761169,449
850.878967,442
850.996887,435
851.114746,432
851.232544,444
851.350403,447
851.468262,447
851.58606,457
851.703979,432
851.821777,444
851.939636,442
852.057434,444
852.175232,465
852.293091,460
852.410889,431
852.528687,450
852.646545,451
852.764343,438
852.88208,457
852.999939,460
853.117676,436
853.235535,445
853.353271,433
853.471069,440
853.588928,449
853.706604,443
853.824402,438
853.9422,445
854.059998,440
854.177734,431
854.295532,433
854.413269,458
854.531006,456
854.648804,443
854.766541,431
854.884277,460
855.002014,435
855.119751,461
855.237549,453
855.355225,463
855.473022,447
855.590698,472
855.708435,461
855.826172,443
855.943848,467
856.061646,472
856.179321,443
856.296997,448
856.414795,444
856.53241,447
856.650085,448
856.767822,464
856.885559,448
857.003174,454
857.120911,448
857.238586,448
857.356201,443
857.473938,442
857.591614,442
857.709351,448
857.826965,442
857.944641,451
858.062317,446
858.179993,447
858.297668,439
858.415283,441
858.532959,422
858.650574,453
858.768188,451
858.885803,444
859.003479,447
859.121094,442
859.23877,454
859.356384,452
859.473999,440
859.591675,451
859.709229,458
859.826843,459
859.944458,446
860.062012,451
860.179626,432
860.297302,461
860.414856,447
860.532471,431
860.650024,418
860.767639,440
860.885193,444
861.002808,444
861.120361,464
861.237976,449
861.35553,428
861.473022,449
861.590698,431
861.708191,436
861.825745,461
861.943298,428
862.060852,447
862.178406,447
862.295959,443
862.413513,465
862.531006,424
862.64856,449
862.766113,431
862.883667,444
863.00116,446
863.118713,460
863.236206,448
863.353699,455
863.471252,446
863.588745,452
863.706177,451
863.82373,449
863.941162,454
864.058716,452
864.176208,443
864.29364,456
864.411194,448
864.528687,449
864.646118,462
864.763611,460
864.881042,462
864.998535,438
865.116028,461
865.233459,473
865.350891,457
865.468384,453
865.585754,455
865.703308,452
865.820679,461
865.938171,454
866.055542,433
866.173035,447
866.290466,450
866.407837,453
866.52533,448
866.6427,450
866.760071,454
866.877563,463
866.994934,466
867.112305,453
867.229736,442
867.347107,465
867.464539,429
867.58197,460
867.699341,469
867.81665,460
867.934082,455
868.051453,455
868.168823,445
868.286194,446
868.403564,440
868.520935,447
868.638306,440
868.755676,452
868.872986,466
868.990295,450
869.107727,428
869.225037,435
869.342346,458
869.459717,445
869.577026,453
869.694336,465
869.811707,444
869.929016,440
870.046326,443
870.163635,439
870.280945,447
870.398254,448
870.515564,440
870.632812,440
870.750183,449
870.867432,479
870.984741,452
871.102051,432
871.219299,445
871.336609,449
871.453918,458
871.571106,468
871.688416,441
871.805664,450
871.922852,457
872.040222,426
872.157471,429
872.274719,449
872.391968,438
872.509155,432
872.626465,457
872.743652,434
872.860962,432
872.978149,445
873.095337,456
873.212646,444
873.329834,421
873.44696,446
873.564209,442
873.681396,449
873.798645,446
873.915894,447
874.03302,438
874.150208,469
874.267456,441
874.384583,462
874.501831,451
874.618958,440
874.736145,425
874.853333,431
874.970459,447
875.087646,431
875.204834,456
875.32196,451
875.439148,444
875.556274,448
875.673401,467
875.790527,440
875.907715,459
876.024841,465
876.141968,439
876.259094,430
876.376282,450
876.493347,446
876.610474,445
876.7276,451
876.844727,433
876.961853,444
877.078918,440
877.195984,436
877.313171,481
877.430237,445
877.547302,450
877.664368,441
877.781433,433
877.898499,457
878.015625,441
878.13269,447
878.249695,446
878.366821,458
878.483887,428
878.600952,429
878.717957,467
878.834961,473
878.952087,445
879.069092,443
879.186157,448
879.303162,444
879.420227,442
879.537231,425
879.654236,462
879.77124,458
879.888306,443
880.005249,441
880.122314,454
880.239319,449
880.356323,458
880.473328,442
880.590271,449
880.707275,449
880.824341,458
880.941284,447
881.058228,447
881.175232,460
881.292236,462
881.40918,446
881.526123,458
881.643066,456
881.760071,447
881.877014,466
881.993958,444
882.11084,457
882.227783,439
882.344727,447
882.46167,447
882.578613,440
882.695618,449
882.812439,445
882.929382,466
883.046326,446
883.163208,450
883.280151,453
883.397034,438
883.513916,477
883.630798,440
883.747742,449
883.864563,435
883.981506,446
884.098389,440
884.21521,451
884.332153,436
884.448975,451
884.565796,457
884.682678,462
884.7995,435
884.916443,458
885.033264,435
885.150085,439
885.266968,452
885.383789,466
885.500671,465
885.617493,448
885.734314,446
885.851196,457
885.967896,452
886.084717,439
886.201599,470
886.318359,451
886.435181,443
886.552002,433
886.668762,482
886.785645,435
886.902344,459
887.019165,451
887.135925,451
887.252747,449
887.369446,445
887.486267,453
887.603027,456
887.719788,443
887.836548,458
887.953247,452
888.070068,459
888.186829,453
888.303528,454
888.420288,444
888.536987,468
888.653687,462
888.770447,448
888.887146,450
889.003967,445
889.120667,463
889.237305,445
889.354065,458
889.470703,455
889.587463,438
889.704163,465
889.820862,460
889.937561,465
890.054199,442
890.170837,490
890.287598,453
890.404236,470
890.520874,463
890.637634,438
890.754211,445
890.87085,431
890.987549,466
891.104187,446
891.220886,452
891.337463,464
891.454102,459
891.57074,458
891.687378,453
891.804077,449
891.920654,448
892.037231,449
892.15387,443
892.270447,451
892.387085,446
892.503723,447
892.6203,491
892.736877,458
892.853516,462
892.970032,470
893.08667,478
893.203186,463
893.319763,451
893.43634,456
893.552917,451
893.669556,448
893.786011,456
893.902588,446
894.019165,466
894.135681,457
894.252197,478
894.368835,459
894.485291,460
894.601868,450
894.718384,442
894.8349,464
894.951355,471
895.067932,455
895.184448,454
895.300964,454
895.417419,459
895.533936,441
895.650452,458
895.766907,456
895.883423,455
895.999878,459
896.116333,458
896.232849,456
896.349304,465
896.465759,441
896.582214,460
896.698669,459
896.815125,448
896.931641,458
897.048035,456
897.164551,444
897.280884,466
897.397339,451
897.513794,458
897.630249,460
897.746582,467
897.863098,466
897.979431,459
898.095886,460
898.212341,467
898.328674,460
898.445129,441
898.561462,453
898.677795,456
898.794312,451
898.910645,457
899.026978,450
899.143433,469
899.259766,476
899.37616,486
899.492493,482
899.608765,473
899.725159,451
899.841553,466
899.957947,456
900.07428,456
900.190552,446
900.306946,438
900.423157,466
900.53949,462
900.655884,466
900.772156,474
900.888489,449
901.004822,447
901.121033,447
901.237366,468
901.353699,457
901.46991,458
901.586304,450
901.702515,460
901.818787,449
901.93512,469
902.051331,458
902.167603,460
902.283875,460
902.400085,477
902.516418,469
902.632629,472
902.74884,458
902.865112,456
902.981384,474
903.097595,469
903.213867,462
903.330017,464
903.446289,446
903.5625,460
903.67865,482
903.794922,442
903.911072,465
904.027344,455
904.143494,453
904.259705,473
904.375916,447
904.492065,466
904.608215,441
904.724426,470
904.840576,462
904.956726,453
905.072876,490
905.189087,441
905.305176,455
905.421387,460
905.537537,462
905.653687,470
905.769775,454
905.885925,477
906.002014,455
906.118164,460
906.234314,454
906.350403,464
906.466492,472
906.582642,458
906.69873,472
906.814758,461
906.930908,455
907.046936,464
907.163086,464
907.279175,476
907.395264,467
907.511353,454
907.62738,455
907.743408,458
907.859497,474
907.975525,456
908.091553,456
908.207703,487
908.32373,436
908.439758,473
908.555786,457
908.671814,462
908.787842,462
908.90387,455
909.019775,461
909.135864,456
909.251892,482
909.367859,450
909.483826,460
909.599854,475
909.715881,469
909.831848,459
909.947815,453
910.063782,462
910.179749,470
910.295776,464
910.411743,474
910.527649,475
910.643616,482
910.759583,464
910.875488,471
910.991455,470
911.107361,469
911.223267,470
911.339294,456
911.4552,481
911.571106,463
911.687073,486
911.802979,474
911.918823,461
912.034729,462
912.150635,469
912.266602,479
912.382446,461
912.498352,447
912.614197,470
912.730103,440
912.846008,456
792.44574,609
792.56488,629
792.68396,690
792.80304,633
792.92218,623
793.041199,618
793.160339,601
793.279419,600
793.398499,611
793.517578,587
793.636658,621
793.755737,622
793.874817,603
793.993896,602
794.112976,592
794.232056,585
794.351074,581
794.470215,589
794.589233,574
794.708313,572
794.827393,575
794.946411,584
795.065552,606
795.18457,590
795.303589,586
795.422668,584
795.541687,598
795.660767,572
795.779846,581
795.898865,579
796.017883,556
796.136963,563
796.255981,569
796.375061,563
796.49408,604
796.613037,593
796.732117,581
796.851135,577
796.970154,569
797.089233,571
797.208191,582
797.327271,589
797.446228,586
797.565186,574
797.684265,582
797.803223,575
797.922241,578
798.04126,548
798.160278,575
798.279297,554
798.398315,585
798.517273,573
798.636292,570
798.75531,559
798.874268,576
798.993286,573
799.112244,580
799.231323,582
799.350281,576
799.469238,557
799.588257,579
799.707153,564
799.826111,601
799.945129,573
800.064087,581
800.183044,590
800.302063,592
800.421021,567
800.539978,580
800.658936,557
800.777893,568
800.896912,561
801.015747,579
801.134705,547
801.253723,571
801.37262,581
801.491638,565
801.610535,594
801.729492,575
801.84845,580
801.967407,600
802.086243,577
802.205261,577
802.324158,594
802.443115,592
802.562073,610
802.680969,599
802.799927,583
802.918762,604
803.037659,574
803.156677,602
803.275574,575
803.39447,606
803.513428,594
803.632263,583
803.751221,580
803.870117,606
803.989014,585
804.107971,594
804.226746,600
804.345642,586
804.4646,604
804.583496,614
804.702393,593
804.821228,598
804.940125,591
805.059021,578
805.177917,615
805.296814,619
805.415649,614
805.534546,632
805.653442,601
805.772278,593
805.891113,605
806.01001,597
806.128906,614
806.247742,626
806.366577,591
806.485413,613
806.604309,624
806.723145,618
806.84198,608
806.960876,628
807.079712,632
807.198486,621
807.317383,608
807.436218,593
807.554993,597
807.673889,619
807.792725,615
807.91156,612
808.030396,615
808.14917,590
808.268005,629
808.386841,614
808.505676,621
808.624451,621
808.743286,605
808.862122,618
808.980896,596
809.099731,611
809.218506,618
809.337341,615
809.456116,609
809.57489,630
809.693726,629
809.8125,633
809.931274,631
810.050049,607
810.168884,644
810.287659,645
810.406372,620
810.525269,658
810.643982,623
810.762756,628
810.881531,622
811.000305,621
811.11908,630
811.237854,599
811.356567,637
811.475403,628
811.594116,662
811.71283,627
811.831604,619
811.950378,637
812.069153,621
812.187927,641
812.30658,632
812.425415,623
812.544128,627
812.662781,637
812.781616,609
812.900269,633
813.019043,619
813.137756,624
813.256531,639
813.375244,631
813.493896,636
813.612671,621
813.731384,617
813.850037,641
813.96875,609
814.087524,601
814.206238,636
814.324951,625
814.443604,634
814.562256,613
814.68103,599
814.799683,635
814.918335,599
815.037109,605
815.155762,595
815.274475,629
815.393188,596
815.511841,631
815.630554,614
815.749146,603
815.867859,594
815.986572,602
816.105164,608
816.223877,627
816.342529,605
816.461182,604
816.579895,602
816.698486,620
816.817139,631
816.935791,621
817.054504,590
817.173096,634
817.291748,615
817.4104,611
817.529053,614
817.647644,594
817.766235,587
817.884949,578
818.00354,572
818.122192,567
818.240845,557
818.359436,547
818.478088,554
818.59668,548
818.715271,530
818.833923,529
818.952515,510
819.071106,542
819.189758,523
819.30835,505
819.426941,502
819.545532,499
819.664124,507
819.782715,498
819.901306,495
820.019897,503
820.138489,491
820.25708,505
820.375671,494
820.494202,503
820.612732,497
820.731384,498
820.849915,492
820.968506,471
821.087097,499
821.205627,500
821.324158,479
821.442749,479
821.561279,473
821.679871,470
821.798401,489
821.916931,496
822.035461,462
822.154053,472
822.272583,479
822.391174,468
822.509583,477
822.628174,498
822.746704,473
822.865234,505
822.983765,477
823.102295,484
823.220825,479
823.339294,481
823.457825,459
823.576355,475
823.694824,474
823.813354,492
823.931885,488
824.050354,483
824.168884,477
824.287354,515
824.405823,482
824.524353,492
824.642822,483
824.761353,488
824.879822,482
824.998291,470
825.116699,471
825.235291,469
825.353699,477
825.472168,490
825.590637,464
825.709106,491
825.827576,458
825.946045,487
826.064453,464
826.182983,472
826.301392,472
826.4198,465
826.53833,473
826.656738,448
826.775208,477
826.893677,472
827.012024,459
827.130493,475
827.248962,467
827.36731,465
827.485779,473
827.604248,442
827.722595,471
827.841064,463
827.959412,452
828.077942,445
828.196289,440
828.314636,475
828.433105,469
828.551514,472
828.669861,472
828.78833,454
828.906677,455
829.025085,454
829.143433,456
829.261841,460
829.38031,441
829.498657,473
829.617004,457
829.735413,463
829.85376,453
829.972107,451
830.090515,460
830.208862,457
830.327209,467
830.445557,447
830.563904,443
830.682312,460
830.800659,459
830.919006,472
831.037354,460
831.155701,472
831.274048,463
831.392395,480
831.51062,448
831.629028,460
831.747314,456
831.865662,461
831.984009,455
832.102356,462
832.220642,466
832.338928,466
832.457275,439
832.575623,475
832.693909,454
832.812134,456
832.930481,444
833.048828,467
833.167114,457
833.2854,444
833.403687,462
833.521973,457
833.640259,464
833.758545,441
833.876831,431
833.995056,462
834.113281,472
834.231628,462
834.349915,464
834.468201,457
834.586426,457
834.704651,460
834.822998,451
834.941162,466
835.059448,450
835.177673,462
835.295959,455
835.414246,472
835.53241,453
835.650635,476
835.768921,443
835.887146,463
836.005371,440
836.123596,460
836.241821,476
836.360046,483
836.478271,481
836.596497,460
836.714722,473
836.832886,465
836.95105,461
837.069336,484
837.1875,469
837.305725,480
837.423889,464
837.542053,475
837.660339,467
837.778503,496
837.896667,468
838.014832,482
838.132996,464
838.25116,489
838.369385,442
838.487488,476
838.605713,454
838.723877,478
838.84198,457
838.960205,477
839.078308,442
839.196472,470
839.314636,488
839.4328,454
839.550964,465
839.669067,478
839.787231,452
839.905396,471
840.023499,469
840.141602,469
840.259766,466
840.377869,438
840.495972,463
840.614136,446
840.732239,450
840.850342,466
840.968445,448
841.086548,458
841.204651,458
841.322754,480
841.440918,452
841.55896,461
841.677002,449
841.795166,457
841.913208,458
842.031311,458
842.149353,458
842.267456,447
842.385498,461
842.503601,457
842.621643,460
842.739746,436
842.857788,459
842.97583,478
843.093933,436
843.211975,427
843.330017,451
843.44812,453
843.566101,451
843.684204,445
843.802246,434
843.920227,460
844.038269,431
844.156311,462
844.274292,460
844.392395,456
844.510376,450
844.628357,446
844.74646,431
844.864441,460
844.982422,433
845.100403,441
845.218384,454
845.336426,468
845.454468,444
845.572449,466
845.69043,446
845.808411,437
845.926453,461
846.044373,441
846.162354,450
846.280396,453
846.398315,440
846.516296,448
846.634216,454
846.752197,438
846.870178,449
846.988098,446
847.106079,442
847.22406,460
847.34198,439
847.4599,456
847.577881,429
847.695801,440
847.813782,450
847.931641,444
848.049561,454
848.167603,445
848.285461,465
848.403381,450
848.521362,464
848.639221,448
848.75708,461
848.875,443
848.99292,465
849.110901,466
849.22876,457
849.34668,441
849.464539,446
849.582458,446
849.700317,460
849.818176,448
849.936096,445
850.053955,424
850.171875,448
850.289673,450
850.407593,436
850.525452,441
850.643311,470
850.761169,448
850.878967,448
850.996887,451
851.114746,430
851.232544,434
851.350403,449
851.468262,454
851.58606,451
851.703979,439
851.821777,442
851.939636,447
852.057434,459
852.175232,438
852.293091,429
852.410889,463
852.528687,423
852.646545,453
852.764343,449
852.88208,450
852.999939,448
853.117676,461
853.235535,441
853.353271,448
853.471069,448
853.588928,429
853.706604,444
853.824402,453
853.9422,452
854.059998,457
854.177734,440
854.295532,449
854.413269,432
854.531006,446
854.648804,439
854.766541,436
854.884277,458
855.002014,443
855.119751,444
855.237549,454
855.355225,453
855.473022,467
855.590698,459
855.708435,433
855.826172,461
855.943848,461
856.061646,449
856.179321,446
856.296997,443
856.414795,483
856.53241,448
856.650085,451
856.767822,442
856.885559,450
857.003174,444
857.120911,451
857.238586,466
857.356201,453
857.473938,456
857.591614,447
857.709351,438
857.826965,465
857.944641,462
858.062317,437
858.179993,452
858.297668,437
858.415283,431
858.532959,446
858.650574,470
858.768188,461
858.885803,440
859.003479,451
859.121094,450
859.23877,436
859.356384,449
859.473999,467
859.591675,442
859.709229,460
859.826843,455
859.944458,457
860.062012,456
860.179626,454
860.297302,442
860.414856,448
860.532471,452
860.650024,460
860.767639,456
860.885193,436
861.002808,428
861.120361,461
861.237976,439
861.35553,457
861.473022,439
861.590698,439
861.708191,464
861.825745,436
861.943298,442
862.060852,454
862.178406,446
862.295959,431
862.413513,455
862.531006,451
862.64856,449
862.766113,455
862.883667,445
863.00116,448
863.118713,447
863.236206,455
863.353699,446
863.471252,449
863.588745,461
863.706177,454
863.82373,445
863.941162,441
864.058716,446
864.176208,456
864.29364,445
864.411194,446
864.528687,445
864.646118,449
864.763611,456
864.881042,455
864.998535,456
865.116028,447
865.233459,444
865.350891,446
865.468384,460
865.585754,481
865.703308,437
865.820679,460
865.938171,447
866.055542,436
866.173035,450
866.290466,453
866.407837,447
866.52533,451
866.6427,439
866.760071,455
866.877563,442
866.994934,457
867.112305,462
867.229736,451
867.347107,444
867.464539,461
867.58197,443
867.699341,448
867.81665,448
867.934082,455
868.051453,447
868.168823,442
868.286194,451
868.403564,458
868.520935,435
868.638306,425
868.755676,451
868.872986,444
868.990295,440
869.107727,441
869.225037,433
869.342346,470
869.459717,458
869.577026,465
869.694336,462
869.811707,447
869.929016,439
870.046326,456
870.163635,446
870.280945,441
870.398254,438
870.515564,448
870.632812,461
870.750183,446
870.867432,446
870.984741,451
871.102051,435
871.219299,457
871.336609,448
871.453918,455
871.571106,452
871.688416,455
871.805664,445
871.922852,445
872.040222,452
872.157471,428
872.274719,461
872.391968,443
872.509155,451
872.626465,457
872.743652,441
872.860962,458
872.978149,446
873.095337,443
873.212646,446
873.329834,445
873.44696,449
873.564209,453
873.681396,454
873.798645,450
873.915894,444
874.03302,470
874.150208,462
874.267456,436
874.384583,433
874.501831,450
874.618958,455
874.736145,453
874.853333,448
874.970459,443
875.087646,451
875.204834,449
875.32196,450
875.439148,453
875.556274,451
875.673401,425
875.790527,468
875.907715,459
876.024841,450
876.141968,446
876.259094,451
876.376282,467
876.493347,455
876.610474,438
876.7276,448
876.844727,463
876.961853,452
877.078918,457
877.195984,454
877.313171,443
877.430237,439
877.547302,450
877.664368,447
877.781433,437
877.898499,455
878.015625,440
878.13269,457
878.249695,467
878.366821,444
878.483887,440
878.600952,429
878.717957,449
878.834961,426
878.952087,463
879.069092,458
879.186157,446
879.303162,442
879.420227,449
879.537231,448
879.654236,448
879.77124,442
879.888306,485
880.005249,450
880.122314,468
880.239319,441
880.356323,430
880.473328,438
880.590271,452
880.707275,446
880.824341,463
880.941284,444
881.058228,431
881.175232,445
881.292236,473
881.40918,432
881.526123,464
881.643066,435
881.760071,478
881.877014,465
881.993958,454
882.11084,440
882.227783,461
882.344727,428
882.46167,459
882.578613,450
882.695618,436
882.812439,429
882.929382,462
883.046326,448
883.163208,442
883.280151,442
883.397034,430
883.513916,441
883.630798,433
883.747742,467
883.864563,450
883.981506,451
884.098389,452
884.21521,460
884.332153,441
884.448975,434
884.565796,458
884.682678,451
884.7995,469
884.916443,437
885.033264,462
885.150085,462
885.266968,464
885.383789,447
885.500671,459
885.617493,452
885.734314,466
885.851196,462
885.967896,448
886.084717,454
886.201599,463
886.318359,439
886.435181,447
886.552002,467
886.668762,451
886.785645,440
886.902344,471
887.019165,457
887.135925,440
887.252747,460
887.369446,470
887.486267,454
887.603027,457
887.719788,475
887.836548,471
887.953247,445
888.070068,453
888.186829,451
888.303528,442
888.420288,457
888.536987,466
888.653687,444
888.770447,435
888.887146,447
889.003967,466
889.120667,439
889.237305,453
889.354065,449
889.470703,443
889.587463,439
889.704163,444
889.820862,445
889.937561,451
890.054199,463
890.170837,465
890.287598,440
890.404236,450
890.520874,452
890.637634,474
890.754211,465
890.87085,452
890.987549,456
891.104187,446
891.220886,457
891.337463,464
891.454102,445
891.57074,450
891.687378,454
891.804077,457
891.920654,457
892.037231,471
892.15387,455
892.270447,474
892.387085,440
892.503723,461
892.6203,442
892.736877,458
892.853516,452
892.970032,455
893.08667,468
893.203186,487
893.319763,471
893.43634,452
893.552917,460
893.669556,460
893.786011,446
893.902588,470
894.019165,448
894.135681,453
894.252197,451
894.368835,474
894.485291,462
894.601868,466
894.718384,463
894.8349,482
894.951355,460
895.067932,452
895.184448,455
895.300964,465
895.417419,481
895.533936,445
895.650452,463
895.766907,465
895.883423,459
895.999878,452
896.116333,458
896.232849,461
896.349304,464
896.465759,473
896.582214,460
896.698669,466
896.815125,468
896.931641,461
897.048035,473
897.164551,471
897.280884,442
897.397339,464
897.513794,461
897.630249,468
897.746582,466
897.863098,462
897.979431,465
898.095886,475
898.212341,456
898.328674,467
898.445129,473
898.561462,471
898.677795,474
898.794312,464
898.910645,456
899.026978,450
899.143433,447
899.259766,482
899.37616,468
899.492493,467
899.608765,465
899.725159,469
899.841553,453
899.957947,483
900.07428,466
900.190552,457
900.306946,459
900.423157,483
900.53949,474
900.655884,468
900.772156,433
900.888489,459
901.004822,442
901.121033,461
901.237366,449
901.353699,459
901.46991,467
901.586304,472
901.702515,463
901.818787,462
901.93512,463
902.051331,458
902.167603,479
902.283875,469
902.400085,453
902.516418,457
902.632629,470
902.74884,472
902.865112,466
902.981384,460
903.097595,454
903.213867,490
903.330017,474
903.446289,458
903.5625,471
903.67865,480
903.794922,454
903.911072,487
904.027344,473
904.143494,454
904.259705,462
904.375916,465
904.492065,467
904.608215,459
904.724426,469
904.840576,462
904.956726,477
905.072876,466
905.189087,460
905.305176,455
905.421387,470
905.537537,455
905.653687,454
905.769775,456
905.885925,464
906.002014,470
906.118164,468
906.234314,487
906.350403,486
906.466492,467
906.582642,459
906.69873,473
906.814758,453
906.930908,461
907.046936,455
907.163086,458
907.279175,464
907.395264,475
907.511353,462
907.62738,480
907.743408,464
907.859497,478
907.975525,451
908.091553,477
908.207703,448
908.32373,479
908.439758,442
908.555786,457
908.671814,477
908.787842,462
908.90387,455
909.019775,466
909.135864,454
909.251892,467
909.367859,458
909.483826,475
909.599854,450
909.715881,479
909.831848,461
909.947815,473
910.063782,473
910.179749,471
910.295776,462
910.411743,467
910.527649,466
910.643616,502
910.759583,466
910.875488,490
910.991455,468
911.107361,479
911.223267,468
911.339294,457
911.4552,467
911.571106,455
911.687073,468
911.802979,468
911.918823,470
912.034729,495
912.150635,465
912.266602,446
912.382446,465
912.498352,471
912.614197,464
912.730103,485
912.846008,464
792.44574,613
792.56488,649
792.68396,688
792.80304,663
792.92218,593
793.041199,582
793.160339,595
793.279419,622
793.398499,582
793.517578,598
793.636658,589
793.755737,601
793.874817,609
793.993896,604
794.112976,602
794.232056,583
794.351074,605
794.470215,590
794.589233,606
794.708313,590
794.827393,584
794.946411,574
795.065552,623
795.18457,602
795.303589,593
795.422668,572
795.541687,593
795.660767,581
795.779846,588
795.898865,583
796.017883,603
796.136963,592
796.255981,592
796.375061,587
796.49408,605
796.613037,580
796.732117,562
796.851135,578
796.970154,582
797.089233,573
797.208191,546
797.327271,561
797.446228,588
797.565186,565
797.684265,557
797.803223,564
797.922241,557
798.04126,572
798.160278,569
798.279297,582
798.398315,573
798.517273,552
798.636292,584
798.75531,585
798.874268,574
798.993286,587
799.112244,594
799.231323,543
799.350281,568
799.469238,581
799.588257,593
799.707153,588
799.826111,579
799.945129,583
800.064087,599
800.183044,605
800.302063,574
800.421021,593
800.539978,587
800.658936,578
800.777893,567
800.896912,580
801.015747,578
801.134705,588
801.253723,583
801.37262,585
801.491638,595
801.610535,597
801.729492,584
801.84845,613
801.967407,584
802.086243,574
802.205261,577
802.324158,581
802.443115,576
802.562073,594
802.680969,595
802.799927,584
802.918762,589
803.037659,593
803.156677,580
803.275574,606
803.39447,587
803.513428,586
803.632263,580
803.751221,595
803.870117,594
803.989014,578
804.107971,586
804.226746,611
804.345642,593
804.4646,598
804.583496,601
804.702393,585
804.821228,611
804.940125,617
805.059021,573
805.177917,618
805.296814,608
805.415649,611
805.534546,595
805.653442,611
805.772278,622
805.891113,626
806.01001,623
806.128906,607
806.247742,619
806.366577,616
806.485413,590
806.604309,589
806.723145,613
806.84198,610
806.960876,606
807.079712,607
807.198486,618
807.317383,613
807.436218,636
807.554993,599
807.673889,623
807.792725,628
807.91156,601
808.030396,615
808.14917,620
808.268005,625
808.386841,645
808.505676,629
808.624451,611
808.743286,622
808.862122,600
808.980896,623
809.099731,584
809.218506,647
809.337341,607
809.456116,615
809.57489,631
809.693726,609
809.8125,624
809.931274,614
810.050049,633
810.168884,616
810.287659,612
810.406372,627
810.525269,632
810.643982,633
810.762756,620
810.881531,620
811.000305,644
811.11908,620
811.237854,611
811.356567,631
811.475403,631
811.594116,631
811.71283,607
811.831604,628
811.950378,627
812.069153,626
812.187927,630
812.30658,647
812.425415,630
812.544128,632
812.662781,649
812.781616,614
812.900269,636
813.019043,643
813.137756,636
813.256531,630
813.375244,624
813.493896,615
813.612671,634
813.731384,601
813.850037,629
813.96875,619
814.087524,606
814.206238,618
814.324951,646
814.443604,608
814.562256,627
814.68103,615
814.799683,607
814.918335,624
815.037109,637
815.155762,632
815.274475,620
815.393188,594
815.511841,610
815.630554,612
815.749146,607
815.867859,623
815.986572,593
816.105164,610
816.223877,603
816.342529,609
816.461182,612
816.579895,602
816.698486,608
816.817139,631
816.935791,625
817.054504,620
817.173096,636
817.291748,616
817.4104,640
817.529053,581
817.647644,604
817.766235,602
817.884949,575
818.00354,564
818.122192,580
818.240845,556
818.359436,525
818.478088,565
818.59668,556
818.715271,548
818.833923,539
818.952515,511
819.071106,505
819.189758,504
819.30835,499
819.426941,493
819.545532,515
819.664124,518
819.782715,510
819.901306,518
820.019897,497
820.138489,494
820.25708,493
820.375671,496
820.494202,470
820.612732,505
820.731384,481
820.849915,491
820.968506,474
821.087097,474
821.205627,491
821.324158,498
821.442749,496
821.561279,483
821.679871,484
821.798401,489
821.916931,474
822.035461,489
822.154053,493
822.272583,494
822.391174,488
822.509583,476
822.628174,474
822.746704,486
822.865234,498
822.983765,487
823.102295,462
823.220825,475
823.339294,496
823.457825,478
823.576355,481
823.694824,471
823.813354,493
823.931885,478
824.050354,495
824.168884,474
824.287354,486
824.405823,488
824.524353,484
824.642822,487
824.761353,500
824.879822,489
824.998291,494
825.116699,480
825.235291,487
825.353699,485
825.472168,475
825.590637,468
825.709106,477
825.827576,455
825.946045,467
826.064453,471
826.182983,469
826.301392,450
826.4198,478
826.53833,476
826.656738,460
826.775208,482
826.893677,459
827.012024,475
827.130493,453
827.248962,459
827.36731,459
827.485779,464
827.604248,466
827.722595,468
827.841064,451
827.959412,454
828.077942,457
828.196289,454
828.314636,475
828.433105,468
828.551514,461
828.669861,476
828.78833,469
828.906677,462
829.025085,464
829.143433,460
829.261841,466
829.38031,473
829.498657,459
829.617004,440
829.735413,449
829.85376,456
829.972107,458
830.090515,449
830.208862,473
830.327209,450
830.445557,470
830.563904,452
830.682312,459
830.800659,463
830.919006,469
831.037354,434
831.155701,478
831.274048,463
831.392395,474
831.51062,461
831.629028,458
831.747314,468
831.865662,465
831.984009,449
832.102356,458
832.220642,459
832.338928,461
832.457275,448
832.575623,443
832.693909,465
832.812134,467
832.930481,468
833.048828,466
833.167114,450
833.2854,452
833.403687,468
833.521973,459
833.640259,453
833.758545,454
833.876831,457
833.995056,445
834.113281,445
834.231628,453
834.349915,442
834.468201,480
834.586426,440
834.704651,450
834.822998,450
834.941162,475
835.059448,451
835.177673,473
835.295959,464
835.414246,442
835.53241,464
835.650635,453
835.768921,460
835.887146,457
836.005371,460
836.123596,451
836.241821,470
836.360046,489
836.478271,444
836.596497,475
836.714722,462
836.832886,497
836.95105,471
837.069336,481
837.1875,475
837.305725,477
837.423889,483
837.542053,482
837.660339,472
837.778503,468
837.896667,458
838.014832,476
838.132996,482
838.25116,471
838.369385,479
838.487488,471
838.605713,467
838.723877,472
838.84198,480
838.960205,463
839.078308,468
839.196472,481
839.314636,490
839.4328,453
839.550964,481
839.669067,452
839.787231,463
839.905396,462
840.023499,455
840.141602,465
840.259766,478
840.377869,464
840.495972,458
840.614136,455
840.732239,464
840.850342,477
840.968445,458
841.086548,472
841.204651,459
841.322754,458
841.440918,452
841.55896,464
841.677002,444
841.795166,466
841.913208,428
842.031311,456
842.149353,451
842.267456,433
842.385498,462
842.503601,451
842.621643,443
842.739746,475
842.857788,440
842.97583,464
843.093933,447
843.211975,452
843.330017,438
843.44812,442
843.566101,444
843.684204,467
843.802246,437
843.920227,453
844.038269,434
844.156311,448
844.274292,454
844.392395,444
844.510376,451
844.628357,431
844.74646,450
844.864441,446
844.982422,452
845.100403,465
845.218384,445
845.336426,460
845.454468,468
845.572449,434
845.69043,428
845.808411,442
845.926453,452
846.044373,441
846.162354,434
846.280396,437
846.398315,448
846.516296,461
846.634216,441
846.752197,457
846.870178,468
846.988098,441
847.106079,455
847.22406,442
847.34198,450
847.4599,445
847.577881,443
847.695801,456
847.813782,433
847.931641,437
848.049561,431
848.167603,458
848.285461,427
848.403381,449
848.521362,430
848.639221,449
848.75708,454
848.875,453
848.99292,453
849.110901,458
849.22876,443
849.34668,446
849.464539,439
849.582458,468
849.700317,453
849.818176,456
849.936096,447
850.053955,456
850.171875,452
850.289673,437
850.407593,459
850.525452,453
850.643311,459
850.761169,431
850.878967,435
850.996887,439
851.114746,447
851.232544,453
851.350403,478
851.468262,432
851.58606,455
851.703979,447
851.821777,448
851.939636,446
852.057434,430
852.175232,446
852.293091,446
852.410889,440
852.528687,462
852.646545,451
852.764343,452
852.88208,444
852.999939,449
853.117676,454
853.235535,441
853.353271,451
853.471069,432
853.588928,462
853.706604,444
853.824402,457
853.9422,453
854.059998,451
854.177734,447
854.295532,449
854.413269,433
854.531006,458
854.648804,418
854.766541,443
854.884277,461
855.002014,449
855.119751,445
855.237549,458
855.355225,443
855.473022,456
855.590698,458
855.708435,454
855.826172,451
855.943848,451
856.061646,477
856.179321,470
856.296997,427
856.414795,460
856.53241,440
856.650085,450
856.767822,473
856.885559,468
857.003174,447
857.120911,437
857.238586,454
857.356201,450
857.473938,441
857.591614,458
857.709351,444
857.826965,436
857.944641,458
858.062317,453
858.179993,443
858.297668,451
858.415283,450
858.532959,443
858.650574,451
858.768188,429
858.885803,468
859.003479,446
859.121094,435
859.23877,457
859.356384,456
859.473999,467
859.591675,435
859.709229,443
859.826843,448
859.944458,455
860.062012,458
860.179626,461
860.297302,450
860.414856,461
860.532471,429
860.650024,462
860.767639,443
860.885193,442
861.002808,436
861.120361,426
861.237976,455
861.35553,443
861.473022,454
861.590698,451
861.708191,452
861.825745,443
861.943298,436
862.060852,467
862.178406,447
862.295959,447
862.413513,451
862.531006,456
862.64856,453
862.766113,446
862.883667,447
863.00116,450
863.118713,438
863.236206,451
863.353699,452
863.471252,447
863.588745,449
863.706177,452
863.82373,465
863.941162,454
864.058716,455
864.176208,463
864.29364,431
864.411194,461
864.528687,450
864.646118,451
864.763611,457
864.881042,445
864.998535,458
865.116028,453
865.233459,440
865.350891,442
865.468384,450
865.585754,447
865.703308,457
865.820679,450
865.938171,465
866.055542,460
866.173035,470
866.290466,451
866.407837,440
866.52533,445
866.6427,464
866.760071,461
866.877563,460
866.994934,464
867.112305,462
867.229736,470
867.347107,428
867.464539,440
867.58197,458
867.699341,467
867.81665,447
867.934082,441
868.051453,444
868.168823,460
868.286194,471
868.403564,436
868.520935,448
868.638306,440
868.755676,446
868.872986,445
868.990295,437
869.107727,448
869.225037,441
869.342346,455
869.459717,450
869.577026,453
869.694336,449
869.811707,444
869.929016,457
870.046326,459
870.163635,425
870.280945,461
870.398254,452
870.515564,453
870.632812,469
870.750183,437
870.867432,450
870.984741,445
871.102051,450
871.219299,466
871.336609,461
871.453918,461
871.571106,451
871.688416,432
871.805664,447
871.922852,453
872.040222,452
872.157471,457
872.274719,442
872.391968,451
872.509155,456
872.626465,446
872.743652,440
872.860962,462
872.978149,435
873.095337,447
873.212646,459
873.329834,454
873.44696,438
873.564209,466
873.681396,435
873.798645,464
873.915894,466
874.03302,467
874.150208,446
874.267456,441
874.384583,457
874.501831,457
874.618958,450
874.736145,456
874.853333,452
874.970459,440
875.087646,472
875.204834,446
875.32196,427
875.439148,450
875.556274,450
875.673401,455
875.790527,451
875.907715,456
876.024841,455
876.141968,450
876.259094,441
876.376282,447
876.493347,456
876.610474,461
876.7276,433
876.844727,446
876.961853,443
877.078918,466
877.195984,429
877.313171,455
877.430237,460
877.547302,447
877.664368,459
877.781433,455
877.898499,450
878.015625,443
878.13269,445
878.249695,449
878.366821,444
878.483887,469
878.600952,441
878.717957,444
878.834961,455
878.952087,470
879.069092,439
879.186157,448
879.303162,458
879.420227,447
879.537231,443
879.654236,460
879.77124,455
879.888306,455
880.005249,452
880.122314,462
880.239319,463
880.356323,457
880.473328,452
880.590271,455
880.707275,436
880.824341,460
880.941284,455
881.058228,463
881.175232,443
881.292236,450
881.40918,427
881.526123,457
881.643066,444
881.760071,452
881.877014,436
881.993958,442
882.11084,449
882.227783,456
882.344727,463
882.46167,455
882.578613,437
882.695618,457
882.812439,447
882.929382,470
883.046326,450
883.163208,454
883.280151,451
883.397034,453
883.513916,452
883.630798,453
883.747742,471
883.864563,452
883.981506,435
884.098389,464
884.21521,445
884.332153,440
884.448975,431
884.565796,448
884.682678,448
884.7995,448
884.916443,457
885.033264,475
885.150085,468
885.266968,485
885.383789,443
885.500671,457
885.617493,460
885.734314,470
885.851196,442
885.967896,436
886.084717,458
886.201599,442
886.318359,451
886.435181,458
886.552002,446
886.668762,459
886.785645,450
886.902344,452
887.019165,448
887.135925,451
887.252747,453
887.369446,455
887.486267,450
887.603027,458
887.719788,472
887.836548,449
887.953247,460
888.070068,451
888.186829,448
888.303528,472
888.420288,433
888.536987,449
888.653687,456
888.770447,446
888.887146,444
889.003967,463
889.120667,473
889.237305,450
889.354065,442
889.470703,467
889.587463,469
889.704163,462
889.820862,452
889.937561,460
890.054199,452
890.170837,449
890.287598,469
890.404236,463
890.520874,475
890.637634,463
890.754211,463
890.87085,462
890.987549,455
891.104187,453
891.220886,458
891.337463,478
891.454102,441
891.57074,456
891.687378,442
891.804077,475
891.920654,453
892.037231,454
892.15387,445
892.270447,446
892.387085,456
892.503723,472
892.6203,465
892.736877,461
892.853516,466
892.970032,456
893.08667,452
893.203186,465
893.319763,464
893.43634,449
893.552917,447
893.669556,465
893.786011,460
893.902588,462
894.019165,452
894.135681,458
894.252197,461
894.368835,462
894.485291,455
894.601868,472
894.718384,444
894.8349,462
894.951355,466
895.067932,474
895.184448,468
895.300964,440
895.417419,462
895.533936,460
895.650452,440
895.766907,458
895.883423,466
895.999878,463
896.116333,467
896.232849,477
896.349304,468
896.465759,472
896.582214,446
896.698669,474
896.815125,440
896.931641,469
897.048035,481
897.164551,467
897.280884,450
897.397339,453
897.513794,487
897.630249,460
897.746582,464
897.863098,473
897.979431,456
898.095886,456
898.212341,468
898.328674,458
898.445129,463
898.561462,471
898.677795,480
898.794312,464
898.910645,440
899.026978,470
899.143433,462
899.259766,467
899.37616,454
899.492493,448
899.608765,460
899.725159,462
899.841553,467
899.957947,474
900.07428,460
900.190552,471
900.306946,455
900.423157,458
900.53949,485
900.655884,473
900.772156,433
900.888489,454
901.004822,476
901.121033,471
901.237366,467
901.353699,468
901.46991,461
901.586304,472
901.702515,461
901.818787,461
901.93512,447
902.051331,463
902.167603,451
902.283875,463
902.400085,454
902.516418,469
902.632629,468
902.74884,464
902.865112,461
902.981384,458
903.097595,468
903.213867,465
903.330017,471
903.446289,472
903.5625,457
903.67865,453
903.794922,477
903.911072,469
904.027344,466
904.143494,465
904.259705,463
904.375916,481
904.492065,465
904.608215,449
904.724426,441
904.840576,480
904.956726,471
905.072876,473
905.189087,465
905.305176,464
905.421387,470
905.537537,487
905.653687,448
905.769775,473
905.885925,457
906.002014,487
906.118164,476
906.234314,452
906.350403,481
906.466492,461
906.582642,472
906.69873,466
906.814758,456
906.930908,476
907.046936,435
907.163086,477
907.279175,481
907.395264,479
907.511353,470
907.62738,483
907.743408,468
907.859497,484
907.975525,478
908.091553,463
908.207703,474
908.32373,487
908.439758,454
908.555786,486
908.671814,482
908.787842,482
908.90387,472
909.019775,453
909.135864,463
909.251892,474
909.367859,473
909.483826,486
909.599854,452
909.715881,485
909.831848,470
909.947815,459
910.063782,456
910.179749,457
910.295776,456
910.411743,470
910.527649,469
910.643616,465
910.759583,471
910.875488,466
910.991455,448
911.107361,470
911.223267,482
911.339294,478
911.4552,460
911.571106,462
911.687073,468
911.802979,461
911.918823,486
912.034729,476
912.150635,485
912.266602,455
912.382446,456
912.498352,455
912.614197,448
912.730103,463
912.846008,469
