792.44574,1131
792.56488,1180
792.68396,1154
792.80304,1167
792.92218,1089
793.041199,1010
793.160339,1007
793.279419,1008
793.398499,991
793.517578,935
793.636658,940
793.755737,923
793.874817,952
793.993896,904
794.112976,866
794.232056,868
794.351074,888
794.470215,866
794.589233,862
794.708313,839
794.827393,807
794.946411,821
795.065552,815
795.18457,791
795.303589,772
795.422668,782
795.541687,759
795.660767,772
795.779846,745
795.898865,776
796.017883,713
796.136963,737
796.255981,725
796.375061,749
796.49408,725
796.613037,689
796.732117,720
796.851135,693
796.970154,701
797.089233,705
797.208191,688
797.327271,717
797.446228,643
797.565186,696
797.684265,690
797.803223,676
797.922241,679
798.04126,670
798.160278,657
798.279297,684
798.398315,640
798.517273,659
798.636292,646
798.75531,663
798.874268,676
798.993286,648
799.112244,633
799.231323,678
799.350281,671
799.469238,649
799.588257,647
799.707153,636
799.826111,613
799.945129,627
800.064087,615
800.183044,619
800.302063,655
800.421021,632
800.539978,618
800.658936,618
800.777893,632
800.896912,612
801.015747,604
801.134705,618
801.253723,611
801.37262,614
801.491638,598
801.610535,624
801.729492,607
801.84845,601
801.967407,614
802.086243,589
802.205261,582
802.324158,604
802.443115,600
802.562073,573
802.680969,609
802.799927,586
802.918762,575
803.037659,609
803.156677,596
803.275574,610
803.39447,582
803.513428,599
803.632263,575
803.751221,569
803.870117,582
803.989014,565
804.107971,600
804.226746,577
804.345642,587
804.4646,580
804.583496,596
804.702393,585
804.821228,555
804.940125,579
805.059021,553
805.177917,578
805.296814,575
805.415649,583
805.534546,578
805.653442,558
805.772278,556
805.891113,576
806.01001,558
806.128906,553
806.247742,565
806.366577,563
806.485413,551
806.604309,565
806.723145,552
806.84198,576
806.960876,548
807.079712,565
807.198486,551
807.317383,587
807.436218,570
807.554993,555
807.673889,557
807.792725,546
807.91156,564
808.030396,548
808.14917,556
808.268005,553
808.386841,574
808.505676,566
808.624451,561
808.743286,560
808.862122,550
808.980896,558
809.099731,554
809.218506,555
809.337341,552
809.456116,540
809.57489,566
809.693726,547
809.8125,543
809.931274,551
810.050049,554
810.168884,546
810.287659,551
810.406372,539
810.525269,555
810.643982,550
810.762756,560
810.881531,557
811.000305,561
811.11908,551
811.237854,560
811.356567,546
811.475403,565
811.594116,549
811.71283,566
811.831604,558
811.950378,575
812.069153,580
812.187927,564
812.30658,553
812.425415,536
812.544128,547
812.662781,565
812.781616,576
812.900269,566
813.019043,523
813.137756,566
813.256531,554
813.375244,539
813.493896,559
813.612671,550
813.731384,561
813.850037,545
813.96875,550
814.087524,513
814.206238,548
814.324951,522
814.443604,558
814.562256,523
814.68103,531
814.799683,544
814.918335,548
815.037109,536
815.155762,539
815.274475,558
815.393188,561
815.511841,543
815.630554,544
815.749146,549
815.867859,537
815.986572,540
816.105164,525
816.223877,550
816.342529,549
816.461182,538
816.579895,549
816.698486,558
816.817139,523
816.935791,584
817.054504,542
817.173096,557
817.291748,545
817.4104,543
817.529053,556
817.647644,543
817.766235,543
817.884949,556
818.00354,546
818.122192,520
818.240845,542
818.359436,517
818.478088,532
818.59668,523
818.715271,524
818.833923,515
818.952515,519
819.071106,530
819.189758,543
819.30835,501
819.426941,524
819.545532,519
819.664124,512
819.782715,523
819.901306,544
820.019897,502
820.138489,522
820.25708,504
820.375671,541
820.494202,508
820.612732,513
820.731384,514
820.849915,509
820.968506,527
821.087097,530
821.205627,514
821.324158,532
821.442749,514
821.561279,527
821.679871,533
821.798401,502
821.916931,509
822.035461,523
822.154053,518
822.272583,515
822.391174,498
822.509583,526
822.628174,509
822.746704,512
822.865234,488
822.983765,516
823.102295,517
823.220825,502
823.339294,520
823.457825,510
823.576355,499
823.694824,520
823.813354,509
823.931885,502
824.050354,497
824.168884,518
824.287354,517
824.405823,514
824.524353,493
824.642822,502
824.761353,503
824.879822,519
824.998291,497
825.116699,516
825.235291,509
825.353699,494
825.472168,499
825.590637,506
825.709106,491
825.827576,501
825.946045,515
826.064453,500
826.182983,486
826.301392,496
826.4198,512
826.53833,480
826.656738,516
826.775208,483
826.893677,498
827.012024,511
827.130493,492
827.248962,505
827.36731,497
827.485779,518
827.604248,498
827.722595,508
827.841064,493
827.959412,506
828.077942,509
828.196289,497
828.314636,496
828.433105,480
828.551514,481
828.669861,523
828.78833,483
828.906677,480
829.025085,501
829.143433,485
829.261841,507
829.38031,488
829.498657,500
829.617004,475
829.735413,481
829.85376,484
829.972107,482
830.090515,510
830.208862,495
830.327209,491
830.445557,495
830.563904,476
830.682312,491
830.800659,495
830.919006,506
831.037354,487
831.155701,489
831.274048,537
831.392395,491
831.51062,484
831.629028,514
831.747314,494
831.865662,518
831.984009,496
832.102356,484
832.220642,507
832.338928,505
832.457275,525
832.575623,482
832.693909,503
832.812134,503
832.930481,514
833.048828,495
833.167114,503
833.2854,489
833.403687,507
833.521973,489
833.640259,496
833.758545,525
833.876831,517
833.995056,493
834.113281,485
834.231628,489
834.349915,507
834.468201,519
834.586426,513
834.704651,513
834.822998,494
834.941162,511
835.059448,508
835.177673,508
835.295959,528
835.414246,481
835.53241,509
835.650635,497
835.768921,505
835.887146,490
836.005371,503
836.123596,496
836.241821,495
836.360046,500
836.478271,482
836.596497,492
836.714722,482
836.832886,474
836.95105,508
837.069336,493
837.1875,498
837.305725,494
837.423889,490
837.542053,494
837.660339,502
837.778503,485
837.896667,500
838.014832,490
838.132996,494
838.25116,486
838.369385,512
838.487488,486
838.605713,505
838.723877,509
838.84198,507
838.960205,488
839.078308,496
839.196472,505
839.314636,492
839.4328,507
839.550964,503
839.669067,519
839.787231,511
839.905396,533
840.023499,505
840.141602,513
840.259766,516
840.377869,536
840.495972,527
840.614136,526
840.732239,535
840.850342,523
840.968445,512
841.086548,554
841.204651,562
841.322754,548
841.440918,549
841.55896,563
841.677002,547
841.795166,535
841.913208,530
842.031311,527
842.149353,559
842.267456,555
842.385498,566
842.503601,551
842.621643,534
842.739746,522
842.857788,526
842.97583,536
843.093933,544
843.211975,560
843.330017,540
843.44812,542
843.566101,542
843.684204,522
843.802246,519
843.920227,542
844.038269,553
844.156311,528
844.274292,549
844.392395,519
844.510376,561
844.628357,512
844.74646,519
844.864441,510
844.982422,530
845.100403,538
845.218384,533
845.336426,507
845.454468,520
845.572449,520
845.69043,521
845.808411,498
845.926453,523
846.044373,516
846.162354,538
846.280396,511
846.398315,532
846.516296,513
846.634216,528
846.752197,542
846.870178,535
846.988098,538
847.106079,537
847.22406,543
847.34198,548
847.4599,528
847.577881,518
847.695801,537
847.813782,540
847.931641,526
848.049561,533
848.167603,530
848.285461,527
848.403381,560
848.521362,533
848.639221,521
848.75708,532
848.875,533
848.99292,549
849.110901,532
849.22876,536
849.34668,532
849.464539,540
849.582458,547
849.700317,524
849.818176,538
849.936096,509
850.053955,516
850.171875,535
850.289673,504
850.407593,540
850.525452,528
850.643311,525
850.761169,516
850.878967,522
850.996887,531
851.114746,504
851.232544,529
851.350403,534
851.468262,517
851.58606,544
851.703979,498
851.821777,546
851.939636,501
852.057434,528
852.175232,533
852.293091,536
852.410889,550
852.528687,557
852.646545,563
852.764343,556
852.88208,558
852.999939,555
853.117676,541
853.235535,548
853.353271,519
853.471069,538
853.588928,507
853.706604,531
853.824402,522
853.9422,535
854.059998,523
854.177734,516
854.295532,518
854.413269,559
854.531006,511
854.648804,536
854.766541,538
854.884277,517
855.002014,535
855.119751,523
855.237549,521
855.355225,541
855.473022,529
855.590698,523
855.708435,528
855.826172,550
855.943848,516
856.061646,526
856.179321,527
856.296997,522
856.414795,546
856.53241,547
856.650085,548
856.767822,553
856.885559,520
857.003174,573
857.120911,559
857.238586,563
857.356201,532
857.473938,544
857.591614,511
857.709351,547
857.826965,539
857.944641,558
858.062317,542
858.179993,563
858.297668,533
858.415283,552
858.532959,539
858.650574,559
858.768188,549
858.885803,545
859.003479,541
859.121094,527
859.23877,557
859.356384,539
859.473999,560
859.591675,528
859.709229,537
859.826843,529
859.944458,506
860.062012,510
860.179626,524
860.297302,535
860.414856,532
860.532471,544
860.650024,528
860.767639,522
860.885193,512
861.002808,509
861.120361,511
861.237976,520
861.35553,529
861.473022,527
861.590698,527
861.708191,509
861.825745,543
861.943298,530
862.060852,512
862.178406,527
862.295959,515
862.413513,508
862.531006,490
862.64856,495
862.766113,498
862.883667,510
863.00116,473
863.118713,490
863.236206,489
863.353699,504
863.471252,505
863.588745,501
863.706177,507
863.82373,513
863.941162,521
864.058716,528
864.176208,500
864.29364,510
864.411194,492
864.528687,511
864.646118,509
864.763611,503
864.881042,493
864.998535,506
865.116028,495
865.233459,508
865.350891,513
865.468384,521
865.585754,514
865.703308,512
865.820679,499
865.938171,499
866.055542,506
866.173035,507
866.290466,491
866.407837,505
866.52533,510
866.6427,528
866.760071,506
866.877563,524
866.994934,522
867.112305,513
867.229736,529
867.347107,492
867.464539,532
867.58197,519
867.699341,508
867.81665,521
867.934082,510
868.051453,533
868.168823,506
868.286194,509
868.403564,535
868.520935,511
868.638306,500
868.755676,532
868.872986,524
868.990295,523
869.107727,524
869.225037,514
869.342346,536
869.459717,515
869.577026,521
869.694336,525
869.811707,524
869.929016,537
870.046326,521
870.163635,531
870.280945,523
870.398254,524
870.515564,553
870.632812,532
870.750183,537
870.867432,558
870.984741,555
871.102051,548
871.219299,539
871.336609,550
871.453918,567
871.571106,552
871.688416,577
871.805664,556
871.922852,535
872.040222,572
872.157471,556
872.274719,553
872.391968,561
872.509155,554
872.626465,545
872.743652,547
872.860962,537
872.978149,556
873.095337,561
873.212646,550
873.329834,546
873.44696,547
873.564209,530
873.681396,533
873.798645,535
873.915894,554
874.03302,539
874.150208,553
874.267456,532
874.384583,561
874.501831,555
874.618958,547
874.736145,568
874.853333,556
874.970459,588
875.087646,543
875.204834,569
875.32196,552
875.439148,535
875.556274,525
875.673401,545
875.790527,544
875.907715,549
876.024841,544
876.141968,526
876.259094,516
876.376282,537
876.493347,529
876.610474,536
876.7276,537
876.844727,515
876.961853,512
877.078918,532
877.195984,528
877.313171,520
877.430237,518
877.547302,525
877.664368,529
877.781433,525
877.898499,538
878.015625,526
878.13269,544
878.249695,517
878.366821,516
878.483887,517
878.600952,498
878.717957,518
878.834961,505
878.952087,502
879.069092,524
879.186157,516
879.303162,504
879.420227,514
879.537231,513
879.654236,480
879.77124,502
879.888306,508
880.005249,492
880.122314,517
880.239319,523
880.356323,510
880.473328,517
880.590271,506
880.707275,488
880.824341,498
880.941284,487
881.058228,486
881.175232,520
881.292236,475
881.40918,508
881.526123,484
881.643066,516
881.760071,500
881.877014,496
881.993958,474
882.11084,497
882.227783,504
882.344727,494
882.46167,486
882.578613,490
882.695618,479
882.812439,497
882.929382,490
883.046326,502
883.163208,498
883.280151,490
883.397034,513
883.513916,515
883.630798,505
883.747742,516
883.864563,504
883.981506,521
884.098389,521
884.21521,519
884.332153,517
884.448975,520
884.565796,521
884.682678,533
884.7995,541
884.916443,553
885.033264,579
885.150085,591
885.266968,579
885.383789,618
885.500671,618
885.617493,618
885.734314,603
885.851196,591
885.967896,607
886.084717,586
886.201599,593
886.318359,595
886.435181,583
886.552002,590
886.668762,594
886.785645,584
886.902344,592
887.019165,554
887.135925,575
887.252747,558
887.369446,581
887.486267,576
887.603027,567
887.719788,537
887.836548,531
887.953247,543
888.070068,518
888.186829,517
888.303528,491
888.420288,516
888.536987,502
888.653687,482
888.770447,512
888.887146,481
889.003967,505
889.120667,500
889.237305,489
889.354065,465
889.470703,479
889.587463,485
889.704163,465
889.820862,481
889.937561,474
890.054199,485
890.170837,491
890.287598,515
890.404236,463
890.520874,495
890.637634,471
890.754211,470
890.87085,471
890.987549,490
891.104187,483
891.220886,493
891.337463,478
891.454102,485
891.57074,488
891.687378,473
891.804077,468
891.920654,477
892.037231,490
892.15387,503
892.270447,483
892.387085,480
892.503723,485
892.6203,474
892.736877,483
892.853516,481
892.970032,462
893.08667,494
893.203186,454
893.319763,447
893.43634,476
893.552917,478
893.669556,481
893.786011,486
893.902588,478
894.019165,509
894.135681,475
894.252197,479
894.368835,493
894.485291,479
894.601868,470
894.718384,487
894.8349,479
894.951355,475
895.067932,484
895.184448,481
895.300964,494
895.417419,464
895.533936,474
895.650452,475
895.766907,469
895.883423,466
895.999878,473
896.116333,475
896.232849,485
896.349304,473
896.465759,466
896.582214,480
896.698669,460
896.815125,471
896.931641,475
897.048035,484
897.164551,462
897.280884,473
897.397339,474
897.513794,465
897.630249,475
897.746582,493
897.863098,475
897.979431,486
898.095886,478
898.212341,473
898.328674,483
898.445129,467
898.561462,504
898.677795,489
898.794312,488
898.910645,503
899.026978,471
899.143433,473
899.259766,491
899.37616,506
899.492493,492
899.608765,479
899.725159,478
899.841553,487
899.957947,476
900.07428,497
900.190552,480
900.306946,467
900.423157,467
900.53949,466
900.655884,476
900.772156,479
900.888489,489
901.004822,492
901.121033,479
901.237366,482
901.353699,499
901.46991,483
901.586304,505
901.702515,512
901.818787,496
901.93512,501
902.051331,516
902.167603,512
902.283875,513
902.400085,534
902.516418,522
902.632629,550
902.74884,532
902.865112,527
902.981384,536
903.097595,548
903.213867,543
903.330017,531
903.446289,522
903.5625,544
903.67865,531
903.794922,532
903.911072,524
904.027344,544
904.143494,508
904.259705,503
904.375916,490
904.492065,508
904.608215,496
904.724426,507
904.840576,482
904.956726,507
905.072876,496
905.189087,492
905.305176,497
905.421387,499
905.537537,484
905.653687,487
905.769775,485
905.885925,489
906.002014,481
906.118164,449
906.234314,475
906.350403,481
906.466492,475
906.582642,458
906.69873,495
906.814758,462
906.930908,475
907.046936,483
907.163086,475
907.279175,462
907.395264,466
907.511353,470
907.62738,449
907.743408,466
907.859497,474
907.975525,481
908.091553,456
908.207703,472
908.32373,479
908.439758,457
908.555786,474
908.671814,466
908.787842,460
908.90387,474
909.019775,461
909.135864,479
909.251892,475
909.367859,467
909.483826,472
909.599854,488
909.715881,467
909.831848,492
909.947815,480
910.063782,497
910.179749,467
910.295776,504
910.411743,475
910.527649,466
910.643616,478
910.759583,477
910.875488,468
910.991455,474
911.107361,472
911.223267,481
911.339294,477
911.4552,474
911.571106,475
911.687073,466
911.802979,486
911.918823,472
912.034729,481
912.150635,476
912.266602,468
912.382446,472
912.498352,471
912.614197,480
912.730103,460
912.846008,458
792.44574,1197
792.56488,1167
792.68396,1175
792.80304,1133
792.92218,1063
793.041199,1039
793.160339,1030
793.279419,1006
793.398499,1004
793.517578,940
793.636658,941
793.755737,909
793.874817,945
793.993896,931
794.112976,896
794.232056,854
794.351074,833
794.470215,826
794.589233,831
794.708313,827
794.827393,811
794.946411,836
795.065552,814
795.18457,809
795.303589,788
795.422668,771
795.541687,767
795.660767,769
795.779846,754
795.898865,746
796.017883,747
796.136963,741
796.255981,736
796.375061,730
796.49408,723
796.613037,726
796.732117,719
796.851135,703
796.970154,689
797.089233,680
797.208191,710
797.327271,684
797.446228,670
797.565186,697
797.684265,678
797.803223,668
797.922241,659
798.04126,679
798.160278,657
798.279297,647
798.398315,668
798.517273,660
798.636292,642
798.75531,688
798.874268,664
798.993286,644
799.112244,639
799.231323,646
799.350281,645
799.469238,609
799.588257,641
799.707153,649
799.826111,641
799.945129,635
800.064087,627
800.183044,627
800.302063,628
800.421021,631
800.539978,604
800.658936,614
800.777893,627
800.896912,590
801.015747,625
801.134705,620
801.253723,601
801.37262,599
801.491638,594
801.610535,599
801.729492,610
801.84845,621
801.967407,604
802.086243,595
802.205261,607
802.324158,589
802.443115,612
802.562073,601
802.680969,588
802.799927,601
802.918762,573
803.037659,579
803.156677,575
803.275574,591
803.39447,583
803.513428,597
803.632263,587
803.751221,591
803.870117,591
803.989014,586
804.107971,596
804.226746,563
804.345642,574
804.4646,578
804.583496,577
804.702393,571
804.821228,573
804.940125,575
805.059021,570
805.177917,568
805.296814,580
805.415649,593
805.534546,579
805.653442,568
805.772278,550
805.891113,560
806.01001,576
806.128906,591
806.247742,563
806.366577,588
806.485413,568
806.604309,570
806.723145,548
806.84198,563
806.960876,575
807.079712,559
807.198486,559
807.317383,587
807.436218,569
807.554993,559
807.673889,553
807.792725,569
807.91156,553
808.030396,552
808.14917,556
808.268005,558
808.386841,560
808.505676,557
808.624451,549
808.743286,566
808.862122,530
808.980896,563
809.099731,557
809.218506,566
809.337341,542
809.456116,558
809.57489,550
809.693726,566
809.8125,543
809.931274,535
810.050049,562
810.168884,534
810.287659,551
810.406372,561
810.525269,564
810.643982,553
810.762756,533
810.881531,537
811.000305,549
811.11908,543
811.237854,550
811.356567,551
811.475403,534
811.594116,557
811.71283,538
811.831604,543
811.950378,560
812.069153,552
812.187927,565
812.30658,558
812.425415,556
812.544128,565
812.662781,574
812.781616,574
812.900269,579
813.019043,579
813.137756,564
813.256531,563
813.375244,538
813.493896,556
813.612671,553
813.731384,533
813.850037,543
813.96875,557
814.087524,550
814.206238,529
814.324951,536
814.443604,542
814.562256,535
814.68103,549
814.799683,552
814.918335,547
815.037109,545
815.155762,536
815.274475,540
815.393188,543
815.511841,570
815.630554,522
815.749146,551
815.867859,550
815.986572,524
816.105164,530
816.223877,525
816.342529,548
816.461182,553
816.579895,547
816.698486,550
816.817139,548
816.935791,537
817.054504,555
817.173096,546
817.291748,548
817.4104,552
817.529053,525
817.647644,536
817.766235,521
817.884949,551
818.00354,534
818.122192,527
818.240845,511
818.359436,517
818.478088,514
818.59668,545
818.715271,544
818.833923,558
818.952515,530
819.071106,508
819.189758,502
819.30835,501
819.426941,520
819.545532,516
819.664124,520
819.782715,521
819.901306,499
820.019897,525
820.138489,541
820.25708,544
820.375671,517
820.494202,494
820.612732,499
820.731384,523
820.849915,539
820.968506,522
821.087097,538
821.205627,507
821.324158,508
821.442749,535
821.561279,510
821.679871,508
821.798401,509
821.916931,505
822.035461,497
822.154053,502
822.272583,509
822.391174,492
822.509583,499
822.628174,499
822.746704,520
822.865234,481
822.983765,507
823.102295,502
823.220825,512
823.339294,496
823.457825,507
823.576355,503
823.694824,495
823.813354,498
823.931885,523
824.050354,500
824.168884,524
824.287354,493
824.405823,503
824.524353,507
824.642822,490
824.761353,497
824.879822,497
824.998291,524
825.116699,508
825.235291,503
825.353699,506
825.472168,497
825.590637,511
825.709106,495
825.827576,501
825.946045,501
826.064453,516
826.182983,473
826.301392,510
826.4198,484
826.53833,491
826.656738,484
826.775208,501
826.893677,488
827.012024,504
827.130493,493
827.248962,507
827.36731,518
827.485779,492
827.604248,500
827.722595,495
827.841064,493
827.959412,501
828.077942,509
828.196289,502
828.314636,493
828.433105,501
828.551514,476
828.669861,500
828.78833,502
828.906677,507
829.025085,500
829.143433,515
829.261841,481
829.38031,505
829.498657,490
829.617004,500
829.735413,502
829.85376,490
829.972107,519
830.090515,487
830.208862,481
830.327209,489
830.445557,476
830.563904,496
830.682312,497
830.800659,496
830.919006,494
831.037354,514
831.155701,488
831.274048,516
831.392395,501
831.51062,533
831.629028,498
831.747314,496
831.865662,500
831.984009,505
832.102356,480
832.220642,503
832.338928,523
832.457275,520
832.575623,510
832.693909,495
832.812134,504
832.930481,502
833.048828,485
833.167114,514
833.2854,511
833.403687,505
833.521973,511
833.640259,512
833.758545,498
833.876831,515
833.995056,482
834.113281,502
834.231628,504
834.349915,502
834.468201,511
834.586426,498
834.704651,503
834.822998,504
834.941162,505
835.059448,519
835.177673,518
835.295959,501
835.414246,507
835.53241,493
835.650635,497
835.768921,507
835.887146,487
836.005371,511
836.123596,504
836.241821,501
836.360046,512
836.478271,512
836.596497,478
836.714722,485
836.832886,507
836.95105,475
837.069336,510
837.1875,505
837.305725,491
837.423889,507
837.542053,520
837.660339,488
837.778503,476
837.896667,494
838.014832,497
838.132996,510
838.25116,496
838.369385,503
838.487488,483
838.605713,501
838.723877,495
838.84198,503
838.960205,509
839.078308,523
839.196472,504
839.314636,524
839.4328,517
839.550964,510
839.669067,495
839.787231,505
839.905396,515
840.023499,533
840.141602,525
840.259766,519
840.377869,531
840.495972,539
840.614136,524
840.732239,545
840.850342,516
840.968445,519
841.086548,535
841.204651,539
841.322754,523
841.440918,535
841.55896,561
841.677002,544
841.795166,529
841.913208,550
842.031311,525
842.149353,566
842.267456,537
842.385498,542
842.503601,531
842.621643,537
842.739746,540
842.857788,538
842.97583,522
843.093933,522
843.211975,546
843.330017,535
843.44812,540
843.566101,548
843.684204,561
843.802246,540
843.920227,514
844.038269,547
844.156311,515
844.274292,563
844.392395,524
844.510376,536
844.628357,528
844.74646,534
844.864441,541
844.982422,545
845.100403,523
845.218384,529
845.336426,529
845.454468,548
845.572449,512
845.69043,537
845.808411,531
845.926453,518
846.044373,520
846.162354,544
846.280396,522
846.398315,542
846.516296,518
846.634216,525
846.752197,524
846.870178,536
846.988098,515
847.106079,518
847.22406,526
847.34198,526
847.4599,533
847.577881,538
847.695801,514
847.813782,527
847.931641,540
848.049561,532
848.167603,526
848.285461,523
848.403381,544
848.521362,525
848.639221,548
848.75708,533
848.875,554
848.99292,527
849.110901,527
849.22876,525
849.34668,497
849.464539,564
849.582458,517
849.700317,536
849.818176,531
849.936096,536
850.053955,531
850.171875,536
850.289673,537
850.407593,547
850.525452,530
850.643311,556
850.761169,526
850.878967,543
850.996887,519
851.114746,536
851.232544,521
851.350403,537
851.468262,522
851.58606,543
851.703979,508
851.821777,542
851.939636,522
852.057434,519
852.175232,523
852.293091,557
852.410889,527
852.528687,566
852.646545,564
852.764343,569
852.88208,575
852.999939,546
853.117676,553
853.235535,521
853.353271,553
853.471069,543
853.588928,524
853.706604,534
853.824402,563
853.9422,533
854.059998,536
854.177734,527
854.295532,525
854.413269,526
854.531006,534
854.648804,532
854.766541,556
854.884277,547
855.002014,538
855.119751,531
855.237549,521
855.355225,521
855.473022,538
855.590698,537
855.708435,555
855.826172,530
855.943848,541
856.061646,536
856.179321,542
856.296997,534
856.414795,524
856.53241,534
856.650085,558
856.767822,546
856.885559,563
857.003174,548
857.120911,549
857.238586,554
857.356201,520
857.473938,552
857.591614,545
857.709351,547
857.826965,530
857.944641,536
858.062317,522
858.179993,562
858.297668,559
858.415283,539
858.532959,546
858.650574,556
858.768188,544
858.885803,566
859.003479,527
859.121094,522
859.23877,563
859.356384,529
859.473999,547
859.591675,538
859.709229,519
859.826843,526
859.944458,518
860.062012,519
860.179626,524
860.297302,533
860.414856,530
860.532471,535
860.650024,514
860.767639,527
860.885193,540
861.002808,536
861.120361,518
861.237976,517
861.35553,526
861.473022,518
861.590698,520
861.708191,529
861.825745,529
861.943298,528
862.060852,515
862.178406,529
862.295959,502
862.413513,507
862.531006,511
862.64856,512
862.766113,519
862.883667,525
863.00116,488
863.118713,510
863.236206,527
863.353699,520
863.471252,505
863.588745,543
863.706177,482
863.82373,516
863.941162,509
864.058716,539
864.176208,515
864.29364,502
864.411194,511
864.528687,499
864.646118,518
864.763611,512
864.881042,513
864.998535,497
865.116028,518
865.233459,504
865.350891,509
865.468384,517
865.585754,495
865.703308,505
865.820679,510
865.938171,513
866.055542,506
866.173035,504
866.290466,491
866.407837,515
866.52533,480
866.6427,521
866.760071,508
866.877563,515
866.994934,493
867.112305,503
867.229736,534
867.347107,501
867.464539,531
867.58197,508
867.699341,518
867.81665,508
867.934082,517
868.051453,508
868.168823,511
868.286194,496
868.403564,504
868.520935,503
868.638306,522
868.755676,508
868.872986,500
868.990295,512
869.107727,514
869.225037,536
869.342346,507
869.459717,520
869.577026,524
869.694336,527
869.811707,535
869.929016,526
870.046326,546
870.163635,533
870.280945,519
870.398254,531
870.515564,538
870.632812,547
870.750183,571
870.867432,538
870.984741,550
871.102051,563
871.219299,516
871.336609,562
871.453918,534
871.571106,567
871.688416,554
871.805664,572
871.922852,558
872.040222,547
872.157471,578
872.274719,544
872.391968,539
872.509155,570
872.626465,551
872.743652,572
872.860962,562
872.978149,579
873.095337,547
873.212646,578
873.329834,562
873.44696,552
873.564209,531
873.681396,531
873.798645,531
873.915894,560
874.03302,531
874.150208,558
874.267456,534
874.384583,547
874.501831,551
874.618958,557
874.736145,548
874.853333,560
874.970459,561
875.087646,598
875.204834,546
875.32196,571
875.439148,579
875.556274,559
875.673401,572
875.790527,522
875.907715,547
876.024841,549
876.141968,542
876.259094,547
876.376282,517
876.493347,558
876.610474,528
876.7276,544
876.844727,522
876.961853,524
877.078918,533
877.195984,516
877.313171,526
877.430237,500
877.547302,525
877.664368,510
877.781433,544
877.898499,518
878.015625,532
878.13269,538
878.249695,520
878.366821,532
878.483887,499
878.600952,531
878.717957,533
878.834961,524
878.952087,521
879.069092,521
879.186157,525
879.303162,498
879.420227,491
879.537231,487
879.654236,508
879.77124,511
879.888306,490
880.005249,487
880.122314,499
880.239319,500
880.356323,501
880.473328,518
880.590271,504
880.707275,488
880.824341,507
880.941284,513
881.058228,491
881.175232,508
881.292236,492
881.40918,496
881.526123,488
881.643066,500
881.760071,478
881.877014,484
881.993958,482
882.11084,502
882.227783,492
882.344727,494
882.46167,529
882.578613,492
882.695618,505
882.812439,493
882.929382,512
883.046326,503
883.163208,503
883.280151,506
883.397034,487
883.513916,517
883.630798,520
883.747742,506
883.864563,514
883.981506,511
884.098389,534
884.21521,524
884.332153,508
884.448975,517
884.565796,523
884.682678,548
884.7995,543
884.916443,546
885.033264,590
885.150085,589
885.266968,592
885.383789,614
885.500671,599
885.617493,608
885.734314,607
885.851196,599
885.967896,594
886.084717,581
886.201599,594
886.318359,603
886.435181,586
886.552002,593
886.668762,603
886.785645,585
886.902344,592
887.019165,587
887.135925,562
887.252747,568
887.369446,575
887.486267,555
887.603027,532
887.719788,559
887.836548,531
887.953247,530
888.070068,520
888.186829,508
888.303528,504
888.420288,516
888.536987,521
888.653687,485
888.770447,509
888.887146,504
889.003967,495
889.120667,512
889.237305,471
889.354065,480
889.470703,467
889.587463,500
889.704163,513
889.820862,475
889.937561,474
890.054199,487
890.170837,481
890.287598,490
890.404236,484
890.520874,466
890.637634,489
890.754211,476
890.87085,472
890.987549,479
891.104187,474
891.220886,492
891.337463,493
891.454102,499
891.57074,494
891.687378,475
891.804077,496
891.920654,490
892.037231,495
892.15387,485
892.270447,478
892.387085,487
892.503723,487
892.6203,498
892.736877,475
892.853516,475
892.970032,495
893.08667,473
893.203186,475
893.319763,499
893.43634,488
893.552917,487
893.669556,464
893.786011,475
893.902588,483
894.019165,476
894.135681,473
894.252197,471
894.368835,465
894.485291,485
894.601868,476
894.718384,494
894.8349,497
894.951355,476
895.067932,470
895.184448,484
895.300964,484
895.417419,462
895.533936,485
895.650452,475
895.766907,466
895.883423,483
895.999878,475
896.116333,477
896.232849,476
896.349304,473
896.465759,471
896.582214,486
896.698669,475
896.815125,470
896.931641,478
897.048035,464
897.164551,477
897.280884,488
897.397339,482
897.513794,485
897.630249,467
897.746582,490
897.863098,474
897.979431,492
898.095886,478
898.212341,480
898.328674,478
898.445129,504
898.561462,495
898.677795,497
898.794312,492
898.910645,492
899.026978,487
899.143433,499
899.259766,484
899.37616,485
899.492493,475
899.608765,482
899.725159,499
899.841553,462
899.957947,490
900.07428,474
900.190552,494
900.306946,492
900.423157,484
900.53949,499
900.655884,492
900.772156,486
900.888489,475
901.004822,465
901.121033,494
901.237366,485
901.353699,500
901.46991,502
901.586304,498
901.702515,497
901.818787,494
901.93512,525
902.051331,517
902.167603,527
902.283875,517
902.400085,526
902.516418,521
902.632629,536
902.74884,555
902.865112,559
902.981384,551
903.097595,548
903.213867,544
903.330017,542
903.446289,544
903.5625,518
903.67865,539
903.794922,527
903.911072,526
904.027344,542
904.143494,508
904.259705,531
904.375916,533
904.492065,517
904.608215,507
904.724426,501
904.840576,506
904.956726,519
905.072876,489
905.189087,486
905.305176,493
905.421387,490
905.537537,492
905.653687,487
905.769775,487
905.885925,491
906.002014,489
906.118164,484
906.234314,445
906.350403,475
906.466492,485
906.582642,468
906.69873,478
906.814758,482
906.930908,490
907.046936,471
907.163086,458
907.279175,477
907.395264,492
907.511353,479
907.62738,479
907.743408,473
907.859497,473
907.975525,490
908.091553,486
908.207703,487
908.32373,478
908.439758,484
908.555786,464
908.671814,499
908.787842,494
908.90387,479
909.019775,454
909.135864,480
909.251892,460
909.367859,489
909.483826,476
909.599854,465
909.715881,492
909.831848,470
909.947815,465
910.063782,483
910.179749,477
910.295776,464
910.411743,491
910.527649,471
910.643616,465
910.759583,466
910.875488,462
910.991455,493
911.107361,484
911.223267,485
911.339294,475
911.4552,486
911.571106,464
911.687073,486
911.802979,484
911.918823,476
912.034729,488
912.150635,484
912.266602,468
912.382446,460
912.498352,471
912.614197,484
912.730103,467
912.846008,468
792.44574,1163
792.56488,1165
792.68396,1184
792.80304,1125
792.92218,1076
793.041199,1027
793.160339,1017
793.279419,1000
793.398499,1001
793.517578,944
793.636658,956
793.755737,948
793.874817,939
793.993896,903
794.112976,875
794.232056,866
794.351074,875
794.470215,860
794.589233,808
794.708313,820
794.827393,827
794.946411,793
795.065552,810
795.18457,818
795.303589,802
795.422668,772
795.541687,778
795.660767,744
795.779846,769
795.898865,755
796.017883,736
796.136963,742
796.255981,756
796.375061,736
796.49408,747
796.613037,739
796.732117,738
796.851135,704
796.970154,694
797.089233,694
797.208191,709
797.327271,677
797.446228,668
797.565186,665
797.684265,653
797.803223,676
797.922241,668
798.04126,673
798.160278,685
798.279297,659
798.398315,640
798.517273,656
798.636292,675
798.75531,655
798.874268,632
798.993286,681
799.112244,664
799.231323,626
799.350281,661
799.469238,646
799.588257,645
799.707153,632
799.826111,659
799.945129,645
800.064087,631
800.183044,605
800.302063,623
800.421021,619
800.539978,610
800.658936,608
800.777893,632
800.896912,609
801.015747,618
801.134705,591
801.253723,643
801.37262,624
801.491638,649
801.610535,610
801.729492,618
801.84845,597
801.967407,607
802.086243,611
802.205261,612
802.324158,599
802.443115,580
802.562073,591
802.680969,597
802.799927,606
802.918762,592
803.037659,572
803.156677,589
803.275574,579
803.39447,600
803.513428,605
803.632263,595
803.751221,571
803.870117,595
803.989014,549
804.107971,583
804.226746,598
804.345642,593
804.4646,560
804.583496,576
804.702393,563
804.821228,578
804.940125,597
805.059021,592
805.177917,577
805.296814,565
805.415649,566
805.534546,581
805.653442,560
805.772278,597
805.891113,551
806.01001,590
806.128906,565
806.247742,567
806.366577,581
806.485413,584
806.604309,574
806.723145,555
806.84198,551
806.960876,552
807.079712,549
807.198486,566
807.317383,568
807.436218,551
807.554993,562
807.673889,580
807.792725,564
807.91156,559
808.030396,575
808.14917,546
808.268005,556
808.386841,544
808.505676,538
808.624451,556
808.743286,550
808.862122,544
808.980896,537
809.099731,543
809.218506,553
809.337341,529
809.456116,557
809.57489,551
809.693726,547
809.8125,558
809.931274,556
810.050049,558
810.168884,534
810.287659,557
810.406372,561
810.525269,564
810.643982,549
810.762756,540
810.881531,532
811.000305,587
811.11908,562
811.237854,551
811.356567,553
811.475403,579
811.594116,555
811.71283,558
811.831604,574
811.950378,571
812.069153,545
812.187927,576
812.30658,563
812.425415,562
812.544128,566
812.662781,549
812.781616,541
812.900269,572
813.019043,533
813.137756,541
813.256531,554
813.375244,567
813.493896,551
813.612671,548
813.731384,536
813.850037,542
813.96875,537
814.087524,553
814.206238,541
814.324951,541
814.443604,544
814.562256,533
814.68103,545
814.799683,547
814.918335,560
815.037109,558
815.155762,540
815.274475,533
815.393188,549
815.511841,537
815.630554,572
815.749146,547
815.867859,530
815.986572,555
816.105164,532
816.223877,529
816.342529,531
816.461182,549
816.579895,520
816.698486,565
816.817139,552
816.935791,541
817.054504,546
817.173096,552
817.291748,568
817.4104,534
817.529053,523
817.647644,535
817.766235,517
817.884949,546
818.00354,524
818.122192,549
818.240845,547
818.359436,531
818.478088,517
818.59668,539
818.715271,516
818.833923,533
818.952515,518
819.071106,530
819.189758,522
819.30835,497
819.426941,528
819.545532,524
819.664124,533
819.782715,533
819.901306,523
820.019897,509
820.138489,543
820.25708,500
820.375671,535
820.494202,521
820.612732,534
820.731384,534
820.849915,515
820.968506,542
821.087097,536
821.205627,519
821.324158,509
821.442749,497
821.561279,500
821.679871,516
821.798401,508
821.916931,509
822.035461,505
822.154053,511
822.272583,509
822.391174,509
822.509583,518
822.628174,515
822.746704,502
822.865234,510
822.983765,503
823.102295,500
823.220825,510
823.339294,505
823.457825,497
823.576355,505
823.694824,500
823.813354,484
823.931885,513
824.050354,496
824.168884,488
824.287354,512
824.405823,490
824.524353,505
824.642822,483
824.761353,502
824.879822,528
824.998291,488
825.116699,506
825.235291,498
825.353699,506
825.472168,495
825.590637,473
825.709106,509
825.827576,511
825.946045,498
826.064453,519
826.182983,492
826.301392,506
826.4198,502
826.53833,492
826.656738,486
826.775208,498
826.893677,498
827.012024,497
827.130493,502
827.248962,509
827.36731,505
827.485779,476
827.604248,521
827.722595,529
827.841064,491
827.959412,503
828.077942,482
828.196289,495
828.314636,498
828.433105,479
828.551514,497
828.669861,500
828.78833,497
828.906677,465
829.025085,495
829.143433,491
829.261841,497
829.38031,482
829.498657,490
829.617004,500
829.735413,492
829.85376,497
829.972107,477
830.090515,495
830.208862,491
830.327209,485
830.445557,477
830.563904,495
830.682312,492
830.800659,494
830.919006,511
831.037354,497
831.155701,502
831.274048,504
831.392395,510
831.51062,496
831.629028,499
831.747314,509
831.865662,482
831.984009,508
832.102356,504
832.220642,502
832.338928,500
832.457275,508
832.575623,525
832.693909,521
832.812134,525
832.930481,506
833.048828,485
833.167114,518
833.2854,498
833.403687,489
833.521973,519
833.640259,494
833.758545,485
833.876831,500
833.995056,529
834.113281,492
834.231628,494
834.349915,501
834.468201,509
834.586426,507
834.704651,503
834.822998,487
834.941162,494
835.059448,508
835.177673,511
835.295959,509
835.414246,508
835.53241,513
835.650635,499
835.768921,508
835.887146,506
836.005371,504
836.123596,495
836.241821,482
836.360046,486
836.478271,475
836.596497,489
836.714722,485
836.832886,507
836.95105,509
837.069336,480
837.1875,504
837.305725,502
837.423889,494
837.542053,525
837.660339,486
837.778503,479
837.896667,476
838.014832,482
838.132996,490
838.25116,489
838.369385,504
838.487488,488
838.605713,495
838.723877,506
838.84198,496
838.960205,498
839.078308,510
839.196472,486
839.314636,496
839.4328,519
839.550964,497
839.669067,496
839.787231,526
839.905396,528
840.023499,505
840.141602,518
840.259766,503
840.377869,518
840.495972,544
840.614136,527
840.732239,542
840.850342,518
840.968445,548
841.086548,550
841.204651,535
841.322754,533
841.440918,544
841.55896,576
841.677002,550
841.795166,571
841.913208,539
842.031311,566
842.149353,548
842.267456,539
842.385498,561
842.503601,542
842.621643,528
842.739746,537
842.857788,527
842.97583,530
843.093933,518
843.211975,551
843.330017,537
843.44812,546
843.566101,540
843.684204,539
843.802246,536
843.920227,562
844.038269,533
844.156311,542
844.274292,536
844.392395,530
844.510376,542
844.628357,531
844.74646,515
844.864441,533
844.982422,546
845.100403,524
845.218384,522
845.336426,525
845.454468,525
845.572449,540
845.69043,526
845.808411,518
845.926453,553
846.044373,546
846.162354,540
846.280396,522
846.398315,525
846.516296,539
846.634216,507
846.752197,524
846.870178,556
846.988098,532
847.106079,515
847.22406,535
847.34198,550
847.4599,538
847.577881,547
847.695801,535
847.813782,539
847.931641,542
848.049561,511
848.167603,524
848.285461,534
848.403381,528
848.521362,524
848.639221,527
848.75708,519
848.875,535
848.99292,540
849.110901,525
849.22876,541
849.34668,533
849.464539,543
849.582458,528
849.700317,515
849.818176,541
849.936096,522
850.053955,544
850.171875,520
850.289673,533
850.407593,529
850.525452,531
850.643311,558
850.761169,538
850.878967,534
850.996887,541
851.114746,520
851.232544,552
851.350403,518
851.468262,524
851.58606,528
851.703979,512
851.821777,515
851.939636,518
852.057434,504
852.175232,538
852.293091,524
852.410889,539
852.528687,553
852.646545,586
852.764343,548
852.88208,577
852.999939,552
853.117676,539
853.235535,534
853.353271,555
853.471069,520
853.588928,541
853.706604,516
853.824402,508
853.9422,542
854.059998,502
854.177734,532
854.295532,523
854.413269,537
854.531006,540
854.648804,535
854.766541,528
854.884277,541
855.002014,546
855.119751,530
855.237549,519
855.355225,538
855.473022,543
855.590698,519
855.708435,539
855.826172,514
855.943848,516
856.061646,545
856.179321,528
856.296997,540
856.414795,522
856.53241,552
856.650085,556
856.767822,527
856.885559,551
857.003174,550
857.120911,538
857.238586,520
857.356201,566
857.473938,551
857.591614,562
857.709351,527
857.826965,539
857.944641,533
858.062317,556
858.179993,550
858.297668,558
858.415283,557
858.532959,530
858.650574,550
858.768188,550
858.885803,548
859.003479,549
859.121094,539
859.23877,566
859.356384,559
859.473999,533
859.591675,530
859.709229,523
859.826843,524
859.944458,515
860.062012,554
860.179626,532
860.297302,508
860.414856,536
860.532471,512
860.650024,515
860.767639,508
860.885193,521
861.002808,525
861.120361,526
861.237976,517
861.35553,524
861.473022,544
861.590698,526
861.708191,532
861.825745,527
861.943298,511
862.060852,516
862.178406,513
862.295959,512
862.413513,454
862.531006,519
862.64856,496
862.766113,500
862.883667,496
863.00116,503
863.118713,504
863.236206,491
863.353699,514
863.471252,512
863.588745,518
863.706177,512
863.82373,510
863.941162,528
864.058716,523
864.176208,493
864.29364,509
864.411194,501
864.528687,482
864.646118,498
864.763611,509
864.881042,513
864.998535,496
865.116028,508
865.233459,499
865.350891,503
865.468384,501
865.585754,520
865.703308,507
865.820679,489
865.938171,516
866.055542,504
866.173035,493
866.290466,502
866.407837,515
866.52533,509
866.6427,515
866.760071,502
866.877563,501
866.994934,517
867.112305,505
867.229736,519
867.347107,517
867.464539,524
867.58197,511
867.699341,493
867.81665,514
867.934082,505
868.051453,528
868.168823,533
868.286194,523
868.403564,524
868.520935,498
868.638306,517
868.755676,522
868.872986,523
868.990295,508
869.107727,518
869.225037,517
869.342346,512
869.459717,522
869.577026,541
869.694336,535
869.811707,520
869.929016,510
870.046326,524
870.163635,553
870.280945,519
870.398254,544
870.515564,530
870.632812,534
870.750183,524
870.867432,530
870.984741,554
871.102051,535
871.219299,533
871.336609,555
871.453918,542
871.571106,551
871.688416,549
871.805664,574
871.922852,555
872.040222,557
872.157471,568
872.274719,575
872.391968,571
872.509155,544
872.626465,550
872.743652,570
872.860962,553
872.978149,530
873.095337,556
873.212646,559
873.329834,537
873.44696,539
873.564209,527
873.681396,536
873.798645,555
873.915894,529
874.03302,546
874.150208,542
874.267456,543
874.384583,555
874.501831,570
874.618958,537
874.736145,579
874.853333,584
874.970459,543
875.087646,579
875.204834,567
875.32196,566
875.439148,560
875.556274,527
875.673401,529
875.790527,543
875.907715,549
876.024841,541
876.141968,536
876.259094,536
876.376282,524
876.493347,538
876.610474,533
876.7276,511
876.844727,533
876.961853,542
877.078918,534
877.195984,538
877.313171,508
877.430237,525
877.547302,512
877.664368,525
877.781433,519
877.898499,517
878.015625,534
878.13269,515
878.249695,518
878.366821,512
878.483887,508
878.600952,517
878.717957,507
878.834961,493
878.952087,516
879.069092,506
879.186157,506
879.303162,523
879.420227,509
879.537231,490
879.654236,506
879.77124,490
879.888306,493
880.005249,514
880.122314,497
880.239319,497
880.356323,486
880.473328,490
880.590271,514
880.707275,491
880.824341,493
880.941284,515
881.058228,508
881.175232,498
881.292236,511
881.40918,475
881.526123,496
881.643066,506
881.760071,514
881.877014,490
881.993958,475
882.11084,503
882.227783,482
882.344727,495
882.46167,500
882.578613,477
882.695618,500
882.812439,472
882.929382,504
883.046326,488
883.163208,498
883.280151,495
883.397034,513
883.513916,501
883.630798,504
883.747742,504
883.864563,512
883.981506,494
884.098389,526
884.21521,517
884.332153,526
884.448975,503
884.565796,517
884.682678,535
884.7995,554
884.916443,552
885.033264,580
885.150085,566
885.266968,585
885.383789,582
885.500671,622
885.617493,599
885.734314,611
885.851196,612
885.967896,619
886.084717,578
886.201599,621
886.318359,584
886.435181,601
886.552002,598
886.668762,568
886.785645,574
886.902344,572
887.019165,572
887.135925,575
887.252747,574
887.369446,558
887.486267,564
887.603027,567
887.719788,572
887.836548,524
887.953247,534
888.070068,525
888.186829,506
888.303528,540
888.420288,500
888.536987,508
888.653687,497
888.770447,488
888.887146,474
889.003967,498
889.120667,501
889.237305,484
889.354065,478
889.470703,470
889.587463,484
889.704163,475
889.820862,483
889.937561,501
890.054199,461
890.170837,486
890.287598,485
890.404236,475
890.520874,464
890.637634,491
890.754211,478
890.87085,483
890.987549,473
891.104187,478
891.220886,483
891.337463,495
891.454102,487
891.57074,478
891.687378,486
891.804077,500
891.920654,490
892.037231,479
892.15387,497
892.270447,483
892.387085,494
892.503723,499
892.6203,477
892.736877,476
892.853516,483
892.970032,482
893.08667,474
893.203186,460
893.319763,479
893.43634,487
893.552917,473
893.669556,467
893.786011,480
893.902588,489
894.019165,477
894.135681,473
894.252197,475
894.368835,492
894.485291,493
894.601868,466
894.718384,470
894.8349,479
894.951355,478
895.067932,483
895.184448,474
895.300964,491
895.417419,480
895.533936,462
895.650452,474
895.766907,470
895.883423,476
895.999878,473
896.116333,469
896.232849,486
896.349304,488
896.465759,488
896.582214,464
896.698669,471
896.815125,470
896.931641,497
897.048035,484
897.164551,502
897.280884,465
897.397339,481
897.513794,486
897.630249,497
897.746582,473
897.863098,491
897.979431,476
898.095886,481
898.212341,492
898.328674,489
898.445129,492
898.561462,487
898.677795,486
898.794312,482
898.910645,499
899.026978,489
899.143433,479
899.259766,487
899.37616,488
899.492493,499
899.608765,467
899.725159,469
899.841553,495
899.957947,477
900.07428,487
900.190552,498
900.306946,462
900.423157,501
900.53949,491
900.655884,496
900.772156,498
900.888489,495
901.004822,495
901.121033,491
901.237366,494
901.353699,493
901.46991,477
901.586304,528
901.702515,507
901.818787,510
901.93512,522
902.051331,523
902.167603,519
902.283875,501
902.400085,508
902.516418,523
902.632629,541
902.74884,550
902.865112,549
902.981384,565
903.097595,514
903.213867,546
903.330017,550
903.446289,530
903.5625,548
903.67865,532
903.794922,522
903.911072,533
904.027344,523
904.143494,503
904.259705,502
904.375916,514
904.492065,506
904.608215,509
904.724426,505
904.840576,510
904.956726,499
905.072876,513
905.189087,481
905.305176,495
905.421387,476
905.537537,494
905.653687,470
905.769775,481
905.885925,479
906.002014,469
906.118164,465
906.234314,494
906.350403,486
906.466492,465
906.582642,487
906.69873,467
906.814758,475
906.930908,476
907.046936,451
907.163086,480
907.279175,462
907.395264,463
907.511353,476
907.62738,479
907.743408,492
907.859497,489
907.975525,477
908.091553,463
908.207703,463
908.32373,485
908.439758,467
908.555786,485
908.671814,464
908.787842,494
908.90387,475
909.019775,496
909.135864,481
909.251892,480
909.367859,485
909.483826,483
909.599854,479
909.715881,474
909.831848,483
909.947815,478
910.063782,470
910.179749,487
910.295776,466
910.411743,470
910.527649,479
910.643616,498
910.759583,479
910.875488,495
910.991455,477
911.107361,471
911.223267,478
911.339294,470
911.4552,448
911.571106,491
911.687073,464
911.802979,456
911.918823,478
912.034729,490
912.150635,455
912.266602,471
912.382446,457
912.498352,473
912.614197,491
912.730103,464
912.846008,474
