792.44574,1217
792.56488,1210
792.68396,1234
792.80304,1182
792.92218,1136
793.041199,1065
793.160339,1032
793.279419,1047
793.398499,1017
793.517578,987
793.636658,975
793.755737,1004
793.874817,967
793.993896,979
794.112976,903
794.232056,899
794.351074,902
794.470215,873
794.589233,879
794.708313,861
794.827393,839
794.946411,833
795.065552,813
795.18457,813
795.303589,825
795.422668,803
795.541687,800
795.660767,783
795.779846,767
795.898865,773
796.017883,765
796.136963,761
796.255981,758
796.375061,734
796.49408,751
796.613037,750
796.732117,726
796.851135,699
796.970154,713
797.089233,722
797.208191,693
797.327271,663
797.446228,689
797.565186,671
797.684265,682
797.803223,694
797.922241,713
798.04126,667
798.160278,657
798.279297,673
798.398315,680
798.517273,670
798.636292,670
798.75531,680
798.874268,682
798.993286,664
799.112244,669
799.231323,672
799.350281,677
799.469238,659
799.588257,655
799.707153,630
799.826111,652
799.945129,638
800.064087,657
800.183044,649
800.302063,639
800.421021,625
800.539978,629
800.658936,645
800.777893,628
800.896912,638
801.015747,614
801.134705,620
801.253723,633
801.37262,629
801.491638,639
801.610535,630
801.729492,631
801.84845,615
801.967407,624
802.086243,610
802.205261,605
802.324158,591
802.443115,607
802.562073,632
802.680969,605
802.799927,600
802.918762,597
803.037659,624
803.156677,612
803.275574,591
803.39447,602
803.513428,579
803.632263,616
803.751221,593
803.870117,586
803.989014,593
804.107971,602
804.226746,585
804.345642,605
804.4646,605
804.583496,596
804.702393,575
804.821228,589
804.940125,588
805.059021,602
805.177917,595
805.296814,596
805.415649,587
805.534546,595
805.653442,581
805.772278,567
805.891113,574
806.01001,601
806.128906,583
806.247742,596
806.366577,591
806.485413,582
806.604309,590
806.723145,588
806.84198,574
806.960876,559
807.079712,579
807.198486,590
807.317383,593
807.436218,577
807.554993,559
807.673889,571
807.792725,570
807.91156,580
808.030396,595
808.14917,593
808.268005,559
808.386841,562
808.505676,555
808.624451,570
808.743286,564
808.862122,570
808.980896,549
809.099731,577
809.218506,588
809.337341,578
809.456116,555
809.57489,546
809.693726,554
809.8125,566
809.931274,559
810.050049,580
810.168884,557
810.287659,573
810.406372,587
810.525269,549
810.643982,581
810.762756,589
810.881531,568
811.000305,587
811.11908,563
811.237854,574
811.356567,561
811.475403,569
811.594116,582
811.71283,566
811.831604,589
811.950378,585
812.069153,570
812.187927,582
812.30658,586
812.425415,619
812.544128,584
812.662781,580
812.781616,578
812.900269,571
813.019043,594
813.137756,593
813.256531,554
813.375244,577
813.493896,575
813.612671,591
813.731384,565
813.850037,576
813.96875,567
814.087524,567
814.206238,549
814.324951,567
814.443604,536
814.562256,575
814.68103,550
814.799683,581
814.918335,572
815.037109,544
815.155762,573
815.274475,557
815.393188,525
815.511841,556
815.630554,547
815.749146,564
815.867859,542
815.986572,555
816.105164,573
816.223877,560
816.342529,553
816.461182,565
816.579895,573
816.698486,536
816.817139,574
816.935791,551
817.054504,564
817.173096,570
817.291748,528
817.4104,545
817.529053,557
817.647644,575
817.766235,538
817.884949,554
818.00354,553
818.122192,553
818.240845,554
818.359436,547
818.478088,529
818.59668,551
818.715271,520
818.833923,535
818.952515,518
819.071106,525
819.189758,509
819.30835,545
819.426941,515
819.545532,527
819.664124,515
819.782715,519
819.901306,536
820.019897,517
820.138489,522
820.25708,527
820.375671,500
820.494202,524
820.612732,505
820.731384,527
820.849915,521
820.968506,520
821.087097,533
821.205627,523
821.324158,518
821.442749,483
821.561279,520
821.679871,509
821.798401,501
821.916931,508
822.035461,505
822.154053,509
822.272583,496
822.391174,509
822.509583,492
822.628174,518
822.746704,504
822.865234,507
822.983765,505
823.102295,506
823.220825,482
823.339294,500
823.457825,507
823.576355,487
823.694824,490
823.813354,512
823.931885,509
824.050354,499
824.168884,506
824.287354,524
824.405823,501
824.524353,513
824.642822,513
824.761353,508
824.879822,516
824.998291,528
825.116699,514
825.235291,507
825.353699,508
825.472168,498
825.590637,494
825.709106,504
825.827576,493
825.946045,494
826.064453,494
826.182983,498
826.301392,484
826.4198,500
826.53833,488
826.656738,489
826.775208,477
826.893677,508
827.012024,484
827.130493,504
827.248962,501
827.36731,513
827.485779,498
827.604248,503
827.722595,503
827.841064,504
827.959412,479
828.077942,499
828.196289,472
828.314636,494
828.433105,511
828.551514,496
828.669861,487
828.78833,487
828.906677,502
829.025085,506
829.143433,492
829.261841,492
829.38031,495
829.498657,499
829.617004,477
829.735413,511
829.85376,477
829.972107,482
830.090515,478
830.208862,504
830.327209,498
830.445557,493
830.563904,493
830.682312,513
830.800659,475
830.919006,491
831.037354,521
831.155701,525
831.274048,483
831.392395,483
831.51062,509
831.629028,481
831.747314,510
831.865662,493
831.984009,485
832.102356,513
832.220642,487
832.338928,513
832.457275,507
832.575623,519
832.693909,493
832.812134,498
832.930481,504
833.048828,494
833.167114,492
833.2854,489
833.403687,491
833.521973,493
833.640259,491
833.758545,487
833.876831,493
833.995056,507
834.113281,513
834.231628,511
834.349915,498
834.468201,511
834.586426,501
834.704651,503
834.822998,500
834.941162,515
835.059448,520
835.177673,511
835.295959,502
835.414246,504
835.53241,501
835.650635,494
835.768921,501
835.887146,496
836.005371,487
836.123596,505
836.241821,506
836.360046,517
836.478271,485
836.596497,492
836.714722,494
836.832886,508
836.95105,473
837.069336,516
837.1875,497
837.305725,501
837.423889,481
837.542053,494
837.660339,494
837.778503,510
837.896667,497
838.014832,497
838.132996,512
838.25116,481
838.369385,492
838.487488,509
838.605713,503
838.723877,506
838.84198,492
838.960205,502
839.078308,511
839.196472,526
839.314636,511
839.4328,511
839.550964,508
839.669067,536
839.787231,533
839.905396,528
840.023499,523
840.141602,536
840.259766,559
840.377869,518
840.495972,506
840.614136,512
840.732239,510
840.850342,533
840.968445,526
841.086548,544
841.204651,545
841.322754,545
841.440918,524
841.55896,551
841.677002,533
841.795166,552
841.913208,550
842.031311,551
842.149353,559
842.267456,552
842.385498,541
842.503601,522
842.621643,547
842.739746,537
842.857788,535
842.97583,531
843.093933,511
843.211975,544
843.330017,514
843.44812,553
843.566101,511
843.684204,535
843.802246,529
843.920227,577
844.038269,534
844.156311,548
844.274292,526
844.392395,531
844.510376,529
844.628357,544
844.74646,516
844.864441,528
844.982422,536
845.100403,526
845.218384,523
845.336426,516
845.454468,529
845.572449,519
845.69043,532
845.808411,523
845.926453,532
846.044373,535
846.162354,544
846.280396,538
846.398315,526
846.516296,517
846.634216,527
846.752197,541
846.870178,537
846.988098,537
847.106079,538
847.22406,551
847.34198,520
847.4599,542
847.577881,525
847.695801,542
847.813782,522
847.931641,541
848.049561,506
848.167603,524
848.285461,513
848.403381,524
848.521362,523
848.639221,527
848.75708,521
848.875,531
848.99292,524
849.110901,548
849.22876,519
849.34668,538
849.464539,523
849.582458,528
849.700317,537
849.818176,534
849.936096,525
850.053955,530
850.171875,536
850.289673,517
850.407593,540
850.525452,531
850.643311,508
850.761169,548
850.878967,541
850.996887,523
851.114746,516
851.232544,537
851.350403,505
851.468262,521
851.58606,534
851.703979,526
851.821777,519
851.939636,529
852.057434,528
852.175232,553
852.293091,521
852.410889,556
852.528687,564
852.646545,585
852.764343,554
852.88208,577
852.999939,528
853.117676,544
853.235535,527
853.353271,538
853.471069,529
853.588928,551
853.706604,536
853.824402,510
853.9422,517
854.059998,538
854.177734,533
854.295532,513
854.413269,530
854.531006,543
854.648804,546
854.766541,533
854.884277,517
855.002014,554
855.119751,533
855.237549,507
855.355225,525
855.473022,550
855.590698,511
855.708435,549
855.826172,524
855.943848,545
856.061646,531
856.179321,543
856.296997,535
856.414795,552
856.53241,526
856.650085,533
856.767822,515
856.885559,535
857.003174,531
857.120911,532
857.238586,559
857.356201,554
857.473938,551
857.591614,564
857.709351,548
857.826965,538
857.944641,554
858.062317,545
858.179993,530
858.297668,542
858.415283,529
858.532959,574
858.650574,564
858.768188,554
858.885803,529
859.003479,548
859.121094,540
859.23877,538
859.356384,523
859.473999,525
859.591675,524
859.709229,520
859.826843,536
859.944458,550
860.062012,532
860.179626,522
860.297302,519
860.414856,524
860.532471,515
860.650024,519
860.767639,503
860.885193,519
861.002808,509
861.120361,534
861.237976,506
861.35553,540
861.473022,496
861.590698,528
861.708191,517
861.825745,515
861.943298,525
862.060852,502
862.178406,517
862.295959,512
862.413513,499
862.531006,496
862.64856,488
862.766113,523
862.883667,501
863.00116,510
863.118713,506
863.236206,492
863.353699,499
863.471252,514
863.588745,510
863.706177,519
863.82373,508
863.941162,502
864.058716,493
864.176208,520
864.29364,496
864.411194,512
864.528687,496
864.646118,531
864.763611,524
864.881042,485
864.998535,486
865.116028,498
865.233459,507
865.350891,499
865.468384,504
865.585754,517
865.703308,514
865.820679,497
865.938171,500
866.055542,517
866.173035,489
866.290466,520
866.407837,475
866.52533,494
866.6427,492
866.760071,514
866.877563,485
866.994934,524
867.112305,522
867.229736,514
867.347107,532
867.464539,534
867.58197,497
867.699341,521
867.81665,507
867.934082,523
868.051453,486
868.168823,534
868.286194,513
868.403564,523
868.520935,527
868.638306,496
868.755676,501
868.872986,532
868.990295,512
869.107727,516
869.225037,538
869.342346,516
869.459717,537
869.577026,531
869.694336,517
869.811707,533
869.929016,520
870.046326,518
870.163635,531
870.280945,536
870.398254,524
870.515564,537
870.632812,546
870.750183,540
870.867432,555
870.984741,544
871.102051,533
871.219299,561
871.336609,529
871.453918,559
871.571106,540
871.688416,566
871.805664,555
871.922852,536
872.040222,544
872.157471,540
872.274719,569
872.391968,556
872.509155,544
872.626465,548
872.743652,532
872.860962,547
872.978149,550
873.095337,523
873.212646,520
873.329834,548
873.44696,501
873.564209,549
873.681396,530
873.798645,529
873.915894,521
874.03302,543
874.150208,555
874.267456,530
874.384583,537
874.501831,533
874.618958,538
874.736145,549
874.853333,534
874.970459,574
875.087646,557
875.204834,563
875.32196,548
875.439148,534
875.556274,572
875.673401,557
875.790527,518
875.907715,565
876.024841,554
876.141968,537
876.259094,547
876.376282,517
876.493347,517
876.610474,541
876.7276,522
876.844727,527
876.961853,521
877.078918,546
877.195984,500
877.313171,538
877.430237,507
877.547302,509
877.664368,528
877.781433,532
877.898499,521
878.015625,521
878.13269,498
878.249695,524
878.366821,488
878.483887,537
878.600952,512
878.717957,492
878.834961,502
878.952087,529
879.069092,502
879.186157,498
879.303162,492
879.420227,501
879.537231,503
879.654236,506
879.77124,485
879.888306,500
880.005249,509
880.122314,502
880.239319,492
880.356323,515
880.473328,486
880.590271,472
880.707275,476
880.824341,494
880.941284,514
881.058228,510
881.175232,478
881.292236,506
881.40918,498
881.526123,494
881.643066,492
881.760071,497
881.877014,483
881.993958,497
882.11084,493
882.227783,506
882.344727,493
882.46167,499
882.578613,485
882.695618,503
882.812439,500
882.929382,490
883.046326,506
883.163208,494
883.280151,498
883.397034,503
883.513916,494
883.630798,495
883.747742,498
883.864563,518
883.981506,507
884.098389,515
884.21521,509
884.332153,525
884.448975,532
884.565796,557
884.682678,536
884.7995,547
884.916443,538
885.033264,573
885.150085,580
885.266968,595
885.383789,588
885.500671,621
885.617493,605
885.734314,608
885.851196,604
885.967896,614
886.084717,591
886.201599,596
886.318359,583
886.435181,597
886.552002,576
886.668762,601
886.785645,567
886.902344,574
887.019165,582
887.135925,589
887.252747,566
887.369446,565
887.486267,570
887.603027,532
887.719788,557
887.836548,552
887.953247,528
888.070068,510
888.186829,525
888.303528,545
888.420288,501
888.536987,482
888.653687,469
888.770447,493
888.887146,500
889.003967,480
889.120667,484
889.237305,483
889.354065,495
889.470703,477
889.587463,476
889.704163,479
889.820862,468
889.937561,464
890.054199,481
890.170837,456
890.287598,460
890.404236,474
890.520874,494
890.637634,477
890.754211,468
890.87085,481
890.987549,498
891.104187,480
891.220886,486
891.337463,485
891.454102,475
891.57074,483
891.687378,491
891.804077,486
891.920654,474
892.037231,498
892.15387,479
892.270447,490
892.387085,466
892.503723,489
892.6203,488
892.736877,490
892.853516,467
892.970032,491
893.08667,492
893.203186,502
893.319763,461
893.43634,473
893.552917,470
893.669556,480
893.786011,490
893.902588,465
894.019165,485
894.135681,468
894.252197,500
894.368835,468
894.485291,472
894.601868,496
894.718384,474
894.8349,473
894.951355,499
895.067932,474
895.184448,472
895.300964,475
895.417419,485
895.533936,501
895.650452,490
895.766907,475
895.883423,488
895.999878,483
896.116333,472
896.232849,462
896.349304,460
896.465759,475
896.582214,472
896.698669,458
896.815125,501
896.931641,471
897.048035,473
897.164551,483
897.280884,470
897.397339,483
897.513794,455
897.630249,480
897.746582,462
897.863098,485
897.979431,460
898.095886,484
898.212341,483
898.328674,483
898.445129,460
898.561462,488
898.677795,476
898.794312,483
898.910645,482
899.026978,485
899.143433,484
899.259766,492
899.37616,490
899.492493,480
899.608765,479
899.725159,483
899.841553,492
899.957947,478
900.07428,476
900.190552,485
900.306946,469
900.423157,500
900.53949,478
900.655884,501
900.772156,468
900.888489,489
901.004822,477
901.121033,487
901.237366,489
901.353699,488
901.46991,486
901.586304,506
901.702515,486
901.818787,504
901.93512,499
902.051331,530
902.167603,509
902.283875,539
902.400085,523
902.516418,529
902.632629,544
902.74884,549
902.865112,555
902.981384,547
903.097595,534
903.213867,556
903.330017,529
903.446289,544
903.5625,531
903.67865,518
903.794922,517
903.911072,515
904.027344,521
904.143494,516
904.259705,497
904.375916,509
904.492065,512
904.608215,498
904.724426,486
904.840576,505
904.956726,488
905.072876,508
905.189087,482
905.305176,479
905.421387,473
905.537537,476
905.653687,487
905.769775,482
905.885925,457
906.002014,497
906.118164,479
906.234314,474
906.350403,482
906.466492,493
906.582642,470
906.69873,494
906.814758,452
906.930908,504
907.046936,447
907.163086,479
907.279175,464
907.395264,475
907.511353,456
907.62738,480
907.743408,449
907.859497,458
907.975525,457
908.091553,449
908.207703,455
908.32373,475
908.439758,482
908.555786,468
908.671814,469
908.787842,495
908.90387,466
909.019775,474
909.135864,466
909.251892,479
909.367859,461
909.483826,480
909.599854,478
909.715881,491
909.831848,481
909.947815,479
910.063782,469
910.179749,487
910.295776,464
910.411743,475
910.527649,485
910.643616,473
910.759583,483
910.875488,464
910.991455,479
911.107361,458
911.223267,487
911.339294,465
911.4552,460
911.571106,461
911.687073,460
911.802979,492
911.918823,459
912.034729,477
912.150635,459
912.266602,476
912.382446,470
912.498352,468
912.614197,436
912.730103,471
912.846008,448
792.44574,1234
792.56488,1207
792.68396,1234
792.80304,1201
792.92218,1131
793.041199,1084
793.160339,1075
793.279419,1027
793.398499,1032
793.517578,986
793.636658,970
793.755737,976
793.874817,969
793.993896,930
794.112976,914
794.232056,895
794.351074,897
794.470215,894
794.589233,854
794.708313,832
794.827393,841
794.946411,839
795.065552,814
795.18457,806
795.303589,824
795.422668,803
795.541687,782
795.660767,813
795.779846,780
795.898865,754
796.017883,761
796.136963,778
796.255981,777
796.375061,746
796.49408,739
796.613037,744
796.732117,708
796.851135,769
796.970154,730
797.089233,706
797.208191,690
797.327271,681
797.446228,694
797.565186,716
797.684265,689
797.803223,696
797.922241,708
798.04126,676
798.160278,680
798.279297,668
798.398315,664
798.517273,668
798.636292,655
798.75531,655
798.874268,679
798.993286,626
799.112244,674
799.231323,669
799.350281,647
799.469238,672
799.588257,641
799.707153,662
799.826111,663
799.945129,639
800.064087,647
800.183044,650
800.302063,652
800.421021,640
800.539978,642
800.658936,635
800.777893,605
800.896912,661
801.015747,626
801.134705,627
801.253723,644
801.37262,638
801.491638,628
801.610535,603
801.729492,657
801.84845,612
801.967407,611
802.086243,621
802.205261,631
802.324158,618
802.443115,634
802.562073,604
802.680969,613
802.799927,627
802.918762,605
803.037659,609
803.156677,601
803.275574,588
803.39447,618
803.513428,603
803.632263,608
803.751221,610
803.870117,591
803.989014,615
804.107971,577
804.226746,586
804.345642,585
804.4646,583
804.583496,591
804.702393,586
804.821228,578
804.940125,600
805.059021,632
805.177917,557
805.296814,584
805.415649,577
805.534546,590
805.653442,591
805.772278,588
805.891113,592
806.01001,588
806.128906,578
806.247742,583
806.366577,609
806.485413,597
806.604309,580
806.723145,578
806.84198,604
806.960876,608
807.079712,568
807.198486,587
807.317383,582
807.436218,590
807.554993,582
807.673889,572
807.792725,554
807.91156,563
808.030396,585
808.14917,558
808.268005,568
808.386841,582
808.505676,564
808.624451,564
808.743286,561
808.862122,565
808.980896,576
809.099731,551
809.218506,574
809.337341,548
809.456116,550
809.57489,570
809.693726,572
809.8125,576
809.931274,598
810.050049,573
810.168884,544
810.287659,568
810.406372,555
810.525269,576
810.643982,560
810.762756,586
810.881531,562
811.000305,554
811.11908,545
811.237854,568
811.356567,571
811.475403,578
811.594116,559
811.71283,584
811.831604,574
811.950378,584
812.069153,583
812.187927,587
812.30658,575
812.425415,565
812.544128,582
812.662781,597
812.781616,565
812.900269,578
813.019043,595
813.137756,558
813.256531,573
813.375244,568
813.493896,570
813.612671,571
813.731384,576
813.850037,555
813.96875,557
814.087524,574
814.206238,541
814.324951,553
814.443604,561
814.562256,567
814.68103,565
814.799683,568
814.918335,568
815.037109,551
815.155762,571
815.274475,562
815.393188,558
815.511841,567
815.630554,572
815.749146,559
815.867859,555
815.986572,560
816.105164,551
816.223877,557
816.342529,539
816.461182,563
816.579895,570
816.698486,556
816.817139,570
816.935791,570
817.054504,567
817.173096,552
817.291748,582
817.4104,562
817.529053,563
817.647644,549
817.766235,563
817.884949,551
818.00354,564
818.122192,529
818.240845,540
818.359436,525
818.478088,527
818.59668,526
818.715271,519
818.833923,517
818.952515,540
819.071106,525
819.189758,539
819.30835,527
819.426941,519
819.545532,551
819.664124,532
819.782715,519
819.901306,517
820.019897,518
820.138489,508
820.25708,504
820.375671,513
820.494202,522
820.612732,518
820.731384,519
820.849915,526
820.968506,526
821.087097,524
821.205627,512
821.324158,505
821.442749,501
821.561279,510
821.679871,515
821.798401,518
821.916931,504
822.035461,509
822.154053,497
822.272583,520
822.391174,497
822.509583,497
822.628174,504
822.746704,517
822.865234,496
822.983765,485
823.102295,497
823.220825,490
823.339294,496
823.457825,503
823.576355,517
823.694824,498
823.813354,486
823.931885,513
824.050354,481
824.168884,505
824.287354,495
824.405823,519
824.524353,521
824.642822,519
824.761353,506
824.879822,500
824.998291,497
825.116699,511
825.235291,503
825.353699,499
825.472168,501
825.590637,475
825.709106,504
825.827576,523
825.946045,484
826.064453,503
826.182983,492
826.301392,488
826.4198,502
826.53833,508
826.656738,481
826.775208,496
826.893677,486
827.012024,498
827.130493,496
827.248962,512
827.36731,497
827.485779,502
827.604248,513
827.722595,510
827.841064,495
827.959412,497
828.077942,501
828.196289,504
828.314636,508
828.433105,483
828.551514,497
828.669861,492
828.78833,497
828.906677,502
829.025085,501
829.143433,492
829.261841,485
829.38031,516
829.498657,484
829.617004,478
829.735413,484
829.85376,500
829.972107,496
830.090515,495
830.208862,518
830.327209,493
830.445557,496
830.563904,490
830.682312,506
830.800659,481
830.919006,483
831.037354,491
831.155701,487
831.274048,510
831.392395,493
831.51062,500
831.629028,514
831.747314,501
831.865662,495
831.984009,488
832.102356,525
832.220642,500
832.338928,505
832.457275,508
832.575623,509
832.693909,508
832.812134,500
832.930481,488
833.048828,508
833.167114,500
833.2854,488
833.403687,506
833.521973,482
833.640259,501
833.758545,501
833.876831,489
833.995056,504
834.113281,503
834.231628,519
834.349915,481
834.468201,512
834.586426,510
834.704651,506
834.822998,513
834.941162,500
835.059448,524
835.177673,516
835.295959,511
835.414246,505
835.53241,502
835.650635,504
835.768921,515
835.887146,514
836.005371,514
836.123596,482
836.241821,496
836.360046,491
836.478271,502
836.596497,486
836.714722,488
836.832886,489
836.95105,498
837.069336,475
837.1875,480
837.305725,496
837.423889,502
837.542053,469
837.660339,484
837.778503,495
837.896667,505
838.014832,489
838.132996,496
838.25116,486
838.369385,498
838.487488,486
838.605713,515
838.723877,493
838.84198,521
838.960205,507
839.078308,524
839.196472,503
839.314636,505
839.4328,498
839.550964,500
839.669067,514
839.787231,502
839.905396,511
840.023499,506
840.141602,523
840.259766,531
840.377869,506
840.495972,548
840.614136,511
840.732239,551
840.850342,530
840.968445,534
841.086548,531
841.204651,513
841.322754,533
841.440918,523
841.55896,522
841.677002,532
841.795166,518
841.913208,556
842.031311,544
842.149353,534
842.267456,515
842.385498,532
842.503601,561
842.621643,548
842.739746,555
842.857788,550
842.97583,533
843.093933,536
843.211975,518
843.330017,538
843.44812,546
843.566101,536
843.684204,532
843.802246,543
843.920227,549
844.038269,516
844.156311,523
844.274292,519
844.392395,524
844.510376,542
844.628357,535
844.74646,529
844.864441,519
844.982422,515
845.100403,518
845.218384,527
845.336426,521
845.454468,530
845.572449,525
845.69043,513
845.808411,510
845.926453,511
846.044373,505
846.162354,498
846.280396,528
846.398315,504
846.516296,525
846.634216,535
846.752197,534
846.870178,544
846.988098,524
847.106079,539
847.22406,553
847.34198,521
847.4599,524
847.577881,543
847.695801,530
847.813782,546
847.931641,519
848.049561,530
848.167603,520
848.285461,519
848.403381,519
848.521362,534
848.639221,522
848.75708,526
848.875,515
848.99292,543
849.110901,541
849.22876,535
849.34668,551
849.464539,525
849.582458,520
849.700317,537
849.818176,535
849.936096,517
850.053955,500
850.171875,530
850.289673,516
850.407593,517
850.525452,518
850.643311,518
850.761169,524
850.878967,498
850.996887,525
851.114746,532
851.232544,521
851.350403,554
851.468262,524
851.58606,509
851.703979,529
851.821777,530
851.939636,524
852.057434,523
852.175232,532
852.293091,525
852.410889,553
852.528687,566
852.646545,543
852.764343,577
852.88208,575
852.999939,540
853.117676,525
853.235535,524
853.353271,520
853.471069,545
853.588928,531
853.706604,544
853.824402,512
853.9422,540
854.059998,532
854.177734,532
854.295532,515
854.413269,521
854.531006,541
854.648804,552
854.766541,527
854.884277,565
855.002014,520
855.119751,538
855.237549,550
855.355225,541
855.473022,511
855.590698,526
855.708435,533
855.826172,543
855.943848,546
856.061646,547
856.179321,549
856.296997,525
856.414795,538
856.53241,534
856.650085,578
856.767822,536
856.885559,536
857.003174,540
857.120911,573
857.238586,539
857.356201,546
857.473938,534
857.591614,539
857.709351,556
857.826965,550
857.944641,570
858.062317,540
858.179993,554
858.297668,552
858.415283,542
858.532959,549
858.650574,567
858.768188,537
858.885803,547
859.003479,539
859.121094,532
859.23877,526
859.356384,534
859.473999,524
859.591675,543
859.709229,536
859.826843,532
859.944458,543
860.062012,509
860.179626,517
860.297302,538
860.414856,511
860.532471,526
860.650024,538
860.767639,498
860.885193,498
861.002808,524
861.120361,509
861.237976,523
861.35553,542
861.473022,526
861.590698,516
861.708191,549
861.825745,510
861.943298,526
862.060852,521
862.178406,520
862.295959,523
862.413513,491
862.531006,480
862.64856,493
862.766113,496
862.883667,494
863.00116,507
863.118713,488
863.236206,493
863.353699,519
863.471252,491
863.588745,519
863.706177,512
863.82373,508
863.941162,524
864.058716,504
864.176208,497
864.29364,521
864.411194,500
864.528687,500
864.646118,522
864.763611,496
864.881042,509
864.998535,505
865.116028,490
865.233459,531
865.350891,523
865.468384,493
865.585754,528
865.703308,503
865.820679,526
865.938171,518
866.055542,494
866.173035,498
866.290466,500
866.407837,524
866.52533,517
866.6427,510
866.760071,530
866.877563,504
866.994934,500
867.112305,504
867.229736,541
867.347107,511
867.464539,505
867.58197,522
867.699341,511
867.81665,521
867.934082,531
868.051453,523
868.168823,528
868.286194,508
868.403564,509
868.520935,512
868.638306,499
868.755676,520
868.872986,514
868.990295,522
869.107727,520
869.225037,528
869.342346,532
869.459717,528
869.577026,525
869.694336,530
869.811707,537
869.929016,543
870.046326,531
870.163635,525
870.280945,542
870.398254,538
870.515564,530
870.632812,550
870.750183,560
870.867432,556
870.984741,543
871.102051,551
871.219299,557
871.336609,582
871.453918,569
871.571106,576
871.688416,559
871.805664,533
871.922852,560
872.040222,544
872.157471,576
872.274719,561
872.391968,545
872.509155,569
872.626465,555
872.743652,546
872.860962,563
872.978149,539
873.095337,565
873.212646,549
873.329834,539
873.44696,567
873.564209,532
873.681396,558
873.798645,524
873.915894,546
874.03302,526
874.150208,534
874.267456,554
874.384583,540
874.501831,558
874.618958,536
874.736145,559
874.853333,577
874.970459,557
875.087646,542
875.204834,573
875.32196,554
875.439148,543
875.556274,532
875.673401,529
875.790527,545
875.907715,548
876.024841,543
876.141968,560
876.259094,520
876.376282,528
876.493347,528
876.610474,525
876.7276,543
876.844727,535
876.961853,545
877.078918,513
877.195984,530
877.313171,530
877.430237,523
877.547302,517
877.664368,541
877.781433,531
877.898499,513
878.015625,530
878.13269,538
878.249695,535
878.366821,545
878.483887,508
878.600952,515
878.717957,526
878.834961,516
878.952087,520
879.069092,501
879.186157,523
879.303162,520
879.420227,494
879.537231,490
879.654236,505
879.77124,500
879.888306,491
880.005249,511
880.122314,473
880.239319,496
880.356323,474
880.473328,504
880.590271,493
880.707275,494
880.824341,495
880.941284,481
881.058228,469
881.175232,504
881.292236,494
881.40918,489
881.526123,496
881.643066,492
881.760071,480
881.877014,513
881.993958,483
882.11084,516
882.227783,492
882.344727,490
882.46167,494
882.578613,505
882.695618,482
882.812439,501
882.929382,490
883.046326,510
883.163208,512
883.280151,488
883.397034,478
883.513916,491
883.630798,499
883.747742,520
883.864563,490
883.981506,528
884.098389,504
884.21521,513
884.332153,512
884.448975,523
884.565796,520
884.682678,512
884.7995,560
884.916443,557
885.033264,557
885.150085,592
885.266968,556
885.383789,596
885.500671,621
885.617493,585
885.734314,631
885.851196,587
885.967896,608
886.084717,610
886.201599,606
886.318359,587
886.435181,605
886.552002,589
886.668762,577
886.785645,596
886.902344,583
887.019165,576
887.135925,567
887.252747,591
887.369446,542
887.486267,579
887.603027,542
887.719788,551
887.836548,521
887.953247,559
888.070068,503
888.186829,519
888.303528,509
888.420288,514
888.536987,498
888.653687,499
888.770447,486
888.887146,482
889.003967,494
889.120667,465
889.237305,477
889.354065,483
889.470703,478
889.587463,494
889.704163,503
889.820862,489
889.937561,474
890.054199,477
890.170837,470
890.287598,466
890.404236,475
890.520874,481
890.637634,468
890.754211,463
890.87085,476
890.987549,474
891.104187,477
891.220886,489
891.337463,479
891.454102,498
891.57074,483
891.687378,474
891.804077,491
891.920654,475
892.037231,483
892.15387,487
892.270447,488
892.387085,494
892.503723,488
892.6203,474
892.736877,472
892.853516,488
892.970032,471
893.08667,481
893.203186,491
893.319763,462
893.43634,469
893.552917,472
893.669556,483
893.786011,496
893.902588,471
894.019165,484
894.135681,474
894.252197,476
894.368835,476
894.485291,468
894.601868,481
894.718384,504
894.8349,480
894.951355,495
895.067932,471
895.184448,454
895.300964,476
895.417419,482
895.533936,473
895.650452,500
895.766907,473
895.883423,475
895.999878,484
896.116333,471
896.232849,481
896.349304,474
896.465759,474
896.582214,491
896.698669,468
896.815125,488
896.931641,483
897.048035,480
897.164551,497
897.280884,491
897.397339,494
897.513794,480
897.630249,485
897.746582,479
897.863098,474
897.979431,480
898.095886,496
898.212341,483
898.328674,475
898.445129,478
898.561462,499
898.677795,482
898.794312,471
898.910645,482
899.026978,470
899.143433,490
899.259766,482
899.37616,493
899.492493,483
899.608765,493
899.725159,491
899.841553,483
899.957947,491
900.07428,478
900.190552,471
900.306946,488
900.423157,484
900.53949,497
900.655884,476
900.772156,477
900.888489,485
901.004822,465
901.121033,478
901.237366,494
901.353699,482
901.46991,486
901.586304,490
901.702515,487
901.818787,478
901.93512,520
902.051331,531
902.167603,513
902.283875,520
902.400085,503
902.516418,556
902.632629,549
902.74884,524
902.865112,545
902.981384,544
903.097595,545
903.213867,534
903.330017,546
903.446289,545
903.5625,539
903.67865,529
903.794922,556
903.911072,530
904.027344,526
904.143494,539
904.259705,521
904.375916,516
904.492065,532
904.608215,522
904.724426,516
904.840576,494
904.956726,486
905.072876,487
905.189087,496
905.305176,486
905.421387,480
905.537537,485
905.653687,482
905.769775,484
905.885925,479
906.002014,486
906.118164,471
906.234314,481
906.350403,471
906.466492,476
906.582642,471
906.69873,468
906.814758,492
906.930908,454
907.046936,482
907.163086,465
907.279175,490
907.395264,461
907.511353,464
907.62738,477
907.743408,453
907.859497,475
907.975525,474
908.091553,468
908.207703,475
908.32373,482
908.439758,475
908.555786,478
908.671814,478
908.787842,495
908.90387,489
909.019775,482
909.135864,468
909.251892,494
909.367859,487
909.483826,466
909.599854,476
909.715881,463
909.831848,482
909.947815,480
910.063782,468
910.179749,477
910.295776,477
910.411743,491
910.527649,485
910.643616,475
910.759583,479
910.875488,460
910.991455,474
911.107361,476
911.223267,471
911.339294,459
911.4552,466
911.571106,463
911.687073,482
911.802979,455
911.918823,473
912.034729,478
912.150635,487
912.266602,469
912.382446,471
912.498352,457
912.614197,457
912.730103,469
912.846008,466
792.44574,1207
792.56488,1185
792.68396,1224
792.80304,1202
792.92218,1147
793.041199,1082
793.160339,1047
793.279419,1088
793.398499,1013
793.517578,1005
793.636658,968
793.755737,1010
793.874817,956
793.993896,936
794.112976,922
794.232056,907
794.351074,879
794.470215,854
794.589233,871
794.708313,864
794.827393,854
794.946411,804
795.065552,835
795.18457,838
795.303589,820
795.422668,817
795.541687,779
795.660767,794
795.779846,801
795.898865,772
796.017883,784
796.136963,787
796.255981,746
796.375061,750
796.49408,750
796.613037,716
796.732117,733
796.851135,728
796.970154,718
797.089233,698
797.208191,691
797.327271,677
797.446228,686
797.565186,690
797.684265,711
797.803223,700
797.922241,702
798.04126,671
798.160278,702
798.279297,671
798.398315,682
798.517273,698
798.636292,666
798.75531,675
798.874268,675
798.993286,679
799.112244,660
799.231323,656
799.350281,654
799.469238,651
799.588257,667
799.707153,663
799.826111,671
799.945129,659
800.064087,634
800.183044,656
800.302063,636
800.421021,632
800.539978,645
800.658936,655
800.777893,617
800.896912,632
801.015747,621
801.134705,618
801.253723,616
801.37262,637
801.491638,616
801.610535,602
801.729492,610
801.84845,603
801.967407,607
802.086243,646
802.205261,601
802.324158,618
802.443115,588
802.562073,621
802.680969,617
802.799927,619
802.918762,608
803.037659,591
803.156677,616
803.275574,637
803.39447,594
803.513428,627
803.632263,595
803.751221,609
803.870117,586
803.989014,585
804.107971,590
804.226746,606
804.345642,602
804.4646,571
804.583496,605
804.702393,606
804.821228,588
804.940125,615
805.059021,598
805.177917,581
805.296814,591
805.415649,598
805.534546,606
805.653442,595
805.772278,583
805.891113,612
806.01001,591
806.128906,610
806.247742,580
806.366577,595
806.485413,590
806.604309,582
806.723145,580
806.84198,580
806.960876,565
807.079712,589
807.198486,591
807.317383,580
807.436218,572
807.554993,598
807.673889,565
807.792725,567
807.91156,584
808.030396,589
808.14917,571
808.268005,572
808.386841,583
808.505676,607
808.624451,569
808.743286,587
808.862122,568
808.980896,582
809.099731,557
809.218506,572
809.337341,542
809.456116,559
809.57489,573
809.693726,579
809.8125,575
809.931274,569
810.050049,577
810.168884,572
810.287659,560
810.406372,570
810.525269,576
810.643982,569
810.762756,573
810.881531,573
811.000305,594
811.11908,588
811.237854,583
811.356567,585
811.475403,589
811.594116,570
811.71283,592
811.831604,592
811.950378,582
812.069153,576
812.187927,597
812.30658,585
812.425415,566
812.544128,568
812.662781,588
812.781616,583
812.900269,556
813.019043,583
813.137756,565
813.256531,585
813.375244,574
813.493896,596
813.612671,573
813.731384,580
813.850037,565
813.96875,570
814.087524,547
814.206238,583
814.324951,545
814.443604,563
814.562256,553
814.68103,562
814.799683,556
814.918335,549
815.037109,580
815.155762,569
815.274475,561
815.393188,550
815.511841,562
815.630554,558
815.749146,557
815.867859,579
815.986572,554
816.105164,565
816.223877,544
816.342529,567
816.461182,583
816.579895,538
816.698486,539
816.817139,545
816.935791,556
817.054504,579
817.173096,585
817.291748,560
817.4104,578
817.529053,564
817.647644,555
817.766235,535
817.884949,557
818.00354,541
818.122192,549
818.240845,528
818.359436,556
818.478088,525
818.59668,548
818.715271,540
818.833923,534
818.952515,534
819.071106,525
819.189758,541
819.30835,525
819.426941,531
819.545532,514
819.664124,520
819.782715,546
819.901306,522
820.019897,515
820.138489,534
820.25708,549
820.375671,522
820.494202,524
820.612732,515
820.731384,530
820.849915,518
820.968506,512
821.087097,509
821.205627,510
821.324158,501
821.442749,503
821.561279,500
821.679871,526
821.798401,513
821.916931,509
822.035461,495
822.154053,499
822.272583,524
822.391174,489
822.509583,510
822.628174,490
822.746704,515
822.865234,490
822.983765,498
823.102295,504
823.220825,505
823.339294,487
823.457825,488
823.576355,503
823.694824,514
823.813354,521
823.931885,509
824.050354,505
824.168884,517
824.287354,503
824.405823,495
824.524353,509
824.642822,491
824.761353,527
824.879822,512
824.998291,511
825.116699,529
825.235291,525
825.353699,512
825.472168,483
825.590637,527
825.709106,499
825.827576,502
825.946045,501
826.064453,527
826.182983,502
826.301392,510
826.4198,495
826.53833,497
826.656738,492
826.775208,479
826.893677,481
827.012024,510
827.130493,491
827.248962,497
827.36731,483
827.485779,521
827.604248,493
827.722595,510
827.841064,500
827.959412,493
828.077942,487
828.196289,479
828.314636,491
828.433105,497
828.551514,487
828.669861,506
828.78833,507
828.906677,507
829.025085,486
829.143433,474
829.261841,496
829.38031,509
829.498657,476
829.617004,506
829.735413,494
829.85376,507
829.972107,486
830.090515,494
830.208862,505
830.327209,461
830.445557,474
830.563904,480
830.682312,506
830.800659,493
830.919006,510
831.037354,516
831.155701,523
831.274048,503
831.392395,498
831.51062,497
831.629028,510
831.747314,482
831.865662,485
831.984009,492
832.102356,504
832.220642,502
832.338928,534
832.457275,493
832.575623,507
832.693909,507
832.812134,505
832.930481,495
833.048828,502
833.167114,480
833.2854,512
833.403687,499
833.521973,498
833.640259,509
833.758545,510
833.876831,515
833.995056,491
834.113281,501
834.231628,500
834.349915,501
834.468201,500
834.586426,505
834.704651,519
834.822998,519
834.941162,484
835.059448,506
835.177673,501
835.295959,501
835.414246,498
835.53241,503
835.650635,488
835.768921,481
835.887146,496
836.005371,501
836.123596,512
836.241821,506
836.360046,498
836.478271,511
836.596497,507
836.714722,512
836.832886,473
836.95105,490
837.069336,493
837.1875,500
837.305725,489
837.423889,492
837.542053,497
837.660339,497
837.778503,487
837.896667,519
838.014832,491
838.132996,501
838.25116,519
838.369385,505
838.487488,488
838.605713,503
838.723877,494
838.84198,511
838.960205,506
839.078308,528
839.196472,492
839.314636,525
839.4328,505
839.550964,508
839.669067,518
839.787231,528
839.905396,515
840.023499,512
840.141602,548
840.259766,507
840.377869,532
840.495972,546
840.614136,520
840.732239,515
840.850342,532
840.968445,539
841.086548,529
841.204651,549
841.322754,534
841.440918,536
841.55896,530
841.677002,526
841.795166,557
841.913208,553
842.031311,545
842.149353,537
842.267456,526
842.385498,550
842.503601,537
842.621643,533
842.739746,539
842.857788,533
842.97583,539
843.093933,532
843.211975,538
843.330017,541
843.44812,559
843.566101,523
843.684204,524
843.802246,533
843.920227,518
844.038269,550
844.156311,534
844.274292,517
844.392395,523
844.510376,509
844.628357,545
844.74646,524
844.864441,535
844.982422,518
845.100403,531
845.218384,526
845.336426,521
845.454468,513
845.572449,513
845.69043,512
845.808411,520
845.926453,505
846.044373,524
846.162354,537
846.280396,524
846.398315,515
846.516296,531
846.634216,508
846.752197,517
846.870178,556
846.988098,529
847.106079,527
847.22406,512
847.34198,510
847.4599,538
847.577881,545
847.695801,533
847.813782,516
847.931641,531
848.049561,533
848.167603,527
848.285461,522
848.403381,528
848.521362,539
848.639221,523
848.75708,501
848.875,540
848.99292,522
849.110901,532
849.22876,541
849.34668,519
849.464539,536
849.582458,523
849.700317,524
849.818176,539
849.936096,541
850.053955,533
850.171875,533
850.289673,543
850.407593,546
850.525452,533
850.643311,539
850.761169,518
850.878967,538
850.996887,547
851.114746,517
851.232544,525
851.350403,541
851.468262,526
851.58606,514
851.703979,529
851.821777,526
851.939636,529
852.057434,532
852.175232,523
852.293091,542
852.410889,549
852.528687,550
852.646545,573
852.764343,567
852.88208,580
852.999939,567
853.117676,530
853.235535,550
853.353271,536
853.471069,562
853.588928,522
853.706604,537
853.824402,547
853.9422,527
854.059998,539
854.177734,528
854.295532,513
854.413269,542
854.531006,530
854.648804,537
854.766541,556
854.884277,530
855.002014,536
855.119751,526
855.237549,535
855.355225,534
855.473022,561
855.590698,525
855.708435,527
855.826172,545
855.943848,537
856.061646,536
856.179321,548
856.296997,537
856.414795,554
856.53241,556
856.650085,568
856.767822,544
856.885559,545
857.003174,545
857.120911,561
857.238586,530
857.356201,550
857.473938,553
857.591614,545
857.709351,535
857.826965,557
857.944641,564
858.062317,550
858.179993,560
858.297668,531
858.415283,556
858.532959,550
858.650574,572
858.768188,540
858.885803,538
859.003479,529
859.121094,564
859.23877,532
859.356384,541
859.473999,527
859.591675,539
859.709229,530
859.826843,548
859.944458,534
860.062012,536
860.179626,498
860.297302,530
860.414856,526
860.532471,541
860.650024,508
860.767639,510
860.885193,525
861.002808,527
861.120361,536
861.237976,529
861.35553,537
861.473022,535
861.590698,547
861.708191,528
861.825745,535
861.943298,519
862.060852,515
862.178406,513
862.295959,501
862.413513,489
862.531006,493
862.64856,511
862.766113,502
862.883667,514
863.00116,490
863.118713,507
863.236206,498
863.353699,512
863.471252,512
863.588745,521
863.706177,506
863.82373,513
863.941162,532
864.058716,517
864.176208,520
864.29364,525
864.411194,528
864.528687,492
864.646118,511
864.763611,501
864.881042,481
864.998535,522
865.116028,500
865.233459,504
865.350891,508
865.468384,501
865.585754,497
865.703308,497
865.820679,498
865.938171,495
866.055542,514
866.173035,502
866.290466,494
866.407837,503
866.52533,512
866.6427,524
866.760071,504
866.877563,509
866.994934,506
867.112305,511
867.229736,493
867.347107,507
867.464539,517
867.58197,524
867.699341,522
867.81665,534
867.934082,519
868.051453,527
868.168823,529
868.286194,495
868.403564,513
868.520935,533
868.638306,504
868.755676,511
868.872986,489
868.990295,535
869.107727,533
869.225037,527
869.342346,539
869.459717,544
869.577026,504
869.694336,540
869.811707,527
869.929016,539
870.046326,537
870.163635,524
870.280945,528
870.398254,540
870.515564,526
870.632812,553
870.750183,537
870.867432,536
870.984741,567
871.102051,547
871.219299,534
871.336609,535
871.453918,570
871.571106,538
871.688416,527
871.805664,581
871.922852,543
872.040222,556
872.157471,556
872.274719,555
872.391968,549
872.509155,557
872.626465,564
872.743652,546
872.860962,545
872.978149,572
873.095337,548
873.212646,562
873.329834,530
873.44696,525
873.564209,545
873.681396,537
873.798645,530
873.915894,556
874.03302,522
874.150208,542
874.267456,534
874.384583,565
874.501831,545
874.618958,554
874.736145,573
874.853333,565
874.970459,560
875.087646,560
875.204834,558
875.32196,541
875.439148,542
875.556274,550
875.673401,560
875.790527,544
875.907715,534
876.024841,539
876.141968,532
876.259094,543
876.376282,520
876.493347,555
876.610474,520
876.7276,524
876.844727,535
876.961853,520
877.078918,525
877.195984,522
877.313171,539
877.430237,515
877.547302,513
877.664368,527
877.781433,540
877.898499,522
878.015625,519
878.13269,522
878.249695,514
878.366821,503
878.483887,534
878.600952,532
878.717957,501
878.834961,504
878.952087,507
879.069092,524
879.186157,513
879.303162,517
879.420227,510
879.537231,509
879.654236,492
879.77124,507
879.888306,503
880.005249,520
880.122314,500
880.239319,518
880.356323,486
880.473328,494
880.590271,474
880.707275,508
880.824341,485
880.941284,509
881.058228,482
881.175232,514
881.292236,484
881.40918,491
881.526123,500
881.643066,521
881.760071,492
881.877014,500
881.993958,499
882.11084,479
882.227783,506
882.344727,503
882.46167,506
882.578613,493
882.695618,492
882.812439,501
882.929382,502
883.046326,512
883.163208,496
883.280151,506
883.397034,515
883.513916,528
883.630798,513
883.747742,504
883.864563,500
883.981506,523
884.098389,499
884.21521,506
884.332153,531
884.448975,525
884.565796,528
884.682678,534
884.7995,525
884.916443,546
885.033264,546
885.150085,599
885.266968,606
885.383789,624
885.500671,621
885.617493,631
885.734314,601
885.851196,614
885.967896,610
886.084717,615
886.201599,604
886.318359,617
886.435181,574
886.552002,615
886.668762,617
886.785645,587
886.902344,581
887.019165,581
887.135925,550
887.252747,586
887.369446,553
887.486267,565
887.603027,553
887.719788,563
887.836548,552
887.953247,544
888.070068,527
888.186829,521
888.303528,529
888.420288,492
888.536987,528
888.653687,492
888.770447,497
888.887146,501
889.003967,501
889.120667,500
889.237305,475
889.354065,479
889.470703,475
889.587463,484
889.704163,473
889.820862,481
889.937561,493
890.054199,488
890.170837,466
890.287598,474
890.404236,493
890.520874,481
890.637634,469
890.754211,479
890.87085,480
890.987549,489
891.104187,485
891.220886,469
891.337463,488
891.454102,496
891.57074,481
891.687378,488
891.804077,487
891.920654,476
892.037231,493
892.15387,484
892.270447,467
892.387085,490
892.503723,475
892.6203,486
892.736877,457
892.853516,492
892.970032,484
893.08667,479
893.203186,481
893.319763,490
893.43634,469
893.552917,478
893.669556,485
893.786011,506
893.902588,467
894.019165,469
894.135681,495
894.252197,494
894.368835,494
894.485291,477
894.601868,495
894.718384,489
894.8349,478
894.951355,507
895.067932,474
895.184448,476
895.300964,484
895.417419,465
895.533936,491
895.650452,480
895.766907,457
895.883423,488
895.999878,462
896.116333,463
896.232849,490
896.349304,487
896.465759,484
896.582214,474
896.698669,463
896.815125,494
896.931641,485
897.048035,482
897.164551,465
897.280884,485
897.397339,454
897.513794,486
897.630249,473
897.746582,487
897.863098,472
897.979431,480
898.095886,480
898.212341,479
898.328674,473
898.445129,473
898.561462,489
898.677795,496
898.794312,488
898.910645,498
899.026978,467
899.143433,498
899.259766,488
899.37616,505
899.492493,475
899.608765,485
899.725159,478
899.841553,484
899.957947,475
900.07428,489
900.190552,482
900.306946,497
900.423157,470
900.53949,482
900.655884,490
900.772156,501
900.888489,484
901.004822,511
901.121033,474
901.237366,509
901.353699,487
901.46991,517
901.586304,502
901.702515,486
901.818787,518
901.93512,487
902.051331,514
902.167603,536
902.283875,523
902.400085,543
902.516418,550
902.632629,528
902.74884,532
902.865112,572
902.981384,531
903.097595,559
903.213867,544
903.330017,548
903.446289,535
903.5625,522
903.67865,545
903.794922,529
903.911072,513
904.027344,543
904.143494,533
904.259705,520
904.375916,506
904.492065,519
904.608215,513
904.724426,503
904.840576,512
904.956726,513
905.072876,489
905.189087,485
905.305176,491
905.421387,490
905.537537,500
905.653687,503
905.769775,498
905.885925,487
906.002014,484
906.118164,484
906.234314,488
906.350403,468
906.466492,484
906.582642,494
906.69873,481
906.814758,481
906.930908,477
907.046936,479
907.163086,473
907.279175,487
907.395264,470
907.511353,485
907.62738,454
907.743408,456
907.859497,483
907.975525,475
908.091553,483
908.207703,491
908.32373,455
908.439758,481
908.555786,466
908.671814,479
908.787842,478
908.90387,490
909.019775,463
909.135864,479
909.251892,478
909.367859,473
909.483826,460
909.599854,485
909.715881,498
909.831848,500
909.947815,510
910.063782,478
910.179749,494
910.295776,472
910.411743,481
910.527649,479
910.643616,494
910.759583,459
910.875488,470
910.991455,457
911.107361,465
911.223267,461
911.339294,480
911.4552,467
911.571106,483
911.687073,503
911.802979,472
911.918823,465
912.034729,467
912.150635,478
912.266602,483
912.382446,490
912.498352,476
912.614197,483
912.730103,463
912.846008,455
