792.44574,1205
792.56488,1207
792.68396,1175
792.80304,1139
792.92218,1113
793.041199,1075
793.160339,1023
793.279419,1058
793.398499,1003
793.517578,964
793.636658,969
793.755737,963
793.874817,955
793.993896,936
794.112976,872
794.232056,901
794.351074,880
794.470215,873
794.589233,816
794.708313,803
794.827393,845
794.946411,850
795.065552,848
795.18457,833
795.303589,806
795.422668,805
795.541687,813
795.660767,794
795.779846,765
795.898865,756
796.017883,754
796.136963,741
796.255981,762
796.375061,749
796.49408,746
796.613037,739
796.732117,724
796.851135,730
796.970154,699
797.089233,719
797.208191,717
797.327271,706
797.446228,710
797.565186,709
797.684265,706
797.803223,684
797.922241,692
798.04126,670
798.160278,679
798.279297,675
798.398315,668
798.517273,664
798.636292,668
798.75531,670
798.874268,663
798.993286,663
799.112244,634
799.231323,669
799.350281,657
799.469238,644
799.588257,663
799.707153,668
799.826111,656
799.945129,645
800.064087,637
800.183044,660
800.302063,655
800.421021,640
800.539978,632
800.658936,623
800.777893,639
800.896912,632
801.015747,619
801.134705,616
801.253723,612
801.37262,605
801.491638,634
801.610535,608
801.729492,628
801.84845,626
801.967407,624
802.086243,613
802.205261,618
802.324158,596
802.443115,611
802.562073,613
802.680969,622
802.799927,606
802.918762,594
803.037659,618
803.156677,625
803.275574,594
803.39447,605
803.513428,602
803.632263,595
803.751221,593
803.870117,612
803.989014,600
804.107971,574
804.226746,603
804.345642,600
804.4646,577
804.583496,607
804.702393,575
804.821228,603
804.940125,609
805.059021,586
805.177917,587
805.296814,569
805.415649,603
805.534546,577
805.653442,578
805.772278,584
805.891113,588
806.01001,586
806.128906,603
806.247742,598
806.366577,581
806.485413,574
806.604309,574
806.723145,573
806.84198,582
806.960876,569
807.079712,577
807.198486,596
807.317383,591
807.436218,564
807.554993,574
807.673889,589
807.792725,558
807.91156,592
808.030396,588
808.14917,585
808.268005,581
808.386841,564
808.505676,570
808.624451,559
808.743286,566
808.862122,576
808.980896,580
809.099731,575
809.218506,558
809.337341,553
809.456116,567
809.57489,599
809.693726,584
809.8125,566
809.931274,564
810.050049,586
810.168884,583
810.287659,564
810.406372,554
810.525269,584
810.643982,583
810.762756,582
810.881531,572
811.000305,555
811.11908,588
811.237854,577
811.356567,570
811.475403,574
811.594116,584
811.71283,561
811.831604,561
811.950378,598
812.069153,572
812.187927,592
812.30658,595
812.425415,595
812.544128,582
812.662781,590
812.781616,592
812.900269,556
813.019043,587
813.137756,568
813.256531,585
813.375244,560
813.493896,608
813.612671,556
813.731384,563
813.850037,563
813.96875,559
814.087524,560
814.206238,552
814.324951,564
814.443604,581
814.562256,566
814.68103,578
814.799683,560
814.918335,565
815.037109,561
815.155762,569
815.274475,568
815.393188,575
815.511841,541
815.630554,586
815.749146,551
815.867859,569
815.986572,544
816.105164,552
816.223877,557
816.342529,578
816.461182,561
816.579895,576
816.698486,558
816.817139,553
816.935791,571
817.054504,583
817.173096,598
817.291748,580
817.4104,564
817.529053,563
817.647644,562
817.766235,561
817.884949,574
818.00354,562
818.122192,561
818.240845,532
818.359436,543
818.478088,560
818.59668,547
818.715271,531
818.833923,545
818.952515,528
819.071106,512
819.189758,529
819.30835,521
819.426941,545
819.545532,535
819.664124,531
819.782715,512
819.901306,534
820.019897,533
820.138489,535
820.25708,522
820.375671,534
820.494202,539
820.612732,528
820.731384,534
820.849915,517
820.968506,538
821.087097,516
821.205627,486
821.324158,532
821.442749,501
821.561279,518
821.679871,528
821.798401,502
821.916931,503
822.035461,510
822.154053,528
822.272583,526
822.391174,508
822.509583,522
822.628174,523
822.746704,501
822.865234,493
822.983765,506
823.102295,484
823.220825,500
823.339294,503
823.457825,511
823.576355,501
823.694824,508
823.813354,513
823.931885,489
824.050354,498
824.168884,511
824.287354,479
824.405823,522
824.524353,512
824.642822,512
824.761353,512
824.879822,497
824.998291,512
825.116699,521
825.235291,503
825.353699,501
825.472168,521
825.590637,531
825.709106,519
825.827576,512
825.946045,499
826.064453,501
826.182983,504
826.301392,498
826.4198,504
826.53833,487
826.656738,498
826.775208,495
826.893677,494
827.012024,498
827.130493,478
827.248962,486
827.36731,495
827.485779,493
827.604248,527
827.722595,515
827.841064,490
827.959412,498
828.077942,485
828.196289,493
828.314636,491
828.433105,496
828.551514,491
828.669861,507
828.78833,506
828.906677,492
829.025085,507
829.143433,506
829.261841,508
829.38031,496
829.498657,495
829.617004,512
829.735413,490
829.85376,506
829.972107,486
830.090515,500
830.208862,493
830.327209,490
830.445557,490
830.563904,507
830.682312,501
830.800659,495
830.919006,489
831.037354,511
831.155701,491
831.274048,483
831.392395,493
831.51062,498
831.629028,514
831.747314,493
831.865662,493
831.984009,511
832.102356,491
832.220642,490
832.338928,505
832.457275,501
832.575623,523
832.693909,499
832.812134,521
832.930481,513
833.048828,501
833.167114,497
833.2854,485
833.403687,492
833.521973,502
833.640259,496
833.758545,483
833.876831,487
833.995056,492
834.113281,498
834.231628,483
834.349915,490
834.468201,494
834.586426,497
834.704651,509
834.822998,508
834.941162,506
835.059448,489
835.177673,518
835.295959,517
835.414246,498
835.53241,508
835.650635,499
835.768921,506
835.887146,475
836.005371,500
836.123596,502
836.241821,502
836.360046,485
836.478271,517
836.596497,500
836.714722,487
836.832886,514
836.95105,489
837.069336,502
837.1875,504
837.305725,521
837.423889,502
837.542053,487
837.660339,505
837.778503,490
837.896667,493
838.014832,502
838.132996,493
838.25116,487
838.369385,494
838.487488,505
838.605713,507
838.723877,514
838.84198,530
838.960205,487
839.078308,516
839.196472,493
839.314636,520
839.4328,507
839.550964,511
839.669067,508
839.787231,529
839.905396,521
840.023499,506
840.141602,519
840.259766,526
840.377869,533
840.495972,539
840.614136,518
840.732239,545
840.850342,510
840.968445,531
841.086548,542
841.204651,540
841.322754,525
841.440918,588
841.55896,573
841.677002,517
841.795166,535
841.913208,551
842.031311,551
842.149353,567
842.267456,533
842.385498,546
842.503601,543
842.621643,530
842.739746,526
842.857788,556
842.97583,525
843.093933,561
843.211975,523
843.330017,528
843.44812,530
843.566101,529
843.684204,538
843.802246,542
843.920227,544
844.038269,526
844.156311,520
844.274292,535
844.392395,527
844.510376,530
844.628357,512
844.74646,521
844.864441,536
844.982422,521
845.100403,532
845.218384,517
845.336426,523
845.454468,540
845.572449,520
845.69043,524
845.808411,495
845.926453,523
846.044373,518
846.162354,520
846.280396,511
846.398315,511
846.516296,532
846.634216,509
846.752197,509
846.870178,518
846.988098,542
847.106079,514
847.22406,525
847.34198,535
847.4599,533
847.577881,542
847.695801,515
847.813782,511
847.931641,538
848.049561,530
848.167603,543
848.285461,521
848.403381,533
848.521362,546
848.639221,526
848.75708,536
848.875,532
848.99292,532
849.110901,521
849.22876,537
849.34668,518
849.464539,544
849.582458,530
849.700317,514
849.818176,536
849.936096,548
850.053955,534
850.171875,537
850.289673,530
850.407593,541
850.525452,534
850.643311,521
850.761169,519
850.878967,537
850.996887,542
851.114746,527
851.232544,507
851.350403,508
851.468262,519
851.58606,544
851.703979,499
851.821777,533
851.939636,519
852.057434,507
852.175232,497
852.293091,542
852.410889,545
852.528687,576
852.646545,552
852.764343,569
852.88208,553
852.999939,552
853.117676,510
853.235535,525
853.353271,542
853.471069,527
853.588928,527
853.706604,510
853.824402,527
853.9422,527
854.059998,522
854.177734,550
854.295532,508
854.413269,528
854.531006,523
854.648804,525
854.766541,546
854.884277,557
855.002014,518
855.119751,560
855.237549,525
855.355225,512
855.473022,532
855.590698,523
855.708435,530
855.826172,540
855.943848,532
856.061646,534
856.179321,533
856.296997,550
856.414795,534
856.53241,537
856.650085,519
856.767822,552
856.885559,571
857.003174,564
857.120911,547
857.238586,550
857.356201,569
857.473938,544
857.591614,566
857.709351,561
857.826965,549
857.944641,532
858.062317,550
858.179993,539
858.297668,542
858.415283,553
858.532959,544
858.650574,561
858.768188,537
858.885803,561
859.003479,562
859.121094,540
859.23877,553
859.356384,532
859.473999,541
859.591675,537
859.709229,541
859.826843,541
859.944458,540
860.062012,544
860.179626,538
860.297302,536
860.414856,535
860.532471,510
860.650024,542
860.767639,540
860.885193,514
861.002808,532
861.120361,528
861.237976,519
861.35553,544
861.473022,530
861.590698,510
861.708191,535
861.825745,524
861.943298,541
862.060852,510
862.178406,512
862.295959,507
862.413513,504
862.531006,515
862.64856,520
862.766113,487
862.883667,506
863.00116,494
863.118713,508
863.236206,500
863.353699,502
863.471252,529
863.588745,493
863.706177,531
863.82373,509
863.941162,496
864.058716,507
864.176208,520
864.29364,494
864.411194,490
864.528687,521
864.646118,505
864.763611,509
864.881042,490
864.998535,495
865.116028,505
865.233459,500
865.350891,510
865.468384,512
865.585754,510
865.703308,508
865.820679,517
865.938171,506
866.055542,515
866.173035,489
866.290466,522
866.407837,511
866.52533,515
866.6427,523
866.760071,502
866.877563,494
866.994934,524
867.112305,507
867.229736,520
867.347107,511
867.464539,517
867.58197,514
867.699341,534
867.81665,520
867.934082,496
868.051453,530
868.168823,504
868.286194,516
868.403564,527
868.520935,520
868.638306,507
868.755676,528
868.872986,527
868.990295,537
869.107727,513
869.225037,517
869.342346,528
869.459717,547
869.577026,531
869.694336,530
869.811707,510
869.929016,534
870.046326,539
870.163635,524
870.280945,514
870.398254,539
870.515564,538
870.632812,522
870.750183,535
870.867432,535
870.984741,557
871.102051,544
871.219299,550
871.336609,565
871.453918,556
871.571106,545
871.688416,546
871.805664,553
871.922852,546
872.040222,537
872.157471,535
872.274719,570
872.391968,556
872.509155,549
872.626465,548
872.743652,516
872.860962,542
872.978149,552
873.095337,539
873.212646,530
873.329834,550
873.44696,547
873.564209,527
873.681396,540
873.798645,544
873.915894,547
874.03302,562
874.150208,544
874.267456,535
874.384583,541
874.501831,541
874.618958,538
874.736145,565
874.853333,567
874.970459,555
875.087646,541
875.204834,532
875.32196,553
875.439148,525
875.556274,540
875.673401,550
875.790527,555
875.907715,555
876.024841,546
876.141968,530
876.259094,530
876.376282,530
876.493347,546
876.610474,539
876.7276,540
876.844727,532
876.961853,519
877.078918,503
877.195984,537
877.313171,522
877.430237,525
877.547302,523
877.664368,534
877.781433,528
877.898499,514
878.015625,544
878.13269,520
878.249695,523
878.366821,514
878.483887,522
878.600952,526
878.717957,504
878.834961,519
878.952087,498
879.069092,505
879.186157,519
879.303162,491
879.420227,502
879.537231,524
879.654236,508
879.77124,508
879.888306,502
880.005249,480
880.122314,517
880.239319,504
880.356323,502
880.473328,506
880.590271,517
880.707275,506
880.824341,506
880.941284,497
881.058228,487
881.175232,504
881.292236,487
881.40918,486
881.526123,502
881.643066,504
881.760071,489
881.877014,519
881.993958,486
882.11084,513
882.227783,504
882.344727,522
882.46167,484
882.578613,497
882.695618,495
882.812439,501
882.929382,495
883.046326,507
883.163208,473
883.280151,505
883.397034,494
883.513916,509
883.630798,521
883.747742,510
883.864563,519
883.981506,499
884.098389,486
884.21521,521
884.332153,511
884.448975,510
884.565796,528
884.682678,529
884.7995,549
884.916443,558
885.033264,564
885.150085,594
885.266968,596
885.383789,596
885.500671,604
885.617493,599
885.734314,582
885.851196,615
885.967896,591
886.084717,581
886.201599,590
886.318359,611
886.435181,582
886.552002,582
886.668762,594
886.785645,585
886.902344,571
887.019165,586
887.135925,575
887.252747,561
887.369446,574
887.486267,564
887.603027,544
887.719788,545
887.836548,560
887.953247,526
888.070068,522
888.186829,527
888.303528,515
888.420288,515
888.536987,499
888.653687,480
888.770447,499
888.887146,506
889.003967,503
889.120667,481
889.237305,483
889.354065,481
889.470703,494
889.587463,471
889.704163,462
889.820862,476
889.937561,509
890.054199,470
890.170837,461
890.287598,469
890.404236,449
890.520874,503
890.637634,471
890.754211,469
890.87085,467
890.987549,482
891.104187,482
891.220886,497
891.337463,483
891.454102,469
891.57074,496
891.687378,499
891.804077,494
891.920654,454
892.037231,492
892.15387,475
892.270447,465
892.387085,506
892.503723,477
892.6203,495
892.736877,492
892.853516,494
892.970032,494
893.08667,492
893.203186,470
893.319763,471
893.43634,477
893.552917,462
893.669556,481
893.786011,476
893.902588,475
894.019165,491
894.135681,481
894.252197,499
894.368835,488
894.485291,485
894.601868,475
894.718384,471
894.8349,468
894.951355,447
895.067932,495
895.184448,462
895.300964,471
895.417419,470
895.533936,483
895.650452,462
895.766907,450
895.883423,489
895.999878,464
896.116333,481
896.232849,478
896.349304,479
896.465759,464
896.582214,481
896.698669,483
896.815125,464
896.931641,474
897.048035,478
897.164551,459
897.280884,486
897.397339,479
897.513794,474
897.630249,488
897.746582,477
897.863098,467
897.979431,488
898.095886,477
898.212341,462
898.328674,469
898.445129,485
898.561462,478
898.677795,493
898.794312,482
898.910645,475
899.026978,489
899.143433,490
899.259766,477
899.37616,492
899.492493,467
899.608765,513
899.725159,456
899.841553,468
899.957947,469
900.07428,476
900.190552,498
900.306946,497
900.423157,492
900.53949,484
900.655884,491
900.772156,498
900.888489,479
901.004822,476
901.121033,480
901.237366,509
901.353699,476
901.46991,508
901.586304,502
901.702515,504
901.818787,491
901.93512,480
902.051331,507
902.167603,518
902.283875,524
902.400085,529
902.516418,546
902.632629,527
902.74884,540
902.865112,542
902.981384,509
903.097595,553
903.213867,534
903.330017,532
903.446289,537
903.5625,537
903.67865,540
903.794922,513
903.911072,526
904.027344,528
904.143494,500
904.259705,509
904.375916,507
904.492065,526
904.608215,498
904.724426,507
904.840576,512
904.956726,502
905.072876,499
905.189087,490
905.305176,467
905.421387,486
905.537537,497
905.653687,479
905.769775,476
905.885925,484
906.002014,458
906.118164,483
906.234314,468
906.350403,466
906.466492,475
906.582642,456
906.69873,480
906.814758,497
906.930908,484
907.046936,471
907.163086,459
907.279175,479
907.395264,451
907.511353,462
907.62738,477
907.743408,470
907.859497,455
907.975525,492
908.091553,476
908.207703,469
908.32373,468
908.439758,476
908.555786,473
908.671814,482
908.787842,478
908.90387,474
909.019775,487
909.135864,477
909.251892,472
909.367859,477
909.483826,476
909.599854,498
909.715881,458
909.831848,476
909.947815,460
910.063782,486
910.179749,479
910.295776,504
910.411743,481
910.527649,464
910.643616,466
910.759583,460
910.875488,495
910.991455,478
911.107361,460
911.223267,470
911.339294,460
911.4552,494
911.571106,475
911.687073,472
911.802979,488
911.918823,476
912.034729,475
912.150635,474
912.266602,474
912.382446,464
912.498352,463
912.614197,473
912.730103,456
912.846008,476
792.44574,1182
792.56488,1199
792.68396,1223
792.80304,1168
792.92218,1112
793.041199,1030
793.160339,1041
793.279419,1045
793.398499,1002
793.517578,961
793.636658,978
793.755737,962
793.874817,950
793.993896,946
794.112976,920
794.232056,900
794.351074,865
794.470215,900
794.589233,844
794.708313,845
794.827393,834
794.946411,826
795.065552,858
795.18457,807
795.303589,817
795.422668,805
795.541687,800
795.660767,814
795.779846,781
795.898865,754
796.017883,748
796.136963,762
796.255981,755
796.375061,731
796.49408,740
796.613037,685
796.732117,715
796.851135,705
796.970154,723
797.089233,730
797.208191,690
797.327271,692
797.446228,697
797.565186,688
797.684265,696
797.803223,680
797.922241,723
798.04126,667
798.160278,700
798.279297,673
798.398315,688
798.517273,673
798.636292,667
798.75531,701
798.874268,652
798.993286,671
799.112244,683
799.231323,677
799.350281,686
799.469238,677
799.588257,649
799.707153,668
799.826111,664
799.945129,678
800.064087,652
800.183044,636
800.302063,643
800.421021,641
800.539978,659
800.658936,639
800.777893,621
800.896912,602
801.015747,611
801.134705,637
801.253723,638
801.37262,608
801.491638,614
801.610535,644
801.729492,619
801.84845,607
801.967407,641
802.086243,603
802.205261,624
802.324158,640
802.443115,623
802.562073,601
802.680969,606
802.799927,609
802.918762,615
803.037659,613
803.156677,611
803.275574,621
803.39447,616
803.513428,601
803.632263,589
803.751221,600
803.870117,620
803.989014,608
804.107971,584
804.226746,582
804.345642,608
804.4646,592
804.583496,605
804.702393,610
804.821228,618
804.940125,613
805.059021,588
805.177917,588
805.296814,595
805.415649,596
805.534546,597
805.653442,572
805.772278,595
805.891113,561
806.01001,600
806.128906,600
806.247742,573
806.366577,580
806.485413,593
806.604309,574
806.723145,592
806.84198,567
806.960876,595
807.079712,596
807.198486,590
807.317383,592
807.436218,585
807.554993,571
807.673889,577
807.792725,575
807.91156,579
808.030396,580
808.14917,597
808.268005,584
808.386841,572
808.505676,587
808.624451,579
808.743286,586
808.862122,596
808.980896,572
809.099731,579
809.218506,584
809.337341,590
809.456116,576
809.57489,608
809.693726,584
809.8125,589
809.931274,581
810.050049,590
810.168884,591
810.287659,574
810.406372,565
810.525269,590
810.643982,573
810.762756,574
810.881531,587
811.000305,568
811.11908,576
811.237854,575
811.356567,581
811.475403,571
811.594116,575
811.71283,581
811.831604,564
811.950378,584
812.069153,575
812.187927,583
812.30658,571
812.425415,593
812.544128,564
812.662781,602
812.781616,578
812.900269,586
813.019043,587
813.137756,590
813.256531,568
813.375244,580
813.493896,586
813.612671,566
813.731384,578
813.850037,560
813.96875,549
814.087524,565
814.206238,563
814.324951,576
814.443604,564
814.562256,567
814.68103,566
814.799683,561
814.918335,554
815.037109,560
815.155762,559
815.274475,557
815.393188,581
815.511841,577
815.630554,564
815.749146,571
815.867859,568
815.986572,576
816.105164,561
816.223877,550
816.342529,562
816.461182,572
816.579895,590
816.698486,570
816.817139,589
816.935791,567
817.054504,578
817.173096,570
817.291748,560
817.4104,565
817.529053,565
817.647644,558
817.766235,579
817.884949,576
818.00354,553
818.122192,558
818.240845,558
818.359436,538
818.478088,548
818.59668,543
818.715271,555
818.833923,525
818.952515,546
819.071106,545
819.189758,540
819.30835,528
819.426941,533
819.545532,538
819.664124,551
819.782715,526
819.901306,522
820.019897,529
820.138489,507
820.25708,531
820.375671,516
820.494202,548
820.612732,518
820.731384,531
820.849915,531
820.968506,526
821.087097,523
821.205627,517
821.324158,525
821.442749,531
821.561279,519
821.679871,516
821.798401,518
821.916931,502
822.035461,503
822.154053,526
822.272583,516
822.391174,511
822.509583,507
822.628174,512
822.746704,503
822.865234,503
822.983765,523
823.102295,498
823.220825,502
823.339294,524
823.457825,526
823.576355,510
823.694824,499
823.813354,494
823.931885,519
824.050354,509
824.168884,503
824.287354,513
824.405823,499
824.524353,504
824.642822,502
824.761353,511
824.879822,520
824.998291,516
825.116699,516
825.235291,518
825.353699,501
825.472168,502
825.590637,507
825.709106,537
825.827576,521
825.946045,518
826.064453,495
826.182983,498
826.301392,501
826.4198,501
826.53833,509
826.656738,497
826.775208,508
826.893677,487
827.012024,509
827.130493,521
827.248962,513
827.36731,496
827.485779,516
827.604248,512
827.722595,493
827.841064,494
827.959412,503
828.077942,505
828.196289,494
828.314636,502
828.433105,518
828.551514,516
828.669861,501
828.78833,483
828.906677,506
829.025085,499
829.143433,495
829.261841,502
829.38031,472
829.498657,512
829.617004,492
829.735413,487
829.85376,484
829.972107,501
830.090515,491
830.208862,511
830.327209,473
830.445557,488
830.563904,475
830.682312,493
830.800659,488
830.919006,482
831.037354,498
831.155701,508
831.274048,489
831.392395,525
831.51062,531
831.629028,519
831.747314,496
831.865662,497
831.984009,513
832.102356,514
832.220642,517
832.338928,513
832.457275,513
832.575623,489
832.693909,490
832.812134,524
832.930481,501
833.048828,511
833.167114,502
833.2854,497
833.403687,498
833.521973,507
833.640259,493
833.758545,490
833.876831,512
833.995056,504
834.113281,499
834.231628,490
834.349915,512
834.468201,496
834.586426,490
834.704651,520
834.822998,488
834.941162,517
835.059448,508
835.177673,514
835.295959,501
835.414246,529
835.53241,505
835.650635,515
835.768921,506
835.887146,509
836.005371,517
836.123596,494
836.241821,487
836.360046,531
836.478271,507
836.596497,485
836.714722,502
836.832886,525
836.95105,488
837.069336,508
837.1875,502
837.305725,513
837.423889,505
837.542053,510
837.660339,515
837.778503,489
837.896667,483
838.014832,518
838.132996,498
838.25116,524
838.369385,510
838.487488,523
838.605713,488
838.723877,519
838.84198,508
838.960205,528
839.078308,510
839.196472,515
839.314636,519
839.4328,532
839.550964,515
839.669067,520
839.787231,521
839.905396,546
840.023499,538
840.141602,530
840.259766,526
840.377869,541
840.495972,536
840.614136,546
840.732239,543
840.850342,534
840.968445,532
841.086548,542
841.204651,546
841.322754,537
841.440918,531
841.55896,542
841.677002,542
841.795166,552
841.913208,541
842.031311,524
842.149353,558
842.267456,550
842.385498,543
842.503601,535
842.621643,525
842.739746,562
842.857788,547
842.97583,527
843.093933,543
843.211975,554
843.330017,537
843.44812,554
843.566101,546
843.684204,549
843.802246,529
843.920227,541
844.038269,529
844.156311,531
844.274292,536
844.392395,539
844.510376,525
844.628357,535
844.74646,519
844.864441,542
844.982422,544
845.100403,536
845.218384,540
845.336426,518
845.454468,513
845.572449,537
845.69043,546
845.808411,526
845.926453,515
846.044373,550
846.162354,539
846.280396,540
846.398315,553
846.516296,565
846.634216,516
846.752197,552
846.870178,535
846.988098,538
847.106079,528
847.22406,545
847.34198,546
847.4599,518
847.577881,526
847.695801,530
847.813782,535
847.931641,526
848.049561,553
848.167603,522
848.285461,503
848.403381,538
848.521362,527
848.639221,512
848.75708,529
848.875,537
848.99292,542
849.110901,536
849.22876,548
849.34668,546
849.464539,527
849.582458,545
849.700317,548
849.818176,533
849.936096,534
850.053955,521
850.171875,527
850.289673,542
850.407593,532
850.525452,537
850.643311,537
850.761169,558
850.878967,519
850.996887,528
851.114746,540
851.232544,538
851.350403,510
851.468262,524
851.58606,516
851.703979,532
851.821777,531
851.939636,542
852.057434,545
852.175232,530
852.293091,543
852.410889,555
852.528687,551
852.646545,580
852.764343,551
852.88208,549
852.999939,550
853.117676,559
853.235535,532
853.353271,541
853.471069,540
853.588928,534
853.706604,534
853.824402,535
853.9422,522
854.059998,522
854.177734,545
854.295532,531
854.413269,531
854.531006,539
854.648804,550
854.766541,545
854.884277,537
855.002014,530
855.119751,529
855.237549,536
855.355225,528
855.473022,562
855.590698,546
855.708435,539
855.826172,545
855.943848,530
856.061646,535
856.179321,533
856.296997,546
856.414795,562
856.53241,517
856.650085,565
856.767822,544
856.885559,551
857.003174,534
857.120911,570
857.238586,554
857.356201,551
857.473938,525
857.591614,573
857.709351,545
857.826965,559
857.944641,540
858.062317,567
858.179993,546
858.297668,561
858.415283,561
858.532959,568
858.650574,545
858.768188,531
858.885803,560
859.003479,555
859.121094,539
859.23877,544
859.356384,559
859.473999,548
859.591675,524
859.709229,543
859.826843,510
859.944458,535
860.062012,541
860.179626,530
860.297302,527
860.414856,517
860.532471,536
860.650024,527
860.767639,516
860.885193,541
861.002808,528
861.120361,528
861.237976,532
861.35553,537
861.473022,552
861.590698,502
861.708191,511
861.825745,525
861.943298,540
862.060852,515
862.178406,524
862.295959,515
862.413513,499
862.531006,504
862.64856,506
862.766113,509
862.883667,489
863.00116,498
863.118713,517
863.236206,509
863.353699,518
863.471252,514
863.588745,511
863.706177,525
863.82373,502
863.941162,519
864.058716,537
864.176208,509
864.29364,490
864.411194,507
864.528687,515
864.646118,527
864.763611,493
864.881042,522
864.998535,511
865.116028,509
865.233459,504
865.350891,498
865.468384,507
865.585754,511
865.703308,517
865.820679,513
865.938171,492
866.055542,509
866.173035,503
866.290466,519
866.407837,494
866.52533,493
866.6427,492
866.760071,497
866.877563,492
866.994934,529
867.112305,512
867.229736,506
867.347107,520
867.464539,509
867.58197,501
867.699341,513
867.81665,514
867.934082,513
868.051453,519
868.168823,526
868.286194,524
868.403564,519
868.520935,495
868.638306,525
868.755676,509
868.872986,533
868.990295,510
869.107727,539
869.225037,534
869.342346,535
869.459717,517
869.577026,521
869.694336,547
869.811707,528
869.929016,538
870.046326,542
870.163635,539
870.280945,530
870.398254,532
870.515564,566
870.632812,542
870.750183,544
870.867432,545
870.984741,536
871.102051,543
871.219299,566
871.336609,555
871.453918,555
871.571106,565
871.688416,566
871.805664,545
871.922852,563
872.040222,545
872.157471,544
872.274719,552
872.391968,549
872.509155,551
872.626465,547
872.743652,555
872.860962,550
872.978149,537
873.095337,573
873.212646,540
873.329834,550
873.44696,543
873.564209,531
873.681396,545
873.798645,554
873.915894,543
874.03302,550
874.150208,532
874.267456,545
874.384583,556
874.501831,553
874.618958,565
874.736145,554
874.853333,547
874.970459,557
875.087646,577
875.204834,547
875.32196,548
875.439148,544
875.556274,562
875.673401,545
875.790527,564
875.907715,537
876.024841,540
876.141968,542
876.259094,524
876.376282,545
876.493347,546
876.610474,543
876.7276,528
876.844727,547
876.961853,528
877.078918,541
877.195984,535
877.313171,551
877.430237,538
877.547302,526
877.664368,534
877.781433,533
877.898499,524
878.015625,519
878.13269,517
878.249695,551
878.366821,495
878.483887,529
878.600952,511
878.717957,521
878.834961,519
878.952087,531
879.069092,511
879.186157,508
879.303162,499
879.420227,521
879.537231,498
879.654236,488
879.77124,510
879.888306,515
880.005249,501
880.122314,506
880.239319,504
880.356323,493
880.473328,507
880.590271,511
880.707275,501
880.824341,481
880.941284,499
881.058228,500
881.175232,493
881.292236,514
881.40918,510
881.526123,479
881.643066,480
881.760071,510
881.877014,495
881.993958,493
882.11084,486
882.227783,486
882.344727,509
882.46167,501
882.578613,492
882.695618,522
882.812439,492
882.929382,512
883.046326,505
883.163208,521
883.280151,512
883.397034,488
883.513916,516
883.630798,532
883.747742,511
883.864563,526
883.981506,533
884.098389,523
884.21521,525
884.332153,516
884.448975,507
884.565796,536
884.682678,520
884.7995,548
884.916443,539
885.033264,583
885.150085,572
885.266968,593
885.383789,598
885.500671,610
885.617493,620
885.734314,605
885.851196,607
885.967896,638
886.084717,617
886.201599,615
886.318359,597
886.435181,562
886.552002,594
886.668762,580
886.785645,607
886.902344,551
887.019165,593
887.135925,560
887.252747,588
887.369446,570
887.486267,557
887.603027,550
887.719788,571
887.836548,551
887.953247,537
888.070068,524
888.186829,515
888.303528,522
888.420288,501
888.536987,522
888.653687,508
888.770447,504
888.887146,510
889.003967,498
889.120667,499
889.237305,488
889.354065,492
889.470703,462
889.587463,485
889.704163,501
889.820862,477
889.937561,486
890.054199,463
890.170837,482
890.287598,486
890.404236,491
890.520874,487
890.637634,507
890.754211,464
890.87085,463
890.987549,488
891.104187,482
891.220886,498
891.337463,466
891.454102,497
891.57074,505
891.687378,466
891.804077,507
891.920654,480
892.037231,505
892.15387,473
892.270447,495
892.387085,490
892.503723,488
892.6203,481
892.736877,479
892.853516,467
892.970032,489
893.08667,471
893.203186,475
893.319763,468
893.43634,475
893.552917,497
893.669556,484
893.786011,494
893.902588,483
894.019165,468
894.135681,495
894.252197,477
894.368835,494
894.485291,488
894.601868,487
894.718384,472
894.8349,482
894.951355,485
895.067932,483
895.184448,468
895.300964,458
895.417419,471
895.533936,504
895.650452,487
895.766907,497
895.883423,469
895.999878,491
896.116333,477
896.232849,465
896.349304,479
896.465759,470
896.582214,472
896.698669,491
896.815125,478
896.931641,481
897.048035,471
897.164551,480
897.280884,479
897.397339,475
897.513794,466
897.630249,459
897.746582,490
897.863098,511
897.979431,484
898.095886,496
898.212341,482
898.328674,479
898.445129,489
898.561462,496
898.677795,473
898.794312,493
898.910645,493
899.026978,490
899.143433,480
899.259766,484
899.37616,497
899.492493,495
899.608765,494
899.725159,463
899.841553,494
899.957947,496
900.07428,483
900.190552,509
900.306946,499
900.423157,489
900.53949,471
900.655884,479
900.772156,490
900.888489,491
901.004822,500
901.121033,498
901.237366,494
901.353699,488
901.46991,517
901.586304,509
901.702515,511
901.818787,519
901.93512,508
902.051331,531
902.167603,514
902.283875,541
902.400085,545
902.516418,554
902.632629,523
902.74884,540
902.865112,549
902.981384,544
903.097595,534
903.213867,549
903.330017,526
903.446289,555
903.5625,532
903.67865,522
903.794922,546
903.911072,537
904.027344,528
904.143494,532
904.259705,485
904.375916,524
904.492065,514
904.608215,515
904.724426,482
904.840576,510
904.956726,500
905.072876,489
905.189087,501
905.305176,503
905.421387,475
905.537537,479
905.653687,485
905.769775,479
905.885925,502
906.002014,489
906.118164,478
906.234314,460
906.350403,487
906.466492,495
906.582642,461
906.69873,496
906.814758,474
906.930908,466
907.046936,483
907.163086,492
907.279175,463
907.395264,481
907.511353,470
907.62738,493
907.743408,468
907.859497,485
907.975525,458
908.091553,476
908.207703,469
908.32373,488
908.439758,478
908.555786,482
908.671814,475
908.787842,481
908.90387,482
909.019775,461
909.135864,486
909.251892,483
909.367859,506
909.483826,490
909.599854,492
909.715881,480
909.831848,475
909.947815,466
910.063782,485
910.179749,484
910.295776,486
910.411743,493
910.527649,486
910.643616,495
910.759583,477
910.875488,490
910.991455,478
911.107361,471
911.223267,473
911.339294,483
911.4552,470
911.571106,490
911.687073,459
911.802979,463
911.918823,469
912.034729,494
912.150635,454
912.266602,464
912.382446,477
912.498352,461
912.614197,463
912.730103,470
912.846008,473
792.44574,1221
792.56488,1156
792.68396,1207
792.80304,1156
792.92218,1070
793.041199,1051
793.160339,1043
793.279419,1031
793.398499,1041
793.517578,1002
793.636658,984
793.755737,931
793.874817,959
793.993896,896
794.112976,908
794.232056,864
794.351074,846
794.470215,885
794.589233,849
794.708313,823
794.827393,831
794.946411,820
795.065552,847
795.18457,800
795.303589,842
795.422668,834
795.541687,802
795.660767,772
795.779846,759
795.898865,763
796.017883,755
796.136963,746
796.255981,754
796.375061,770
796.49408,743
796.613037,735
796.732117,745
796.851135,700
796.970154,707
797.089233,714
797.208191,694
797.327271,685
797.446228,720
797.565186,694
797.684265,714
797.803223,690
797.922241,697
798.04126,682
798.160278,688
798.279297,670
798.398315,690
798.517273,665
798.636292,672
798.75531,625
798.874268,659
798.993286,641
799.112244,679
799.231323,654
799.350281,653
799.469238,696
799.588257,651
799.707153,665
799.826111,666
799.945129,655
800.064087,652
800.183044,672
800.302063,672
800.421021,643
800.539978,639
800.658936,649
800.777893,639
800.896912,645
801.015747,618
801.134705,633
801.253723,614
801.37262,648
801.491638,641
801.610535,628
801.729492,605
801.84845,602
801.967407,593
802.086243,612
802.205261,643
802.324158,600
802.443115,622
802.562073,610
802.680969,633
802.799927,599
802.918762,592
803.037659,609
803.156677,621
803.275574,602
803.39447,612
803.513428,586
803.632263,613
803.751221,586
803.870117,612
803.989014,586
804.107971,586
804.226746,599
804.345642,606
804.4646,610
804.583496,605
804.702393,593
804.821228,582
804.940125,599
805.059021,572
805.177917,580
805.296814,608
805.415649,595
805.534546,591
805.653442,555
805.772278,589
805.891113,572
806.01001,591
806.128906,599
806.247742,584
806.366577,593
806.485413,585
806.604309,584
806.723145,584
806.84198,584
806.960876,572
807.079712,583
807.198486,593
807.317383,589
807.436218,580
807.554993,584
807.673889,588
807.792725,562
807.91156,587
808.030396,563
808.14917,592
808.268005,562
808.386841,573
808.505676,570
808.624451,569
808.743286,555
808.862122,580
808.980896,567
809.099731,572
809.218506,567
809.337341,586
809.456116,570
809.57489,573
809.693726,548
809.8125,586
809.931274,551
810.050049,582
810.168884,598
810.287659,586
810.406372,572
810.525269,586
810.643982,566
810.762756,597
810.881531,560
811.000305,572
811.11908,553
811.237854,584
811.356567,592
811.475403,593
811.594116,595
811.71283,570
811.831604,586
811.950378,582
812.069153,606
812.187927,581
812.30658,576
812.425415,584
812.544128,589
812.662781,569
812.781616,577
812.900269,584
813.019043,565
813.137756,593
813.256531,563
813.375244,597
813.493896,576
813.612671,573
813.731384,552
813.850037,563
813.96875,587
814.087524,568
814.206238,532
814.324951,576
814.443604,555
814.562256,576
814.68103,558
814.799683,570
814.918335,575
815.037109,556
815.155762,558
815.274475,570
815.393188,581
815.511841,546
815.630554,563
815.749146,580
815.867859,552
815.986572,568
816.105164,563
816.223877,560
816.342529,535
816.461182,586
816.579895,568
816.698486,569
816.817139,572
816.935791,591
817.054504,585
817.173096,569
817.291748,559
817.4104,568
817.529053,586
817.647644,564
817.766235,564
817.884949,572
818.00354,565
818.122192,542
818.240845,551
818.359436,563
818.478088,556
818.59668,517
818.715271,539
818.833923,503
818.952515,534
819.071106,538
819.189758,528
819.30835,548
819.426941,526
819.545532,531
819.664124,524
819.782715,536
819.901306,516
820.019897,527
820.138489,515
820.25708,527
820.375671,526
820.494202,524
820.612732,533
820.731384,542
820.849915,518
820.968506,545
821.087097,520
821.205627,535
821.324158,508
821.442749,531
821.561279,517
821.679871,528
821.798401,507
821.916931,511
822.035461,508
822.154053,512
822.272583,530
822.391174,533
822.509583,521
822.628174,509
822.746704,506
822.865234,524
822.983765,490
823.102295,515
823.220825,504
823.339294,528
823.457825,508
823.576355,519
823.694824,499
823.813354,515
823.931885,484
824.050354,513
824.168884,504
824.287354,504
824.405823,499
824.524353,496
824.642822,533
824.761353,530
824.879822,490
824.998291,532
825.116699,528
825.235291,530
825.353699,496
825.472168,513
825.590637,491
825.709106,517
825.827576,516
825.946045,525
826.064453,509
826.182983,522
826.301392,478
826.4198,522
826.53833,502
826.656738,501
826.775208,503
826.893677,494
827.012024,482
827.130493,508
827.248962,492
827.36731,487
827.485779,526
827.604248,503
827.722595,485
827.841064,503
827.959412,516
828.077942,513
828.196289,480
828.314636,485
828.433105,494
828.551514,495
828.669861,481
828.78833,505
828.906677,500
829.025085,494
829.143433,480
829.261841,493
829.38031,501
829.498657,496
829.617004,481
829.735413,495
829.85376,480
829.972107,492
830.090515,508
830.208862,478
830.327209,498
830.445557,490
830.563904,509
830.682312,493
830.800659,479
830.919006,495
831.037354,505
831.155701,524
831.274048,485
831.392395,516
831.51062,510
831.629028,495
831.747314,494
831.865662,504
831.984009,511
832.102356,496
832.220642,518
832.338928,505
832.457275,518
832.575623,506
832.693909,511
832.812134,501
832.930481,515
833.048828,492
833.167114,492
833.2854,506
833.403687,504
833.521973,523
833.640259,484
833.758545,498
833.876831,490
833.995056,511
834.113281,485
834.231628,504
834.349915,498
834.468201,504
834.586426,505
834.704651,492
834.822998,501
834.941162,521
835.059448,499
835.177673,526
835.295959,481
835.414246,508
835.53241,493
835.650635,493
835.768921,507
835.887146,496
836.005371,506
836.123596,488
836.241821,476
836.360046,514
836.478271,497
836.596497,509
836.714722,492
836.832886,503
836.95105,473
837.069336,512
837.1875,491
837.305725,490
837.423889,522
837.542053,506
837.660339,493
837.778503,540
837.896667,502
838.014832,498
838.132996,474
838.25116,499
838.369385,512
838.487488,510
838.605713,500
838.723877,488
838.84198,501
838.960205,522
839.078308,493
839.196472,507
839.314636,510
839.4328,518
839.550964,521
839.669067,511
839.787231,527
839.905396,533
840.023499,529
840.141602,543
840.259766,541
840.377869,527
840.495972,527
840.614136,531
840.732239,554
840.850342,519
840.968445,524
841.086548,538
841.204651,538
841.322754,534
841.440918,527
841.55896,566
841.677002,556
841.795166,556
841.913208,539
842.031311,564
842.149353,549
842.267456,534
842.385498,555
842.503601,549
842.621643,546
842.739746,540
842.857788,553
842.97583,555
843.093933,537
843.211975,534
843.330017,556
843.44812,536
843.566101,520
843.684204,518
843.802246,522
843.920227,531
844.038269,517
844.156311,532
844.274292,518
844.392395,525
844.510376,557
844.628357,522
844.74646,522
844.864441,524
844.982422,535
845.100403,533
845.218384,527
845.336426,524
845.454468,529
845.572449,542
845.69043,506
845.808411,497
845.926453,509
846.044373,521
846.162354,540
846.280396,533
846.398315,522
846.516296,541
846.634216,507
846.752197,531
846.870178,547
846.988098,551
847.106079,523
847.22406,533
847.34198,521
847.4599,537
847.577881,538
847.695801,543
847.813782,522
847.931641,538
848.049561,520
848.167603,547
848.285461,545
848.403381,533
848.521362,532
848.639221,526
848.75708,526
848.875,517
848.99292,535
849.110901,547
849.22876,546
849.34668,561
849.464539,532
849.582458,540
849.700317,531
849.818176,527
849.936096,544
850.053955,523
850.171875,528
850.289673,536
850.407593,517
850.525452,524
850.643311,531
850.761169,537
850.878967,535
850.996887,526
851.114746,508
851.232544,544
851.350403,529
851.468262,508
851.58606,532
851.703979,526
851.821777,511
851.939636,549
852.057434,504
852.175232,532
852.293091,536
852.410889,557
852.528687,549
852.646545,568
852.764343,564
852.88208,562
852.999939,544
853.117676,524
853.235535,511
853.353271,554
853.471069,504
853.588928,517
853.706604,518
853.824402,533
853.9422,548
854.059998,537
854.177734,523
854.295532,533
854.413269,533
854.531006,545
854.648804,510
854.766541,528
854.884277,533
855.002014,531
855.119751,507
855.237549,543
855.355225,533
855.473022,549
855.590698,536
855.708435,534
855.826172,534
855.943848,533
856.061646,532
856.179321,532
856.296997,555
856.414795,546
856.53241,558
856.650085,546
856.767822,549
856.885559,570
857.003174,567
857.120911,575
857.238586,529
857.356201,566
857.473938,552
857.591614,566
857.709351,549
857.826965,566
857.944641,536
858.062317,561
858.179993,537
858.297668,547
858.415283,567
858.532959,545
858.650574,530
858.768188,539
858.885803,553
859.003479,552
859.121094,549
859.23877,535
859.356384,545
859.473999,549
859.591675,527
859.709229,550
859.826843,519
859.944458,525
860.062012,528
860.179626,520
860.297302,541
860.414856,529
860.532471,529
860.650024,540
860.767639,537
860.885193,529
861.002808,528
861.120361,528
861.237976,519
861.35553,540
861.473022,522
861.590698,527
861.708191,523
861.825745,533
861.943298,517
862.060852,503
862.178406,525
862.295959,512
862.413513,519
862.531006,496
862.64856,501
862.766113,511
862.883667,491
863.00116,496
863.118713,520
863.236206,492
863.353699,511
863.471252,514
863.588745,508
863.706177,520
863.82373,523
863.941162,509
864.058716,525
864.176208,527
864.29364,527
864.411194,509
864.528687,523
864.646118,528
864.763611,515
864.881042,498
864.998535,506
865.116028,510
865.233459,521
865.350891,490
865.468384,505
865.585754,507
865.703308,499
865.820679,482
865.938171,506
866.055542,525
866.173035,524
866.290466,514
866.407837,494
866.52533,510
866.6427,504
866.760071,516
866.877563,526
866.994934,516
867.112305,497
867.229736,503
867.347107,517
867.464539,530
867.58197,516
867.699341,512
867.81665,518
867.934082,511
868.051453,502
868.168823,521
868.286194,517
868.403564,509
868.520935,494
868.638306,520
868.755676,508
868.872986,513
868.990295,539
869.107727,526
869.225037,524
869.342346,520
869.459717,521
869.577026,524
869.694336,523
869.811707,527
869.929016,528
870.046326,557
870.163635,536
870.280945,541
870.398254,526
870.515564,573
870.632812,542
870.750183,557
870.867432,527
870.984741,563
871.102051,522
871.219299,545
871.336609,549
871.453918,548
871.571106,555
871.688416,553
871.805664,572
871.922852,565
872.040222,577
872.157471,566
872.274719,546
872.391968,556
872.509155,562
872.626465,539
872.743652,553
872.860962,556
872.978149,555
873.095337,559
873.212646,536
873.329834,552
873.44696,547
873.564209,549
873.681396,555
873.798645,557
873.915894,523
874.03302,535
874.150208,544
874.267456,549
874.384583,552
874.501831,569
874.618958,529
874.736145,568
874.853333,552
874.970459,570
875.087646,543
875.204834,569
875.32196,567
875.439148,555
875.556274,545
875.673401,546
875.790527,527
875.907715,539
876.024841,545
876.141968,529
876.259094,519
876.376282,530
876.493347,534
876.610474,537
876.7276,538
876.844727,538
876.961853,523
877.078918,534
877.195984,509
877.313171,543
877.430237,521
877.547302,535
877.664368,546
877.781433,561
877.898499,512
878.015625,525
878.13269,505
878.249695,538
878.366821,511
878.483887,530
878.600952,519
878.717957,509
878.834961,522
878.952087,532
879.069092,497
879.186157,519
879.303162,501
879.420227,504
879.537231,519
879.654236,511
879.77124,493
879.888306,491
880.005249,513
880.122314,521
880.239319,492
880.356323,503
880.473328,474
880.590271,530
880.707275,514
880.824341,509
880.941284,485
881.058228,504
881.175232,490
881.292236,491
881.40918,497
881.526123,489
881.643066,485
881.760071,488
881.877014,499
881.993958,512
882.11084,510
882.227783,497
882.344727,489
882.46167,522
882.578613,487
882.695618,517
882.812439,490
882.929382,511
883.046326,488
883.163208,498
883.280151,496
883.397034,492
883.513916,502
883.630798,498
883.747742,514
883.864563,503
883.981506,517
884.098389,521
884.21521,495
884.332153,532
884.448975,526
884.565796,524
884.682678,530
884.7995,563
884.916443,569
885.033264,571
885.150085,568
885.266968,571
885.383789,622
885.500671,592
885.617493,617
885.734314,607
885.851196,630
885.967896,593
886.084717,598
886.201599,611
886.318359,585
886.435181,601
886.552002,584
886.668762,607
886.785645,577
886.902344,580
887.019165,556
887.135925,571
887.252747,573
887.369446,571
887.486267,578
887.603027,553
887.719788,549
887.836548,554
887.953247,541
888.070068,529
888.186829,533
888.303528,536
888.420288,513
888.536987,521
888.653687,531
888.770447,504
888.887146,507
889.003967,499
889.120667,477
889.237305,497
889.354065,478
889.470703,492
889.587463,482
889.704163,487
889.820862,480
889.937561,485
890.054199,476
890.170837,494
890.287598,464
890.404236,461
890.520874,472
890.637634,469
890.754211,476
890.87085,490
890.987549,477
891.104187,485
891.220886,479
891.337463,485
891.454102,471
891.57074,471
891.687378,490
891.804077,487
891.920654,476
892.037231,488
892.15387,472
892.270447,470
892.387085,471
892.503723,489
892.6203,477
892.736877,485
892.853516,494
892.970032,480
893.08667,483
893.203186,481
893.319763,466
893.43634,488
893.552917,466
893.669556,483
893.786011,477
893.902588,474
894.019165,499
894.135681,491
894.252197,476
894.368835,500
894.485291,509
894.601868,490
894.718384,475
894.8349,466
894.951355,475
895.067932,495
895.184448,475
895.300964,494
895.417419,458
895.533936,483
895.650452,481
895.766907,490
895.883423,468
895.999878,477
896.116333,469
896.232849,486
896.349304,475
896.465759,480
896.582214,481
896.698669,483
896.815125,477
896.931641,503
897.048035,480
897.164551,483
897.280884,464
897.397339,493
897.513794,471
897.630249,474
897.746582,472
897.863098,475
897.979431,485
898.095886,492
898.212341,485
898.328674,479
898.445129,483
898.561462,494
898.677795,483
898.794312,504
898.910645,479
899.026978,477
899.143433,490
899.259766,469
899.37616,482
899.492493,489
899.608765,497
899.725159,507
899.841553,490
899.957947,490
900.07428,482
900.190552,498
900.306946,472
900.423157,481
900.53949,495
900.655884,485
900.772156,497
900.888489,488
901.004822,491
901.121033,499
901.237366,482
901.353699,492
901.46991,499
901.586304,519
901.702515,491
901.818787,533
901.93512,505
902.051331,518
902.167603,535
902.283875,537
902.400085,535
902.516418,545
902.632629,535
902.74884,556
902.865112,553
902.981384,559
903.097595,548
903.213867,548
903.330017,532
903.446289,527
903.5625,554
903.67865,531
903.794922,527
903.911072,528
904.027344,528
904.143494,520
904.259705,520
904.375916,511
904.492065,503
904.608215,520
904.724426,502
904.840576,495
904.956726,498
905.072876,523
905.189087,484
905.305176,490
905.421387,499
905.537537,483
905.653687,475
905.769775,507
905.885925,486
906.002014,497
906.118164,466
906.234314,479
906.350403,462
906.466492,471
906.582642,472
906.69873,491
906.814758,457
906.930908,475
907.046936,503
907.163086,479
907.279175,470
907.395264,485
907.511353,483
907.62738,481
907.743408,485
907.859497,480
907.975525,473
908.091553,500
908.207703,483
908.32373,488
908.439758,471
908.555786,482
908.671814,478
908.787842,465
908.90387,460
909.019775,464
909.135864,477
909.251892,482
909.367859,477
909.483826,491
909.599854,506
909.715881,501
909.831848,473
909.947815,490
910.063782,474
910.179749,492
910.295776,479
910.411743,491
910.527649,470
910.643616,485
910.759583,456
910.875488,496
910.991455,464
911.107361,477
911.223267,472
911.339294,474
911.4552,449
911.571106,484
911.687073,484
911.802979,475
911.918823,474
912.034729,489
912.150635,469
912.266602,487
912.382446,479
912.498352,489
912.614197,455
912.730103,470
912.846008,480
