792.44574,668
792.56488,696
792.68396,724
792.80304,702
792.92218,656
793.041199,644
793.160339,643
793.279419,659
793.398499,653
793.517578,627
793.636658,628
793.755737,652
793.874817,643
793.993896,645
794.112976,595
794.232056,657
794.351074,613
794.470215,607
794.589233,625
794.708313,608
794.827393,603
794.946411,610
795.065552,629
795.18457,623
795.303589,616
795.422668,594
795.541687,603
795.660767,603
795.779846,625
795.898865,604
796.017883,586
796.136963,584
796.255981,582
796.375061,600
796.49408,605
796.613037,613
796.732117,597
796.851135,592
796.970154,607
797.089233,578
797.208191,566
797.327271,579
797.446228,599
797.565186,595
797.684265,600
797.803223,575
797.922241,605
798.04126,595
798.160278,586
798.279297,606
798.398315,591
798.517273,595
798.636292,596
798.75531,592
798.874268,584
798.993286,588
799.112244,603
799.231323,600
799.350281,573
799.469238,589
799.588257,573
799.707153,592
799.826111,580
799.945129,572
800.064087,573
800.183044,572
800.302063,580
800.421021,575
800.539978,594
800.658936,591
800.777893,585
800.896912,597
801.015747,589
801.134705,594
801.253723,585
801.37262,591
801.491638,585
801.610535,578
801.729492,593
801.84845,601
801.967407,573
802.086243,615
802.205261,601
802.324158,575
802.443115,593
802.562073,581
802.680969,595
802.799927,592
802.918762,595
803.037659,579
803.156677,592
803.275574,592
803.39447,593
803.513428,612
803.632263,615
803.751221,607
803.870117,597
803.989014,589
804.107971,586
804.226746,617
804.345642,603
804.4646,620
804.583496,592
804.702393,592
804.821228,604
804.940125,620
805.059021,593
805.177917,604
805.296814,605
805.415649,601
805.534546,606
805.653442,614
805.772278,595
805.891113,617
806.01001,594
806.128906,599
806.247742,610
806.366577,589
806.485413,624
806.604309,604
806.723145,602
806.84198,610
806.960876,642
807.079712,603
807.198486,609
807.317383,620
807.436218,605
807.554993,615
807.673889,610
807.792725,629
807.91156,590
808.030396,622
808.14917,606
808.268005,632
808.386841,610
808.505676,633
808.624451,607
808.743286,630
808.862122,614
808.980896,623
809.099731,626
809.218506,613
809.337341,617
809.456116,614
809.57489,614
809.693726,648
809.8125,619
809.931274,645
810.050049,620
810.168884,627
810.287659,638
810.406372,629
810.525269,619
810.643982,658
810.762756,624
810.881531,620
811.000305,630
811.11908,622
811.237854,624
811.356567,635
811.475403,628
811.594116,578
811.71283,622
811.831604,634
811.950378,630
812.069153,610
812.187927,625
812.30658,658
812.425415,647
812.544128,626
812.662781,640
812.781616,631
812.900269,622
813.019043,621
813.137756,634
813.256531,631
813.375244,603
813.493896,624
813.612671,641
813.731384,611
813.850037,607
813.96875,619
814.087524,616
814.206238,598
814.324951,617
814.443604,634
814.562256,613
814.68103,634
814.799683,607
814.918335,615
815.037109,608
815.155762,606
815.274475,607
815.393188,618
815.511841,624
815.630554,617
815.749146,609
815.867859,610
815.986572,611
816.105164,607
816.223877,611
816.342529,627
816.461182,618
816.579895,599
816.698486,599
816.817139,628
816.935791,625
817.054504,626
817.173096,614
817.291748,597
817.4104,606
817.529053,602
817.647644,606
817.766235,595
817.884949,572
818.00354,579
818.122192,563
818.240845,544
818.359436,554
818.478088,575
818.59668,543
818.715271,544
818.833923,544
818.952515,515
819.071106,523
819.189758,514
819.30835,532
819.426941,494
819.545532,499
819.664124,501
819.782715,513
819.901306,520
820.019897,509
820.138489,516
820.25708,484
820.375671,495
820.494202,494
820.612732,504
820.731384,498
820.849915,508
820.968506,515
821.087097,492
821.205627,502
821.324158,512
821.442749,494
821.561279,526
821.679871,495
821.798401,491
821.916931,491
822.035461,488
822.154053,508
822.272583,493
822.391174,493
822.509583,499
822.628174,481
822.746704,493
822.865234,482
822.983765,474
823.102295,490
823.220825,463
823.339294,501
823.457825,479
823.576355,500
823.694824,477
823.813354,476
823.931885,506
824.050354,498
824.168884,500
824.287354,504
824.405823,493
824.524353,486
824.642822,497
824.761353,487
824.879822,505
824.998291,497
825.116699,507
825.235291,498
825.353699,478
825.472168,480
825.590637,494
825.709106,475
825.827576,480
825.946045,476
826.064453,478
826.182983,483
826.301392,475
826.4198,469
826.53833,477
826.656738,466
826.775208,487
826.893677,475
827.012024,465
827.130493,473
827.248962,471
827.36731,469
827.485779,445
827.604248,487
827.722595,473
827.841064,478
827.959412,466
828.077942,461
828.196289,490
828.314636,469
828.433105,462
828.551514,459
828.669861,453
828.78833,468
828.906677,466
829.025085,461
829.143433,481
829.261841,472
829.38031,463
829.498657,454
829.617004,453
829.735413,471
829.85376,469
829.972107,462
830.090515,480
830.208862,462
830.327209,473
830.445557,469
830.563904,487
830.682312,464
830.800659,438
830.919006,460
831.037354,480
831.155701,474
831.274048,458
831.392395,485
831.51062,463
831.629028,468
831.747314,466
831.865662,458
831.984009,465
832.102356,442
832.220642,455
832.338928,458
832.457275,461
832.575623,461
832.693909,469
832.812134,434
832.930481,454
833.048828,476
833.167114,479
833.2854,467
833.403687,446
833.521973,464
833.640259,475
833.758545,468
833.876831,472
833.995056,461
834.113281,458
834.231628,468
834.349915,469
834.468201,454
834.586426,449
834.704651,471
834.822998,475
834.941162,456
835.059448,449
835.177673,468
835.295959,476
835.414246,495
835.53241,462
835.650635,468
835.768921,461
835.887146,463
836.005371,451
836.123596,462
836.241821,474
836.360046,456
836.478271,469
836.596497,469
836.714722,484
836.832886,463
836.95105,466
837.069336,460
837.1875,485
837.305725,479
837.423889,491
837.542053,466
837.660339,471
837.778503,471
837.896667,473
838.014832,480
838.132996,500
838.25116,496
838.369385,467
838.487488,462
838.605713,472
838.723877,489
838.84198,437
838.960205,478
839.078308,502
839.196472,473
839.314636,472
839.4328,482
839.550964,465
839.669067,466
839.787231,486
839.905396,473
840.023499,467
840.141602,471
840.259766,493
840.377869,454
840.495972,468
840.614136,477
840.732239,471
840.850342,484
840.968445,462
841.086548,459
841.204651,479
841.322754,470
841.440918,475
841.55896,483
841.677002,459
841.795166,442
841.913208,470
842.031311,481
842.149353,469
842.267456,458
842.385498,456
842.503601,456
842.621643,445
842.739746,460
842.857788,469
842.97583,455
843.093933,478
843.211975,455
843.330017,454
843.44812,457
843.566101,472
843.684204,446
843.802246,453
843.920227,456
844.038269,455
844.156311,464
844.274292,474
844.392395,452
844.510376,481
844.628357,452
844.74646,454
844.864441,447
844.982422,465
845.100403,461
845.218384,459
845.336426,461
845.454468,450
845.572449,463
845.69043,458
845.808411,441
845.926453,444
846.044373,444
846.162354,457
846.280396,483
846.398315,454
846.516296,461
846.634216,456
846.752197,449
846.870178,455
846.988098,447
847.106079,454
847.22406,436
847.34198,457
847.4599,470
847.577881,466
847.695801,449
847.813782,473
847.931641,438
848.049561,460
848.167603,458
848.285461,456
848.403381,468
848.521362,449
848.639221,465
848.75708,434
848.875,453
848.99292,468
849.110901,446
849.22876,464
849.34668,470
849.464539,448
849.582458,464
849.700317,453
849.818176,455
849.936096,481
850.053955,428
850.171875,457
850.289673,449
850.407593,457
850.525452,472
850.643311,457
850.761169,457
850.878967,468
850.996887,453
851.114746,464
851.232544,425
851.350403,489
851.468262,462
851.58606,442
851.703979,454
851.821777,447
851.939636,457
852.057434,466
852.175232,455
852.293091,438
852.410889,446
852.528687,481
852.646545,444
852.764343,457
852.88208,449
852.999939,464
853.117676,439
853.235535,442
853.353271,469
853.471069,439
853.588928,448
853.706604,447
853.824402,452
853.9422,455
854.059998,450
854.177734,462
854.295532,452
854.413269,460
854.531006,446
854.648804,466
854.766541,446
854.884277,469
855.002014,463
855.119751,453
855.237549,468
855.355225,487
855.473022,478
855.590698,454
855.708435,452
855.826172,460
855.943848,468
856.061646,451
856.179321,470
856.296997,458
856.414795,485
856.53241,473
856.650085,466
856.767822,468
856.885559,466
857.003174,454
857.120911,463
857.238586,455
857.356201,463
857.473938,460
857.591614,464
857.709351,451
857.826965,478
857.944641,476
858.062317,462
858.179993,456
858.297668,447
858.415283,465
858.532959,464
858.650574,465
858.768188,468
858.885803,448
859.003479,475
859.121094,465
859.23877,450
859.356384,469
859.473999,457
859.591675,459
859.709229,453
859.826843,469
859.944458,457
860.062012,447
860.179626,456
860.297302,475
860.414856,456
860.532471,459
860.650024,444
860.767639,456
860.885193,459
861.002808,451
861.120361,449
861.237976,458
861.35553,473
861.473022,458
861.590698,445
861.708191,465
861.825745,443
861.943298,456
862.060852,462
862.178406,468
862.295959,439
862.413513,455
862.531006,464
862.64856,465
862.766113,485
862.883667,438
863.00116,464
863.118713,466
863.236206,455
863.353699,465
863.471252,453
863.588745,465
863.706177,456
863.82373,477
863.941162,454
864.058716,447
864.176208,454
864.29364,459
864.411194,461
864.528687,465
864.646118,467
864.763611,462
864.881042,445
864.998535,452
865.116028,452
865.233459,467
865.350891,456
865.468384,454
865.585754,446
865.703308,442
865.820679,469
865.938171,456
866.055542,445
866.173035,447
866.290466,471
866.407837,448
866.52533,468
866.6427,462
866.760071,458
866.877563,447
866.994934,462
867.112305,464
867.229736,459
867.347107,466
867.464539,464
867.58197,451
867.699341,457
867.81665,437
867.934082,449
868.051453,455
868.168823,469
868.286194,443
868.403564,463
868.520935,471
868.638306,451
868.755676,470
868.872986,472
868.990295,452
869.107727,458
869.225037,452
869.342346,456
869.459717,455
869.577026,461
869.694336,457
869.811707,470
869.929016,479
870.046326,467
870.163635,465
870.280945,468
870.398254,468
870.515564,461
870.632812,468
870.750183,457
870.867432,447
870.984741,443
871.102051,463
871.219299,466
871.336609,464
871.453918,447
871.571106,478
871.688416,438
871.805664,455
871.922852,463
872.040222,469
872.157471,452
872.274719,465
872.391968,441
872.509155,471
872.626465,463
872.743652,471
872.860962,431
872.978149,459
873.095337,446
873.212646,449
873.329834,455
873.44696,471
873.564209,462
873.681396,469
873.798645,473
873.915894,461
874.03302,461
874.150208,451
874.267456,455
874.384583,454
874.501831,467
874.618958,448
874.736145,467
874.853333,443
874.970459,450
875.087646,465
875.204834,455
875.32196,450
875.439148,444
875.556274,463
875.673401,458
875.790527,444
875.907715,457
876.024841,442
876.141968,453
876.259094,447
876.376282,448
876.493347,463
876.610474,458
876.7276,451
876.844727,463
876.961853,477
877.078918,452
877.195984,455
877.313171,464
877.430237,468
877.547302,447
877.664368,469
877.781433,471
877.898499,454
878.015625,465
878.13269,463
878.249695,462
878.366821,463
878.483887,454
878.600952,450
878.717957,465
878.834961,460
878.952087,440
879.069092,475
879.186157,459
879.303162,454
879.420227,441
879.537231,465
879.654236,464
879.77124,449
879.888306,446
880.005249,438
880.122314,461
880.239319,475
880.356323,467
880.473328,450
880.590271,478
880.707275,452
880.824341,451
880.941284,460
881.058228,455
881.175232,449
881.292236,461
881.40918,460
881.526123,442
881.643066,447
881.760071,464
881.877014,474
881.993958,442
882.11084,447
882.227783,468
882.344727,453
882.46167,468
882.578613,461
882.695618,456
882.812439,470
882.929382,446
883.046326,444
883.163208,459
883.280151,452
883.397034,470
883.513916,464
883.630798,449
883.747742,453
883.864563,453
883.981506,469
884.098389,453
884.21521,482
884.332153,476
884.448975,452
884.565796,441
884.682678,450
884.7995,462
884.916443,447
885.033264,446
885.150085,456
885.266968,458
885.383789,469
885.500671,469
885.617493,473
885.734314,466
885.851196,468
885.967896,479
886.084717,466
886.201599,448
886.318359,464
886.435181,442
886.552002,482
886.668762,433
886.785645,475
886.902344,455
887.019165,477
887.135925,470
887.252747,464
887.369446,468
887.486267,470
887.603027,462
887.719788,452
887.836548,469
887.953247,456
888.070068,466
888.186829,464
888.303528,459
888.420288,471
888.536987,455
888.653687,444
888.770447,460
888.887146,464
889.003967,451
889.120667,457
889.237305,433
889.354065,463
889.470703,469
889.587463,486
889.704163,447
889.820862,443
889.937561,458
890.054199,458
890.170837,469
890.287598,448
890.404236,459
890.520874,465
890.637634,452
890.754211,454
890.87085,449
890.987549,463
891.104187,439
891.220886,445
891.337463,447
891.454102,450
891.57074,447
891.687378,466
891.804077,460
891.920654,466
892.037231,450
892.15387,457
892.270447,457
892.387085,461
892.503723,454
892.6203,474
892.736877,461
892.853516,467
892.970032,459
893.08667,466
893.203186,460
893.319763,470
893.43634,460
893.552917,451
893.669556,447
893.786011,471
893.902588,462
894.019165,451
894.135681,455
894.252197,488
894.368835,458
894.485291,477
894.601868,466
894.718384,444
894.8349,447
894.951355,486
895.067932,445
895.184448,461
895.300964,469
895.417419,471
895.533936,467
895.650452,457
895.766907,439
895.883423,479
895.999878,450
896.116333,460
896.232849,449
896.349304,462
896.465759,467
896.582214,454
896.698669,453
896.815125,464
896.931641,444
897.048035,450
897.164551,443
897.280884,483
897.397339,448
897.513794,463
897.630249,475
897.746582,465
897.863098,472
897.979431,473
898.095886,467
898.212341,455
898.328674,472
898.445129,474
898.561462,465
898.677795,470
898.794312,452
898.910645,451
899.026978,479
899.143433,445
899.259766,470
899.37616,483
899.492493,446
899.608765,460
899.725159,446
899.841553,459
899.957947,457
900.07428,470
900.190552,463
900.306946,449
900.423157,472
900.53949,467
900.655884,451
900.772156,465
900.888489,449
901.004822,449
901.121033,472
901.237366,460
901.353699,450
901.46991,463
901.586304,456
901.702515,474
901.818787,448
901.93512,477
902.051331,452
902.167603,456
902.283875,470
902.400085,471
902.516418,483
902.632629,479
902.74884,476
902.865112,484
902.981384,471
903.097595,475
903.213867,471
903.330017,491
903.446289,486
903.5625,472
903.67865,490
903.794922,468
903.911072,479
904.027344,475
904.143494,465
904.259705,473
904.375916,464
904.492065,461
904.608215,468
904.724426,463
904.840576,476
904.956726,461
905.072876,466
905.189087,460
905.305176,482
905.421387,463
905.537537,460
905.653687,480
905.769775,472
905.885925,479
906.002014,464
906.118164,474
906.234314,460
906.350403,471
906.466492,460
906.582642,485
906.69873,462
906.814758,455
906.930908,482
907.046936,483
907.163086,477
907.279175,491
907.395264,463
907.511353,465
907.62738,456
907.743408,463
907.859497,470
907.975525,471
908.091553,458
908.207703,464
908.32373,454
908.439758,483
908.555786,460
908.671814,439
908.787842,462
908.90387,475
909.019775,472
909.135864,462
909.251892,469
909.367859,449
909.483826,449
909.599854,477
909.715881,459
909.831848,471
909.947815,458
910.063782,465
910.179749,466
910.295776,462
910.411743,488
910.527649,473
910.643616,470
910.759583,471
910.875488,483
910.991455,461
911.107361,458
911.223267,457
911.339294,486
911.4552,459
911.571106,474
911.687073,474
911.802979,451
911.918823,469
912.034729,466
912.150635,471
912.266602,469
912.382446,461
912.498352,463
912.614197,481
912.730103,474
912.846008,485
792.44574,666
792.56488,710
792.68396,731
792.80304,687
792.92218,635
793.041199,662
793.160339,655
793.279419,684
793.398499,620
793.517578,659
793.636658,639
793.755737,650
793.874817,635
793.993896,685
794.112976,641
794.232056,632
794.351074,626
794.470215,639
794.589233,618
794.708313,620
794.827393,582
794.946411,629
795.065552,614
795.18457,600
795.303589,619
795.422668,612
795.541687,600
795.660767,593
795.779846,627
795.898865,620
796.017883,599
796.136963,642
796.255981,595
796.375061,605
796.49408,618
796.613037,596
796.732117,577
796.851135,614
796.970154,593
797.089233,598
797.208191,588
797.327271,610
797.446228,585
797.565186,597
797.684265,595
797.803223,606
797.922241,588
798.04126,582
798.160278,599
798.279297,603
798.398315,576
798.517273,607
798.636292,606
798.75531,583
798.874268,606
798.993286,563
799.112244,585
799.231323,587
799.350281,585
799.469238,599
799.588257,598
799.707153,601
799.826111,585
799.945129,591
800.064087,606
800.183044,585
800.302063,597
800.421021,561
800.539978,566
800.658936,602
800.777893,557
800.896912,588
801.015747,584
801.134705,602
801.253723,577
801.37262,603
801.491638,598
801.610535,599
801.729492,578
801.84845,605
801.967407,577
802.086243,615
802.205261,589
802.324158,618
802.443115,585
802.562073,606
802.680969,599
802.799927,578
802.918762,614
803.037659,592
803.156677,583
803.275574,616
803.39447,607
803.513428,612
803.632263,583
803.751221,585
803.870117,601
803.989014,610
804.107971,594
804.226746,616
804.345642,622
804.4646,621
804.583496,609
804.702393,616
804.821228,566
804.940125,596
805.059021,599
805.177917,611
805.296814,586
805.415649,616
805.534546,630
805.653442,600
805.772278,632
805.891113,621
806.01001,607
806.128906,610
806.247742,618
806.366577,603
806.485413,611
806.604309,601
806.723145,608
806.84198,600
806.960876,621
807.079712,627
807.198486,615
807.317383,628
807.436218,627
807.554993,626
807.673889,616
807.792725,623
807.91156,607
808.030396,636
808.14917,627
808.268005,607
808.386841,602
808.505676,619
808.624451,615
808.743286,626
808.862122,653
808.980896,622
809.099731,612
809.218506,636
809.337341,626
809.456116,630
809.57489,600
809.693726,627
809.8125,636
809.931274,643
810.050049,625
810.168884,635
810.287659,644
810.406372,646
810.525269,622
810.643982,627
810.762756,636
810.881531,640
811.000305,628
811.11908,667
811.237854,611
811.356567,628
811.475403,621
811.594116,626
811.71283,638
811.831604,641
811.950378,626
812.069153,626
812.187927,614
812.30658,606
812.425415,630
812.544128,653
812.662781,622
812.781616,619
812.900269,661
813.019043,630
813.137756,624
813.256531,638
813.375244,665
813.493896,620
813.612671,635
813.731384,636
813.850037,623
813.96875,626
814.087524,622
814.206238,616
814.324951,640
814.443604,620
814.562256,613
814.68103,639
814.799683,616
814.918335,634
815.037109,643
815.155762,644
815.274475,636
815.393188,609
815.511841,630
815.630554,617
815.749146,619
815.867859,620
815.986572,647
816.105164,612
816.223877,579
816.342529,632
816.461182,647
816.579895,628
816.698486,625
816.817139,591
816.935791,605
817.054504,628
817.173096,589
817.291748,600
817.4104,611
817.529053,615
817.647644,596
817.766235,601
817.884949,587
818.00354,572
818.122192,585
818.240845,545
818.359436,547
818.478088,556
818.59668,540
818.715271,555
818.833923,524
818.952515,538
819.071106,548
819.189758,530
819.30835,519
819.426941,533
819.545532,499
819.664124,503
819.782715,512
819.901306,527
820.019897,493
820.138489,485
820.25708,512
820.375671,523
820.494202,518
820.612732,514
820.731384,512
820.849915,503
820.968506,490
821.087097,493
821.205627,488
821.324158,487
821.442749,486
821.561279,505
821.679871,487
821.798401,481
821.916931,484
822.035461,501
822.154053,490
822.272583,495
822.391174,476
822.509583,489
822.628174,498
822.746704,495
822.865234,483
822.983765,492
823.102295,478
823.220825,505
823.339294,486
823.457825,495
823.576355,482
823.694824,493
823.813354,472
823.931885,504
824.050354,498
824.168884,498
824.287354,487
824.405823,470
824.524353,482
824.642822,514
824.761353,503
824.879822,492
824.998291,507
825.116699,492
825.235291,481
825.353699,478
825.472168,474
825.590637,469
825.709106,495
825.827576,486
825.946045,491
826.064453,490
826.182983,497
826.301392,490
826.4198,476
826.53833,474
826.656738,450
826.775208,490
826.893677,460
827.012024,476
827.130493,457
827.248962,475
827.36731,459
827.485779,494
827.604248,487
827.722595,472
827.841064,458
827.959412,469
828.077942,475
828.196289,486
828.314636,461
828.433105,474
828.551514,456
828.669861,482
828.78833,468
828.906677,467
829.025085,451
829.143433,452
829.261841,465
829.38031,477
829.498657,469
829.617004,458
829.735413,470
829.85376,470
829.972107,457
830.090515,479
830.208862,470
830.327209,446
830.445557,464
830.563904,479
830.682312,468
830.800659,456
830.919006,486
831.037354,465
831.155701,486
831.274048,466
831.392395,448
831.51062,474
831.629028,479
831.747314,466
831.865662,459
831.984009,469
832.102356,469
832.220642,467
832.338928,472
832.457275,458
832.575623,477
832.693909,468
832.812134,438
832.930481,478
833.048828,465
833.167114,464
833.2854,464
833.403687,504
833.521973,465
833.640259,455
833.758545,460
833.876831,484
833.995056,466
834.113281,465
834.231628,480
834.349915,465
834.468201,456
834.586426,480
834.704651,489
834.822998,472
834.941162,466
835.059448,469
835.177673,461
835.295959,470
835.414246,472
835.53241,460
835.650635,470
835.768921,459
835.887146,483
836.005371,473
836.123596,445
836.241821,459
836.360046,467
836.478271,482
836.596497,471
836.714722,481
836.832886,486
836.95105,468
837.069336,490
837.1875,481
837.305725,474
837.423889,486
837.542053,474
837.660339,480
837.778503,501
837.896667,483
838.014832,484
838.132996,470
838.25116,507
838.369385,469
838.487488,488
838.605713,487
838.723877,473
838.84198,493
838.960205,460
839.078308,483
839.196472,481
839.314636,469
839.4328,462
839.550964,487
839.669067,463
839.787231,474
839.905396,488
840.023499,478
840.141602,477
840.259766,492
840.377869,480
840.495972,462
840.614136,456
840.732239,481
840.850342,476
840.968445,514
841.086548,464
841.204651,466
841.322754,474
841.440918,470
841.55896,476
841.677002,463
841.795166,486
841.913208,460
842.031311,488
842.149353,469
842.267456,454
842.385498,480
842.503601,459
842.621643,460
842.739746,457
842.857788,464
842.97583,437
843.093933,458
843.211975,456
843.330017,455
843.44812,479
843.566101,450
843.684204,481
843.802246,463
843.920227,472
844.038269,463
844.156311,463
844.274292,471
844.392395,464
844.510376,466
844.628357,443
844.74646,476
844.864441,459
844.982422,466
845.100403,461
845.218384,460
845.336426,479
845.454468,478
845.572449,469
845.69043,467
845.808411,449
845.926453,456
846.044373,451
846.162354,440
846.280396,460
846.398315,468
846.516296,473
846.634216,465
846.752197,460
846.870178,457
846.988098,455
847.106079,465
847.22406,462
847.34198,463
847.4599,456
847.577881,459
847.695801,473
847.813782,452
847.931641,444
848.049561,451
848.167603,452
848.285461,452
848.403381,451
848.521362,450
848.639221,468
848.75708,441
848.875,464
848.99292,455
849.110901,459
849.22876,449
849.34668,473
849.464539,471
849.582458,457
849.700317,448
849.818176,452
849.936096,452
850.053955,474
850.171875,460
850.289673,449
850.407593,463
850.525452,448
850.643311,434
850.761169,442
850.878967,446
850.996887,490
851.114746,453
851.232544,466
851.350403,450
851.468262,447
851.58606,473
851.703979,462
851.821777,474
851.939636,459
852.057434,456
852.175232,456
852.293091,479
852.410889,452
852.528687,448
852.646545,463
852.764343,480
852.88208,458
852.999939,477
853.117676,449
853.235535,456
853.353271,458
853.471069,481
853.588928,452
853.706604,476
853.824402,453
853.9422,460
854.059998,463
854.177734,471
854.295532,463
854.413269,453
854.531006,465
854.648804,468
854.766541,481
854.884277,466
855.002014,454
855.119751,459
855.237549,461
855.355225,481
855.473022,470
855.590698,456
855.708435,462
855.826172,459
855.943848,452
856.061646,461
856.179321,461
856.296997,457
856.414795,464
856.53241,491
856.650085,455
856.767822,472
856.885559,459
857.003174,472
857.120911,474
857.238586,473
857.356201,474
857.473938,473
857.591614,468
857.709351,464
857.826965,452
857.944641,462
858.062317,459
858.179993,461
858.297668,462
858.415283,460
858.532959,459
858.650574,446
858.768188,464
858.885803,469
859.003479,470
859.121094,464
859.23877,455
859.356384,455
859.473999,475
859.591675,470
859.709229,442
859.826843,446
859.944458,462
860.062012,483
860.179626,467
860.297302,455
860.414856,448
860.532471,464
860.650024,465
860.767639,463
860.885193,459
861.002808,448
861.120361,454
861.237976,480
861.35553,479
861.473022,464
861.590698,474
861.708191,469
861.825745,457
861.943298,453
862.060852,455
862.178406,471
862.295959,482
862.413513,460
862.531006,458
862.64856,461
862.766113,450
862.883667,461
863.00116,454
863.118713,463
863.236206,464
863.353699,476
863.471252,479
863.588745,484
863.706177,472
863.82373,455
863.941162,462
864.058716,454
864.176208,450
864.29364,473
864.411194,437
864.528687,478
864.646118,444
864.763611,465
864.881042,442
864.998535,457
865.116028,455
865.233459,437
865.350891,461
865.468384,463
865.585754,465
865.703308,468
865.820679,451
865.938171,458
866.055542,440
866.173035,465
866.290466,459
866.407837,461
866.52533,465
866.6427,453
866.760071,464
866.877563,488
866.994934,466
867.112305,466
867.229736,451
867.347107,474
867.464539,466
867.58197,466
867.699341,452
867.81665,466
867.934082,469
868.051453,486
868.168823,455
868.286194,467
868.403564,470
868.520935,457
868.638306,455
868.755676,453
868.872986,466
868.990295,453
869.107727,479
869.225037,470
869.342346,454
869.459717,451
869.577026,483
869.694336,465
869.811707,474
869.929016,470
870.046326,437
870.163635,449
870.280945,454
870.398254,473
870.515564,451
870.632812,468
870.750183,472
870.867432,476
870.984741,463
871.102051,474
871.219299,460
871.336609,471
871.453918,455
871.571106,470
871.688416,461
871.805664,470
871.922852,443
872.040222,471
872.157471,477
872.274719,482
872.391968,476
872.509155,484
872.626465,466
872.743652,462
872.860962,464
872.978149,466
873.095337,461
873.212646,473
873.329834,450
873.44696,484
873.564209,458
873.681396,459
873.798645,459
873.915894,479
874.03302,475
874.150208,476
874.267456,464
874.384583,441
874.501831,476
874.618958,443
874.736145,460
874.853333,486
874.970459,463
875.087646,463
875.204834,459
875.32196,457
875.439148,466
875.556274,460
875.673401,469
875.790527,456
875.907715,467
876.024841,462
876.141968,443
876.259094,480
876.376282,469
876.493347,473
876.610474,457
876.7276,471
876.844727,448
876.961853,481
877.078918,451
877.195984,446
877.313171,461
877.430237,460
877.547302,479
877.664368,462
877.781433,439
877.898499,460
878.015625,488
878.13269,448
878.249695,469
878.366821,450
878.483887,452
878.600952,471
878.717957,460
878.834961,457
878.952087,454
879.069092,453
879.186157,472
879.303162,453
879.420227,459
879.537231,451
879.654236,429
879.77124,471
879.888306,464
880.005249,454
880.122314,454
880.239319,447
880.356323,470
880.473328,451
880.590271,477
880.707275,462
880.824341,449
880.941284,465
881.058228,454
881.175232,469
881.292236,462
881.40918,451
881.526123,464
881.643066,471
881.760071,448
881.877014,441
881.993958,459
882.11084,476
882.227783,470
882.344727,476
882.46167,451
882.578613,443
882.695618,449
882.812439,469
882.929382,454
883.046326,467
883.163208,464
883.280151,450
883.397034,446
883.513916,473
883.630798,457
883.747742,460
883.864563,452
883.981506,480
884.098389,471
884.21521,472
884.332153,459
884.448975,466
884.565796,448
884.682678,460
884.7995,470
884.916443,454
885.033264,469
885.150085,472
885.266968,484
885.383789,496
885.500671,452
885.617493,482
885.734314,463
885.851196,480
885.967896,459
886.084717,452
886.201599,477
886.318359,493
886.435181,482
886.552002,483
886.668762,461
886.785645,473
886.902344,488
887.019165,465
887.135925,475
887.252747,459
887.369446,471
887.486267,461
887.603027,462
887.719788,479
887.836548,452
887.953247,472
888.070068,459
888.186829,461
888.303528,469
888.420288,468
888.536987,462
888.653687,483
888.770447,471
888.887146,465
889.003967,453
889.120667,464
889.237305,452
889.354065,487
889.470703,459
889.587463,475
889.704163,453
889.820862,439
889.937561,488
890.054199,472
890.170837,454
890.287598,463
890.404236,452
890.520874,472
890.637634,456
890.754211,455
890.87085,458
890.987549,466
891.104187,469
891.220886,461
891.337463,474
891.454102,464
891.57074,459
891.687378,485
891.804077,441
891.920654,475
892.037231,463
892.15387,459
892.270447,481
892.387085,472
892.503723,468
892.6203,464
892.736877,465
892.853516,464
892.970032,446
893.08667,464
893.203186,443
893.319763,486
893.43634,464
893.552917,465
893.669556,464
893.786011,471
893.902588,454
894.019165,476
894.135681,473
894.252197,478
894.368835,485
894.485291,477
894.601868,470
894.718384,483
894.8349,474
894.951355,471
895.067932,484
895.184448,473
895.300964,481
895.417419,461
895.533936,461
895.650452,487
895.766907,465
895.883423,466
895.999878,454
896.116333,451
896.232849,461
896.349304,481
896.465759,474
896.582214,475
896.698669,465
896.815125,468
896.931641,456
897.048035,471
897.164551,467
897.280884,469
897.397339,456
897.513794,478
897.630249,472
897.746582,468
897.863098,470
897.979431,440
898.095886,466
898.212341,474
898.328674,473
898.445129,460
898.561462,461
898.677795,475
898.794312,464
898.910645,461
899.026978,459
899.143433,481
899.259766,463
899.37616,483
899.492493,471
899.608765,456
899.725159,476
899.841553,466
899.957947,477
900.07428,480
900.190552,462
900.306946,466
900.423157,482
900.53949,457
900.655884,457
900.772156,478
900.888489,448
901.004822,471
901.121033,452
901.237366,476
901.353699,471
901.46991,477
901.586304,475
901.702515,471
901.818787,463
901.93512,476
902.051331,459
902.167603,466
902.283875,478
902.400085,481
902.516418,472
902.632629,486
902.74884,484
902.865112,483
902.981384,475
903.097595,486
903.213867,473
903.330017,474
903.446289,475
903.5625,470
903.67865,477
903.794922,470
903.911072,467
904.027344,475
904.143494,475
904.259705,488
904.375916,473
904.492065,471
904.608215,485
904.724426,470
904.840576,459
904.956726,457
905.072876,473
905.189087,471
905.305176,473
905.421387,479
905.537537,476
905.653687,481
905.769775,465
905.885925,494
906.002014,484
906.118164,466
906.234314,479
906.350403,467
906.466492,454
906.582642,457
906.69873,469
906.814758,452
906.930908,461
907.046936,458
907.163086,476
907.279175,476
907.395264,470
907.511353,492
907.62738,476
907.743408,486
907.859497,462
907.975525,488
908.091553,470
908.207703,479
908.32373,461
908.439758,481
908.555786,460
908.671814,477
908.787842,464
908.90387,487
909.019775,472
909.135864,485
909.251892,499
909.367859,453
909.483826,479
909.599854,479
909.715881,472
909.831848,482
909.947815,473
910.063782,479
910.179749,465
910.295776,483
910.411743,469
910.527649,483
910.643616,477
910.759583,473
910.875488,446
910.991455,466
911.107361,479
911.223267,467
911.339294,486
911.4552,477
911.571106,468
911.687073,482
911.802979,471
911.918823,458
912.034729,484
912.150635,465
912.266602,464
912.382446,467
912.498352,483
912.614197,462
912.730103,466
912.846008,456
792.44574,675
792.56488,708
792.68396,718
792.80304,717
792.92218,685
793.041199,618
793.160339,684
793.279419,657
793.398499,647
793.517578,627
793.636658,670
793.755737,641
793.874817,667
793.993896,648
794.112976,649
794.232056,621
794.351074,616
794.470215,618
794.589233,620
794.708313,609
794.827393,607
794.946411,619
795.065552,631
795.18457,644
795.303589,605
795.422668,591
795.541687,622
795.660767,617
795.779846,617
795.898865,598
796.017883,633
796.136963,619
796.255981,603
796.375061,610
796.49408,606
796.613037,614
796.732117,596
796.851135,573
796.970154,572
797.089233,601
797.208191,607
797.327271,583
797.446228,609
797.565186,591
797.684265,601
797.803223,598
797.922241,592
798.04126,579
798.160278,591
798.279297,584
798.398315,580
798.517273,584
798.636292,591
798.75531,609
798.874268,590
798.993286,590
799.112244,585
799.231323,570
799.350281,577
799.469238,601
799.588257,598
799.707153,584
799.826111,594
799.945129,603
800.064087,600
800.183044,596
800.302063,600
800.421021,579
800.539978,590
800.658936,601
800.777893,589
800.896912,566
801.015747,581
801.134705,584
801.253723,603
801.37262,585
801.491638,588
801.610535,606
801.729492,595
801.84845,600
801.967407,586
802.086243,591
802.205261,591
802.324158,596
802.443115,603
802.562073,612
802.680969,590
802.799927,606
802.918762,580
803.037659,565
803.156677,608
803.275574,593
803.39447,586
803.513428,588
803.632263,616
803.751221,600
803.870117,595
803.989014,620
804.107971,603
804.226746,612
804.345642,611
804.4646,612
804.583496,590
804.702393,608
804.821228,635
804.940125,601
805.059021,613
805.177917,618
805.296814,612
805.415649,626
805.534546,632
805.653442,605
805.772278,582
805.891113,625
806.01001,600
806.128906,586
806.247742,624
806.366577,609
806.485413,611
806.604309,635
806.723145,617
806.84198,621
806.960876,592
807.079712,636
807.198486,625
807.317383,590
807.436218,582
807.554993,617
807.673889,620
807.792725,627
807.91156,607
808.030396,626
808.14917,606
808.268005,623
808.386841,624
808.505676,629
808.624451,622
808.743286,609
808.862122,615
808.980896,622
809.099731,626
809.218506,614
809.337341,636
809.456116,607
809.57489,651
809.693726,621
809.8125,618
809.931274,627
810.050049,635
810.168884,639
810.287659,636
810.406372,629
810.525269,635
810.643982,634
810.762756,616
810.881531,606
811.000305,627
811.11908,627
811.237854,644
811.356567,616
811.475403,668
811.594116,624
811.71283,622
811.831604,616
811.950378,654
812.069153,634
812.187927,632
812.30658,618
812.425415,625
812.544128,640
812.662781,634
812.781616,659
812.900269,623
813.019043,592
813.137756,675
813.256531,623
813.375244,628
813.493896,626
813.612671,639
813.731384,633
813.850037,621
813.96875,602
814.087524,627
814.206238,626
814.324951,624
814.443604,639
814.562256,626
814.68103,637
814.799683,611
814.918335,628
815.037109,632
815.155762,615
815.274475,624
815.393188,627
815.511841,623
815.630554,618
815.749146,635
815.867859,612
815.986572,630
816.105164,615
816.223877,622
816.342529,601
816.461182,626
816.579895,601
816.698486,632
816.817139,617
816.935791,614
817.054504,629
817.173096,615
817.291748,624
817.4104,606
817.529053,600
817.647644,574
817.766235,594
817.884949,583
818.00354,576
818.122192,563
818.240845,562
818.359436,546
818.478088,547
818.59668,548
818.715271,521
818.833923,540
818.952515,519
819.071106,555
819.189758,520
819.30835,544
819.426941,510
819.545532,503
819.664124,507
819.782715,512
819.901306,509
820.019897,507
820.138489,485
820.25708,511
820.375671,493
820.494202,507
820.612732,515
820.731384,488
820.849915,505
820.968506,494
821.087097,504
821.205627,481
821.324158,497
821.442749,493
821.561279,469
821.679871,491
821.798401,516
821.916931,501
822.035461,481
822.154053,486
822.272583,471
822.391174,485
822.509583,481
822.628174,494
822.746704,493
822.865234,492
822.983765,480
823.102295,463
823.220825,493
823.339294,481
823.457825,481
823.576355,494
823.694824,498
823.813354,493
823.931885,493
824.050354,507
824.168884,477
824.287354,492
824.405823,505
824.524353,486
824.642822,507
824.761353,506
824.879822,503
824.998291,494
825.116699,493
825.235291,483
825.353699,492
825.472168,476
825.590637,505
825.709106,492
825.827576,452
825.946045,474
826.064453,474
826.182983,492
826.301392,475
826.4198,496
826.53833,492
826.656738,471
826.775208,471
826.893677,497
827.012024,480
827.130493,471
827.248962,463
827.36731,464
827.485779,485
827.604248,452
827.722595,469
827.841064,492
827.959412,462
828.077942,472
828.196289,476
828.314636,489
828.433105,471
828.551514,467
828.669861,482
828.78833,471
828.906677,470
829.025085,481
829.143433,461
829.261841,464
829.38031,467
829.498657,459
829.617004,460
829.735413,483
829.85376,477
829.972107,468
830.090515,463
830.208862,469
830.327209,464
830.445557,473
830.563904,464
830.682312,468
830.800659,468
830.919006,477
831.037354,463
831.155701,457
831.274048,449
831.392395,462
831.51062,470
831.629028,454
831.747314,473
831.865662,469
831.984009,470
832.102356,480
832.220642,478
832.338928,476
832.457275,454
832.575623,474
832.693909,442
832.812134,466
832.930481,459
833.048828,478
833.167114,457
833.2854,459
833.403687,469
833.521973,457
833.640259,462
833.758545,454
833.876831,462
833.995056,476
834.113281,469
834.231628,457
834.349915,457
834.468201,469
834.586426,476
834.704651,455
834.822998,478
834.941162,450
835.059448,473
835.177673,477
835.295959,460
835.414246,467
835.53241,484
835.650635,464
835.768921,473
835.887146,463
836.005371,455
836.123596,466
836.241821,467
836.360046,471
836.478271,486
836.596497,473
836.714722,475
836.832886,481
836.95105,479
837.069336,485
837.1875,476
837.305725,485
837.423889,483
837.542053,476
837.660339,479
837.778503,474
837.896667,477
838.014832,477
838.132996,486
838.25116,475
838.369385,472
838.487488,478
838.605713,471
838.723877,463
838.84198,488
838.960205,484
839.078308,469
839.196472,483
839.314636,455
839.4328,483
839.550964,472
839.669067,474
839.787231,492
839.905396,474
840.023499,467
840.141602,479
840.259766,454
840.377869,485
840.495972,482
840.614136,470
840.732239,485
840.850342,493
840.968445,490
841.086548,484
841.204651,479
841.322754,484
841.440918,471
841.55896,467
841.677002,489
841.795166,453
841.913208,466
842.031311,470
842.149353,461
842.267456,476
842.385498,461
842.503601,468
842.621643,451
842.739746,467
842.857788,484
842.97583,442
843.093933,460
843.211975,476
843.330017,480
843.44812,468
843.566101,447
843.684204,466
843.802246,466
843.920227,463
844.038269,480
844.156311,447
844.274292,459
844.392395,470
844.510376,461
844.628357,458
844.74646,475
844.864441,449
844.982422,447
845.100403,473
845.218384,459
845.336426,476
845.454468,464
845.572449,460
845.69043,463
845.808411,465
845.926453,455
846.044373,462
846.162354,449
846.280396,458
846.398315,459
846.516296,478
846.634216,452
846.752197,462
846.870178,457
846.988098,447
847.106079,457
847.22406,459
847.34198,448
847.4599,477
847.577881,444
847.695801,467
847.813782,453
847.931641,460
848.049561,450
848.167603,461
848.285461,436
848.403381,457
848.521362,459
848.639221,460
848.75708,439
848.875,455
848.99292,468
849.110901,471
849.22876,458
849.34668,444
849.464539,464
849.582458,474
849.700317,460
849.818176,454
849.936096,465
850.053955,466
850.171875,449
850.289673,486
850.407593,452
850.525452,441
850.643311,453
850.761169,470
850.878967,442
850.996887,450
851.114746,443
851.232544,444
851.350403,458
851.468262,448
851.58606,467
851.703979,457
851.821777,465
851.939636,446
852.057434,457
852.175232,464
852.293091,450
852.410889,468
852.528687,467
852.646545,467
852.764343,461
852.88208,468
852.999939,451
853.117676,454
853.235535,457
853.353271,462
853.471069,465
853.588928,454
853.706604,461
853.824402,480
853.9422,443
854.059998,444
854.177734,468
854.295532,463
854.413269,453
854.531006,468
854.648804,441
854.766541,463
854.884277,462
855.002014,462
855.119751,461
855.237549,481
855.355225,463
855.473022,459
855.590698,463
855.708435,472
855.826172,463
855.943848,467
856.061646,461
856.179321,465
856.296997,468
856.414795,466
856.53241,472
856.650085,469
856.767822,464
856.885559,459
857.003174,460
857.120911,454
857.238586,455
857.356201,463
857.473938,464
857.591614,466
857.709351,469
857.826965,455
857.944641,452
858.062317,471
858.179993,459
858.297668,478
858.415283,461
858.532959,445
858.650574,464
858.768188,466
858.885803,476
859.003479,455
859.121094,459
859.23877,487
859.356384,470
859.473999,453
859.591675,470
859.709229,452
859.826843,453
859.944458,477
860.062012,460
860.179626,477
860.297302,469
860.414856,451
860.532471,436
860.650024,459
860.767639,457
860.885193,454
861.002808,446
861.120361,460
861.237976,462
861.35553,444
861.473022,465
861.590698,480
861.708191,453
861.825745,462
861.943298,446
862.060852,455
862.178406,451
862.295959,462
862.413513,423
862.531006,458
862.64856,465
862.766113,457
862.883667,457
863.00116,458
863.118713,439
863.236206,470
863.353699,452
863.471252,472
863.588745,456
863.706177,470
863.82373,465
863.941162,454
864.058716,465
864.176208,457
864.29364,448
864.411194,470
864.528687,467
864.646118,472
864.763611,469
864.881042,452
864.998535,457
865.116028,456
865.233459,446
865.350891,475
865.468384,440
865.585754,450
865.703308,468
865.820679,454
865.938171,458
866.055542,471
866.173035,457
866.290466,460
866.407837,474
866.52533,458
866.6427,461
866.760071,468
866.877563,444
866.994934,493
867.112305,460
867.229736,483
867.347107,460
867.464539,454
867.58197,460
867.699341,454
867.81665,457
867.934082,450
868.051453,466
868.168823,459
868.286194,460
868.403564,466
868.520935,449
868.638306,456
868.755676,465
868.872986,480
868.990295,467
869.107727,460
869.225037,445
869.342346,445
869.459717,454
869.577026,471
869.694336,475
869.811707,479
869.929016,466
870.046326,462
870.163635,473
870.280945,459
870.398254,465
870.515564,455
870.632812,458
870.750183,478
870.867432,445
870.984741,463
871.102051,464
871.219299,481
871.336609,457
871.453918,476
871.571106,463
871.688416,459
871.805664,451
871.922852,476
872.040222,461
872.157471,463
872.274719,468
872.391968,457
872.509155,456
872.626465,458
872.743652,442
872.860962,477
872.978149,471
873.095337,468
873.212646,458
873.329834,470
873.44696,449
873.564209,462
873.681396,457
873.798645,467
873.915894,475
874.03302,476
874.150208,470
874.267456,472
874.384583,468
874.501831,472
874.618958,481
874.736145,463
874.853333,462
874.970459,462
875.087646,491
875.204834,464
875.32196,455
875.439148,475
875.556274,463
875.673401,484
875.790527,466
875.907715,474
876.024841,452
876.141968,462
876.259094,460
876.376282,455
876.493347,470
876.610474,463
876.7276,469
876.844727,462
876.961853,450
877.078918,461
877.195984,450
877.313171,468
877.430237,454
877.547302,461
877.664368,468
877.781433,466
877.898499,462
878.015625,445
878.13269,470
878.249695,461
878.366821,428
878.483887,459
878.600952,481
878.717957,474
878.834961,463
878.952087,483
879.069092,451
879.186157,476
879.303162,441
879.420227,470
879.537231,451
879.654236,450
879.77124,480
879.888306,447
880.005249,448
880.122314,471
880.239319,461
880.356323,461
880.473328,462
880.590271,470
880.707275,467
880.824341,445
880.941284,456
881.058228,455
881.175232,454
881.292236,472
881.40918,463
881.526123,466
881.643066,454
881.760071,446
881.877014,458
881.993958,482
882.11084,475
882.227783,462
882.344727,457
882.46167,463
882.578613,456
882.695618,477
882.812439,474
882.929382,462
883.046326,431
883.163208,448
883.280151,454
883.397034,444
883.513916,445
883.630798,457
883.747742,444
883.864563,470
883.981506,465
884.098389,465
884.21521,473
884.332153,479
884.448975,460
884.565796,467
884.682678,486
884.7995,457
884.916443,465
885.033264,497
885.150085,459
885.266968,456
885.383789,479
885.500671,495
885.617493,466
885.734314,478
885.851196,480
885.967896,470
886.084717,470
886.201599,483
886.318359,469
886.435181,467
886.552002,464
886.668762,470
886.785645,476
886.902344,464
887.019165,447
887.135925,447
887.252747,444
887.369446,470
887.486267,465
887.603027,474
887.719788,455
887.836548,447
887.953247,460
888.070068,480
888.186829,462
888.303528,475
888.420288,449
888.536987,463
888.653687,463
888.770447,463
888.887146,447
889.003967,458
889.120667,450
889.237305,477
889.354065,454
889.470703,462
889.587463,459
889.704163,470
889.820862,460
889.937561,458
890.054199,448
890.170837,453
890.287598,461
890.404236,465
890.520874,459
890.637634,469
890.754211,446
890.87085,462
890.987549,459
891.104187,479
891.220886,466
891.337463,449
891.454102,472
891.57074,491
891.687378,448
891.804077,487
891.920654,440
892.037231,456
892.15387,456
892.270447,453
892.387085,472
892.503723,463
892.6203,486
892.736877,464
892.853516,452
892.970032,451
893.08667,456
893.203186,483
893.319763,451
893.43634,473
893.552917,453
893.669556,468
893.786011,464
893.902588,472
894.019165,463
894.135681,462
894.252197,479
894.368835,466
894.485291,491
894.601868,458
894.718384,478
894.8349,482
894.951355,479
895.067932,463
895.184448,459
895.300964,483
895.417419,445
895.533936,473
895.650452,465
895.766907,464
895.883423,461
895.999878,468
896.116333,484
896.232849,461
896.349304,465
896.465759,462
896.582214,470
896.698669,487
896.815125,469
896.931641,460
897.048035,456
897.164551,454
897.280884,471
897.397339,462
897.513794,466
897.630249,459
897.746582,443
897.863098,467
897.979431,463
898.095886,461
898.212341,437
898.328674,483
898.445129,481
898.561462,472
898.677795,481
898.794312,454
898.910645,441
899.026978,499
899.143433,468
899.259766,466
899.37616,480
899.492493,473
899.608765,454
899.725159,478
899.841553,468
899.957947,467
900.07428,468
900.190552,477
900.306946,472
900.423157,469
900.53949,472
900.655884,465
900.772156,462
900.888489,485
901.004822,478
901.121033,463
901.237366,449
901.353699,454
901.46991,474
901.586304,474
901.702515,456
901.818787,463
901.93512,470
902.051331,486
902.167603,457
902.283875,501
902.400085,483
902.516418,482
902.632629,457
902.74884,470
902.865112,461
902.981384,476
903.097595,492
903.213867,481
903.330017,481
903.446289,475
903.5625,468
903.67865,480
903.794922,480
903.911072,463
904.027344,466
904.143494,486
904.259705,469
904.375916,483
904.492065,476
904.608215,473
904.724426,472
904.840576,497
904.956726,453
905.072876,489
905.189087,471
905.305176,478
905.421387,470
905.537537,479
905.653687,462
905.769775,486
905.885925,474
906.002014,477
906.118164,476
906.234314,469
906.350403,459
906.466492,444
906.582642,465
906.69873,480
906.814758,473
906.930908,474
907.046936,482
907.163086,469
907.279175,466
907.395264,472
907.511353,467
907.62738,497
907.743408,466
907.859497,477
907.975525,458
908.091553,447
908.207703,472
908.32373,475
908.439758,466
908.555786,473
908.671814,453
908.787842,471
908.90387,460
909.019775,480
909.135864,445
909.251892,481
909.367859,487
909.483826,467
909.599854,459
909.715881,461
909.831848,447
909.947815,463
910.063782,460
910.179749,460
910.295776,468
910.411743,465
910.527649,485
910.643616,478
910.759583,479
910.875488,472
910.991455,492
911.107361,486
911.223267,459
911.339294,474
911.4552,476
911.571106,485
911.687073,472
911.802979,469
911.918823,463
912.034729,467
912.150635,475
912.266602,457
912.382446,476
912.498352,477
912.614197,455
912.730103,486
912.846008,471
