792.44574,669
792.56488,681
792.68396,716
792.80304,718
792.92218,666
793.041199,622
793.160339,623
793.279419,648
793.398499,633
793.517578,630
793.636658,631
793.755737,633
793.874817,638
793.993896,648
794.112976,616
794.232056,614
794.351074,610
794.470215,588
794.589233,637
794.708313,634
794.827393,594
794.946411,601
795.065552,619
795.18457,609
795.303589,627
795.422668,621
795.541687,605
795.660767,597
795.779846,593
795.898865,590
796.017883,598
796.136963,566
796.255981,582
796.375061,600
796.49408,594
796.613037,582
796.732117,570
796.851135,609
796.970154,608
797.089233,572
797.208191,593
797.327271,577
797.446228,595
797.565186,570
797.684265,601
797.803223,587
797.922241,586
798.04126,588
798.160278,571
798.279297,586
798.398315,589
798.517273,558
798.636292,613
798.75531,562
798.874268,578
798.993286,580
799.112244,612
799.231323,574
799.350281,592
799.469238,598
799.588257,585
799.707153,581
799.826111,593
799.945129,603
800.064087,591
800.183044,590
800.302063,597
800.421021,577
800.539978,599
800.658936,583
800.777893,596
800.896912,570
801.015747,563
801.134705,587
801.253723,560
801.37262,579
801.491638,565
801.610535,601
801.729492,594
801.84845,583
801.967407,613
802.086243,580
802.205261,592
802.324158,587
802.443115,603
802.562073,596
802.680969,596
802.799927,604
802.918762,573
803.037659,597
803.156677,628
803.275574,578
803.39447,588
803.513428,593
803.632263,596
803.751221,605
803.870117,589
803.989014,577
804.107971,600
804.226746,580
804.345642,601
804.4646,579
804.583496,589
804.702393,584
804.821228,602
804.940125,614
805.059021,586
805.177917,580
805.296814,608
805.415649,613
805.534546,621
805.653442,605
805.772278,617
805.891113,607
806.01001,596
806.128906,610
806.247742,602
806.366577,640
806.485413,597
806.604309,600
806.723145,589
806.84198,617
806.960876,607
807.079712,603
807.198486,616
807.317383,599
807.436218,612
807.554993,601
807.673889,590
807.792725,593
807.91156,624
808.030396,635
808.14917,604
808.268005,605
808.386841,605
808.505676,597
808.624451,613
808.743286,595
808.862122,605
808.980896,652
809.099731,618
809.218506,594
809.337341,628
809.456116,632
809.57489,619
809.693726,609
809.8125,640
809.931274,631
810.050049,649
810.168884,630
810.287659,617
810.406372,630
810.525269,640
810.643982,623
810.762756,614
810.881531,648
811.000305,626
811.11908,618
811.237854,615
811.356567,620
811.475403,616
811.594116,621
811.71283,620
811.831604,633
811.950378,638
812.069153,615
812.187927,661
812.30658,631
812.425415,643
812.544128,618
812.662781,639
812.781616,632
812.900269,630
813.019043,610
813.137756,626
813.256531,628
813.375244,628
813.493896,634
813.612671,645
813.731384,635
813.850037,630
813.96875,623
814.087524,637
814.206238,616
814.324951,626
814.443604,611
814.562256,623
814.68103,621
814.799683,647
814.918335,597
815.037109,621
815.155762,622
815.274475,629
815.393188,616
815.511841,617
815.630554,600
815.749146,601
815.867859,627
815.986572,618
816.105164,628
816.223877,568
816.342529,615
816.461182,595
816.579895,610
816.698486,621
816.817139,623
816.935791,625
817.054504,608
817.173096,597
817.291748,638
817.4104,599
817.529053,559
817.647644,615
817.766235,608
817.884949,588
818.00354,557
818.122192,564
818.240845,561
818.359436,560
818.478088,579
818.59668,539
818.715271,530
818.833923,547
818.952515,531
819.071106,515
819.189758,513
819.30835,514
819.426941,518
819.545532,492
819.664124,503
819.782715,514
819.901306,517
820.019897,488
820.138489,500
820.25708,506
820.375671,527
820.494202,491
820.612732,500
820.731384,491
820.849915,490
820.968506,486
821.087097,466
821.205627,482
821.324158,477
821.442749,499
821.561279,496
821.679871,468
821.798401,485
821.916931,508
822.035461,476
822.154053,474
822.272583,497
822.391174,492
822.509583,464
822.628174,473
822.746704,475
822.865234,492
822.983765,484
823.102295,469
823.220825,472
823.339294,477
823.457825,470
823.576355,486
823.694824,480
823.813354,487
823.931885,503
824.050354,462
824.168884,492
824.287354,480
824.405823,490
824.524353,497
824.642822,460
824.761353,486
824.879822,496
824.998291,488
825.116699,489
825.235291,497
825.353699,494
825.472168,485
825.590637,483
825.709106,477
825.827576,461
825.946045,481
826.064453,467
826.182983,474
826.301392,476
826.4198,475
826.53833,471
826.656738,484
826.775208,461
826.893677,484
827.012024,465
827.130493,474
827.248962,494
827.36731,462
827.485779,466
827.604248,462
827.722595,449
827.841064,472
827.959412,480
828.077942,457
828.196289,452
828.314636,472
828.433105,464
828.551514,464
828.669861,472
828.78833,485
828.906677,485
829.025085,446
829.143433,476
829.261841,463
829.38031,454
829.498657,459
829.617004,456
829.735413,475
829.85376,472
829.972107,467
830.090515,466
830.208862,441
830.327209,467
830.445557,458
830.563904,450
830.682312,474
830.800659,457
830.919006,482
831.037354,452
831.155701,459
831.274048,464
831.392395,446
831.51062,474
831.629028,461
831.747314,451
831.865662,456
831.984009,444
832.102356,446
832.220642,461
832.338928,466
832.457275,446
832.575623,439
832.693909,459
832.812134,469
832.930481,465
833.048828,475
833.167114,455
833.2854,468
833.403687,461
833.521973,440
833.640259,456
833.758545,457
833.876831,460
833.995056,480
834.113281,463
834.231628,451
834.349915,455
834.468201,467
834.586426,460
834.704651,473
834.822998,457
834.941162,480
835.059448,474
835.177673,479
835.295959,458
835.414246,472
835.53241,447
835.650635,481
835.768921,466
835.887146,453
836.005371,477
836.123596,475
836.241821,479
836.360046,474
836.478271,473
836.596497,458
836.714722,460
836.832886,482
836.95105,463
837.069336,494
837.1875,486
837.305725,488
837.423889,470
837.542053,479
837.660339,456
837.778503,480
837.896667,470
838.014832,481
838.132996,470
838.25116,473
838.369385,467
838.487488,489
838.605713,474
838.723877,483
838.84198,476
838.960205,469
839.078308,466
839.196472,477
839.314636,472
839.4328,498
839.550964,482
839.669067,480
839.787231,483
839.905396,479
840.023499,470
840.141602,473
840.259766,468
840.377869,477
840.495972,472
840.614136,483
840.732239,501
840.850342,464
840.968445,459
841.086548,475
841.204651,458
841.322754,468
841.440918,457
841.55896,469
841.677002,457
841.795166,483
841.913208,452
842.031311,468
842.149353,470
842.267456,455
842.385498,437
842.503601,474
842.621643,439
842.739746,473
842.857788,445
842.97583,453
843.093933,440
843.211975,465
843.330017,442
843.44812,462
843.566101,439
843.684204,461
843.802246,461
843.920227,463
844.038269,454
844.156311,476
844.274292,452
844.392395,447
844.510376,461
844.628357,440
844.74646,458
844.864441,463
844.982422,473
845.100403,450
845.218384,451
845.336426,441
845.454468,441
845.572449,448
845.69043,461
845.808411,451
845.926453,474
846.044373,459
846.162354,444
846.280396,449
846.398315,474
846.516296,451
846.634216,442
846.752197,463
846.870178,459
846.988098,462
847.106079,440
847.22406,459
847.34198,427
847.4599,459
847.577881,466
847.695801,445
847.813782,447
847.931641,458
848.049561,448
848.167603,472
848.285461,438
848.403381,449
848.521362,444
848.639221,468
848.75708,433
848.875,466
848.99292,464
849.110901,462
849.22876,462
849.34668,463
849.464539,440
849.582458,447
849.700317,459
849.818176,465
849.936096,438
850.053955,450
850.171875,440
850.289673,465
850.407593,433
850.525452,441
850.643311,447
850.761169,434
850.878967,464
850.996887,454
851.114746,452
851.232544,480
851.350403,442
851.468262,469
851.58606,447
851.703979,465
851.821777,449
851.939636,447
852.057434,451
852.175232,448
852.293091,459
852.410889,447
852.528687,437
852.646545,456
852.764343,459
852.88208,469
852.999939,428
853.117676,466
853.235535,453
853.353271,470
853.471069,457
853.588928,436
853.706604,462
853.824402,455
853.9422,439
854.059998,461
854.177734,442
854.295532,449
854.413269,475
854.531006,458
854.648804,453
854.766541,466
854.884277,442
855.002014,462
855.119751,453
855.237549,450
855.355225,441
855.473022,466
855.590698,459
855.708435,462
855.826172,464
855.943848,452
856.061646,451
856.179321,442
856.296997,440
856.414795,461
856.53241,443
856.650085,470
856.767822,449
856.885559,455
857.003174,470
857.120911,464
857.238586,464
857.356201,449
857.473938,448
857.591614,467
857.709351,461
857.826965,471
857.944641,451
858.062317,453
858.179993,430
858.297668,469
858.415283,470
858.532959,458
858.650574,466
858.768188,462
858.885803,445
859.003479,441
859.121094,455
859.23877,462
859.356384,447
859.473999,460
859.591675,440
859.709229,467
859.826843,453
859.944458,450
860.062012,447
860.179626,458
860.297302,437
860.414856,460
860.532471,439
860.650024,462
860.767639,461
860.885193,439
861.002808,460
861.120361,469
861.237976,451
861.35553,450
861.473022,447
861.590698,440
861.708191,446
861.825745,465
861.943298,439
862.060852,452
862.178406,455
862.295959,457
862.413513,438
862.531006,471
862.64856,454
862.766113,461
862.883667,457
863.00116,454
863.118713,441
863.236206,467
863.353699,440
863.471252,459
863.588745,444
863.706177,462
863.82373,468
863.941162,451
864.058716,436
864.176208,460
864.29364,445
864.411194,457
864.528687,455
864.646118,454
864.763611,446
864.881042,470
864.998535,449
865.116028,461
865.233459,437
865.350891,436
865.468384,460
865.585754,458
865.703308,469
865.820679,447
865.938171,460
866.055542,462
866.173035,440
866.290466,463
866.407837,445
866.52533,445
866.6427,418
866.760071,454
866.877563,459
866.994934,467
867.112305,433
867.229736,452
867.347107,439
867.464539,462
867.58197,443
867.699341,441
867.81665,464
867.934082,451
868.051453,469
868.168823,466
868.286194,448
868.403564,451
868.520935,455
868.638306,475
868.755676,464
868.872986,468
868.990295,453
869.107727,461
869.225037,458
869.342346,456
869.459717,458
869.577026,456
869.694336,458
869.811707,471
869.929016,448
870.046326,457
870.163635,485
870.280945,476
870.398254,474
870.515564,473
870.632812,446
870.750183,457
870.867432,442
870.984741,457
871.102051,468
871.219299,458
871.336609,440
871.453918,453
871.571106,457
871.688416,458
871.805664,453
871.922852,455
872.040222,458
872.157471,447
872.274719,453
872.391968,463
872.509155,465
872.626465,448
872.743652,452
872.860962,461
872.978149,443
873.095337,461
873.212646,447
873.329834,469
873.44696,453
873.564209,460
873.681396,472
873.798645,455
873.915894,470
874.03302,443
874.150208,459
874.267456,468
874.384583,464
874.501831,451
874.618958,451
874.736145,435
874.853333,460
874.970459,453
875.087646,442
875.204834,464
875.32196,446
875.439148,460
875.556274,451
875.673401,436
875.790527,444
875.907715,456
876.024841,468
876.141968,456
876.259094,441
876.376282,457
876.493347,434
876.610474,449
876.7276,454
876.844727,463
876.961853,446
877.078918,457
877.195984,455
877.313171,458
877.430237,451
877.547302,470
877.664368,448
877.781433,472
877.898499,472
878.015625,474
878.13269,458
878.249695,443
878.366821,454
878.483887,449
878.600952,460
878.717957,458
878.834961,446
878.952087,463
879.069092,448
879.186157,457
879.303162,469
879.420227,451
879.537231,455
879.654236,439
879.77124,457
879.888306,457
880.005249,451
880.122314,478
880.239319,435
880.356323,466
880.473328,463
880.590271,446
880.707275,428
880.824341,439
880.941284,478
881.058228,457
881.175232,464
881.292236,463
881.40918,426
881.526123,451
881.643066,452
881.760071,456
881.877014,449
881.993958,446
882.11084,443
882.227783,450
882.344727,439
882.46167,470
882.578613,435
882.695618,459
882.812439,444
882.929382,478
883.046326,438
883.163208,466
883.280151,448
883.397034,447
883.513916,448
883.630798,455
883.747742,455
883.864563,468
883.981506,448
884.098389,445
884.21521,438
884.332153,463
884.448975,464
884.565796,480
884.682678,459
884.7995,455
884.916443,433
885.033264,456
885.150085,457
885.266968,465
885.383789,476
885.500671,463
885.617493,473
885.734314,458
885.851196,466
885.967896,465
886.084717,462
886.201599,470
886.318359,456
886.435181,470
886.552002,459
886.668762,475
886.785645,459
886.902344,456
887.019165,445
887.135925,487
887.252747,454
887.369446,466
887.486267,463
887.603027,456
887.719788,450
887.836548,463
887.953247,465
888.070068,469
888.186829,462
888.303528,456
888.420288,450
888.536987,468
888.653687,456
888.770447,474
888.887146,440
889.003967,459
889.120667,450
889.237305,440
889.354065,446
889.470703,463
889.587463,441
889.704163,456
889.820862,455
889.937561,465
890.054199,464
890.170837,473
890.287598,434
890.404236,467
890.520874,438
890.637634,451
890.754211,444
890.87085,454
890.987549,450
891.104187,463
891.220886,458
891.337463,470
891.454102,473
891.57074,461
891.687378,452
891.804077,471
891.920654,460
892.037231,457
892.15387,464
892.270447,480
892.387085,454
892.503723,457
892.6203,467
892.736877,443
892.853516,467
892.970032,459
893.08667,459
893.203186,459
893.319763,462
893.43634,465
893.552917,459
893.669556,471
893.786011,450
893.902588,472
894.019165,465
894.135681,472
894.252197,465
894.368835,440
894.485291,447
894.601868,482
894.718384,457
894.8349,457
894.951355,459
895.067932,471
895.184448,467
895.300964,459
895.417419,462
895.533936,446
895.650452,473
895.766907,470
895.883423,454
895.999878,448
896.116333,467
896.232849,469
896.349304,462
896.465759,472
896.582214,461
896.698669,468
896.815125,462
896.931641,455
897.048035,465
897.164551,460
897.280884,461
897.397339,457
897.513794,437
897.630249,452
897.746582,475
897.863098,471
897.979431,470
898.095886,450
898.212341,456
898.328674,466
898.445129,454
898.561462,470
898.677795,458
898.794312,489
898.910645,470
899.026978,456
899.143433,442
899.259766,448
899.37616,455
899.492493,475
899.608765,444
899.725159,460
899.841553,453
899.957947,463
900.07428,464
900.190552,479
900.306946,454
900.423157,453
900.53949,479
900.655884,470
900.772156,451
900.888489,455
901.004822,472
901.121033,446
901.237366,448
901.353699,481
901.46991,450
901.586304,465
901.702515,466
901.818787,471
901.93512,466
902.051331,489
902.167603,454
902.283875,472
902.400085,473
902.516418,467
902.632629,460
902.74884,460
902.865112,466
902.981384,474
903.097595,473
903.213867,457
903.330017,461
903.446289,460
903.5625,476
903.67865,470
903.794922,476
903.911072,468
904.027344,468
904.143494,449
904.259705,473
904.375916,455
904.492065,455
904.608215,454
904.724426,462
904.840576,470
904.956726,460
905.072876,457
905.189087,463
905.305176,448
905.421387,458
905.537537,473
905.653687,463
905.769775,459
905.885925,444
906.002014,462
906.118164,453
906.234314,472
906.350403,471
906.466492,466
906.582642,455
906.69873,455
906.814758,458
906.930908,451
907.046936,469
907.163086,455
907.279175,469
907.395264,466
907.511353,467
907.62738,467
907.743408,464
907.859497,466
907.975525,484
908.091553,483
908.207703,466
908.32373,464
908.439758,453
908.555786,473
908.671814,447
908.787842,468
908.90387,484
909.019775,482
909.135864,464
909.251892,451
909.367859,473
909.483826,462
909.599854,446
909.715881,461
909.831848,481
909.947815,477
910.063782,472
910.179749,453
910.295776,460
910.411743,464
910.527649,455
910.643616,479
910.759583,439
910.875488,457
910.991455,470
911.107361,451
911.223267,472
911.339294,476
911.4552,485
911.571106,462
911.687073,457
911.802979,461
911.918823,451
912.034729,469
912.150635,468
912.266602,483
912.382446,473
912.498352,464
912.614197,455
912.730103,462
912.846008,448
792.44574,666
792.56488,675
792.68396,697
792.80304,691
792.92218,655
793.041199,649
793.160339,648
793.279419,647
793.398499,629
793.517578,645
793.636658,612
793.755737,627
793.874817,654
793.993896,634
794.112976,633
794.232056,610
794.351074,605
794.470215,611
794.589233,606
794.708313,597
794.827393,631
794.946411,603
795.065552,623
795.18457,627
795.303589,612
795.422668,602
795.541687,603
795.660767,596
795.779846,615
795.898865,580
796.017883,576
796.136963,595
796.255981,591
796.375061,598
796.49408,601
796.613037,602
796.732117,621
796.851135,594
796.970154,579
797.089233,614
797.208191,595
797.327271,585
797.446228,597
797.565186,589
797.684265,571
797.803223,620
797.922241,585
798.04126,569
798.160278,586
798.279297,587
798.398315,586
798.517273,576
798.636292,592
798.75531,561
798.874268,580
798.993286,587
799.112244,557
799.231323,604
799.350281,594
799.469238,585
799.588257,591
799.707153,594
799.826111,589
799.945129,595
800.064087,608
800.183044,588
800.302063,569
800.421021,589
800.539978,594
800.658936,597
800.777893,595
800.896912,602
801.015747,566
801.134705,577
801.253723,601
801.37262,559
801.491638,615
801.610535,564
801.729492,609
801.84845,582
801.967407,599
802.086243,591
802.205261,590
802.324158,578
802.443115,590
802.562073,588
802.680969,578
802.799927,609
802.918762,576
803.037659,583
803.156677,580
803.275574,600
803.39447,593
803.513428,603
803.632263,603
803.751221,607
803.870117,611
803.989014,593
804.107971,599
804.226746,605
804.345642,601
804.4646,605
804.583496,611
804.702393,612
804.821228,608
804.940125,616
805.059021,596
805.177917,603
805.296814,584
805.415649,612
805.534546,600
805.653442,616
805.772278,580
805.891113,610
806.01001,598
806.128906,597
806.247742,600
806.366577,593
806.485413,619
806.604309,617
806.723145,611
806.84198,622
806.960876,616
807.079712,604
807.198486,632
807.317383,595
807.436218,606
807.554993,611
807.673889,603
807.792725,605
807.91156,588
808.030396,625
808.14917,598
808.268005,608
808.386841,636
808.505676,623
808.624451,623
808.743286,598
808.862122,632
808.980896,615
809.099731,610
809.218506,601
809.337341,614
809.456116,610
809.57489,604
809.693726,608
809.8125,620
809.931274,629
810.050049,611
810.168884,617
810.287659,602
810.406372,620
810.525269,612
810.643982,611
810.762756,625
810.881531,635
811.000305,627
811.11908,624
811.237854,627
811.356567,590
811.475403,631
811.594116,633
811.71283,626
811.831604,631
811.950378,635
812.069153,613
812.187927,632
812.30658,651
812.425415,648
812.544128,618
812.662781,640
812.781616,662
812.900269,624
813.019043,607
813.137756,623
813.256531,639
813.375244,649
813.493896,635
813.612671,626
813.731384,625
813.850037,641
813.96875,634
814.087524,624
814.206238,637
814.324951,621
814.443604,612
814.562256,600
814.68103,613
814.799683,617
814.918335,621
815.037109,621
815.155762,614
815.274475,584
815.393188,608
815.511841,602
815.630554,592
815.749146,588
815.867859,616
815.986572,628
816.105164,593
816.223877,589
816.342529,622
816.461182,597
816.579895,620
816.698486,625
816.817139,592
816.935791,596
817.054504,614
817.173096,610
817.291748,605
817.4104,610
817.529053,605
817.647644,596
817.766235,592
817.884949,563
818.00354,583
818.122192,558
818.240845,547
818.359436,540
818.478088,535
818.59668,534
818.715271,545
818.833923,517
818.952515,507
819.071106,517
819.189758,513
819.30835,512
819.426941,523
819.545532,501
819.664124,524
819.782715,504
819.901306,522
820.019897,479
820.138489,494
820.25708,502
820.375671,507
820.494202,511
820.612732,495
820.731384,483
820.849915,503
820.968506,494
821.087097,492
821.205627,472
821.324158,483
821.442749,479
821.561279,498
821.679871,491
821.798401,498
821.916931,490
822.035461,490
822.154053,502
822.272583,490
822.391174,498
822.509583,481
822.628174,476
822.746704,475
822.865234,497
822.983765,493
823.102295,503
823.220825,499
823.339294,505
823.457825,502
823.576355,454
823.694824,495
823.813354,484
823.931885,484
824.050354,473
824.168884,492
824.287354,504
824.405823,479
824.524353,488
824.642822,477
824.761353,480
824.879822,491
824.998291,490
825.116699,495
825.235291,482
825.353699,485
825.472168,465
825.590637,483
825.709106,478
825.827576,488
825.946045,449
826.064453,460
826.182983,475
826.301392,476
826.4198,475
826.53833,461
826.656738,453
826.775208,482
826.893677,469
827.012024,469
827.130493,449
827.248962,472
827.36731,470
827.485779,469
827.604248,472
827.722595,455
827.841064,444
827.959412,472
828.077942,470
828.196289,469
828.314636,483
828.433105,467
828.551514,482
828.669861,457
828.78833,477
828.906677,455
829.025085,472
829.143433,473
829.261841,473
829.38031,475
829.498657,469
829.617004,467
829.735413,474
829.85376,467
829.972107,476
830.090515,448
830.208862,471
830.327209,446
830.445557,433
830.563904,476
830.682312,452
830.800659,464
830.919006,452
831.037354,472
831.155701,464
831.274048,469
831.392395,450
831.51062,486
831.629028,460
831.747314,464
831.865662,482
831.984009,470
832.102356,467
832.220642,466
832.338928,453
832.457275,456
832.575623,457
832.693909,439
832.812134,459
832.930481,465
833.048828,456
833.167114,460
833.2854,469
833.403687,472
833.521973,462
833.640259,468
833.758545,468
833.876831,471
833.995056,441
834.113281,468
834.231628,468
834.349915,472
834.468201,452
834.586426,464
834.704651,468
834.822998,465
834.941162,482
835.059448,469
835.177673,452
835.295959,471
835.414246,467
835.53241,475
835.650635,469
835.768921,461
835.887146,470
836.005371,475
836.123596,473
836.241821,476
836.360046,453
836.478271,456
836.596497,476
836.714722,471
836.832886,468
836.95105,487
837.069336,481
837.1875,474
837.305725,470
837.423889,493
837.542053,482
837.660339,481
837.778503,487
837.896667,463
838.014832,477
838.132996,487
838.25116,483
838.369385,467
838.487488,482
838.605713,495
838.723877,474
838.84198,473
838.960205,478
839.078308,467
839.196472,468
839.314636,476
839.4328,478
839.550964,468
839.669067,467
839.787231,476
839.905396,480
840.023499,465
840.141602,458
840.259766,486
840.377869,467
840.495972,498
840.614136,473
840.732239,461
840.850342,468
840.968445,470
841.086548,487
841.204651,472
841.322754,465
841.440918,469
841.55896,496
841.677002,449
841.795166,480
841.913208,458
842.031311,496
842.149353,453
842.267456,495
842.385498,469
842.503601,453
842.621643,459
842.739746,438
842.857788,483
842.97583,450
843.093933,447
843.211975,447
843.330017,451
843.44812,443
843.566101,477
843.684204,455
843.802246,446
843.920227,467
844.038269,448
844.156311,430
844.274292,472
844.392395,439
844.510376,455
844.628357,448
844.74646,447
844.864441,481
844.982422,443
845.100403,469
845.218384,440
845.336426,460
845.454468,444
845.572449,466
845.69043,465
845.808411,447
845.926453,459
846.044373,447
846.162354,461
846.280396,463
846.398315,459
846.516296,488
846.634216,461
846.752197,431
846.870178,476
846.988098,466
847.106079,447
847.22406,441
847.34198,445
847.4599,451
847.577881,448
847.695801,463
847.813782,452
847.931641,440
848.049561,446
848.167603,438
848.285461,466
848.403381,436
848.521362,443
848.639221,451
848.75708,443
848.875,458
848.99292,476
849.110901,450
849.22876,470
849.34668,449
849.464539,456
849.582458,456
849.700317,447
849.818176,459
849.936096,475
850.053955,461
850.171875,438
850.289673,429
850.407593,458
850.525452,444
850.643311,468
850.761169,435
850.878967,469
850.996887,454
851.114746,442
851.232544,464
851.350403,448
851.468262,439
851.58606,448
851.703979,449
851.821777,472
851.939636,439
852.057434,455
852.175232,440
852.293091,454
852.410889,458
852.528687,453
852.646545,474
852.764343,448
852.88208,457
852.999939,451
853.117676,457
853.235535,463
853.353271,474
853.471069,460
853.588928,458
853.706604,449
853.824402,447
853.9422,451
854.059998,447
854.177734,455
854.295532,460
854.413269,445
854.531006,454
854.648804,468
854.766541,471
854.884277,439
855.002014,456
855.119751,468
855.237549,477
855.355225,442
855.473022,456
855.590698,469
855.708435,474
855.826172,454
855.943848,464
856.061646,464
856.179321,454
856.296997,470
856.414795,463
856.53241,449
856.650085,474
856.767822,447
856.885559,470
857.003174,465
857.120911,464
857.238586,447
857.356201,471
857.473938,466
857.591614,473
857.709351,465
857.826965,471
857.944641,464
858.062317,447
858.179993,469
858.297668,468
858.415283,464
858.532959,468
858.650574,477
858.768188,487
858.885803,446
859.003479,455
859.121094,458
859.23877,458
859.356384,453
859.473999,452
859.591675,453
859.709229,460
859.826843,443
859.944458,442
860.062012,461
860.179626,453
860.297302,453
860.414856,447
860.532471,462
860.650024,461
860.767639,462
860.885193,464
861.002808,453
861.120361,461
861.237976,460
861.35553,454
861.473022,447
861.590698,470
861.708191,470
861.825745,453
861.943298,451
862.060852,433
862.178406,459
862.295959,451
862.413513,488
862.531006,447
862.64856,452
862.766113,451
862.883667,457
863.00116,456
863.118713,465
863.236206,456
863.353699,460
863.471252,452
863.588745,455
863.706177,446
863.82373,454
863.941162,476
864.058716,459
864.176208,464
864.29364,446
864.411194,433
864.528687,462
864.646118,455
864.763611,438
864.881042,455
864.998535,453
865.116028,456
865.233459,464
865.350891,449
865.468384,460
865.585754,459
865.703308,462
865.820679,461
865.938171,451
866.055542,458
866.173035,470
866.290466,449
866.407837,453
866.52533,437
866.6427,451
866.760071,438
866.877563,459
866.994934,451
867.112305,455
867.229736,423
867.347107,468
867.464539,457
867.58197,452
867.699341,457
867.81665,447
867.934082,452
868.051453,468
868.168823,455
868.286194,452
868.403564,457
868.520935,462
868.638306,460
868.755676,449
868.872986,460
868.990295,445
869.107727,451
869.225037,451
869.342346,427
869.459717,473
869.577026,452
869.694336,451
869.811707,456
869.929016,437
870.046326,464
870.163635,465
870.280945,438
870.398254,466
870.515564,464
870.632812,459
870.750183,473
870.867432,466
870.984741,461
871.102051,454
871.219299,453
871.336609,472
871.453918,475
871.571106,473
871.688416,468
871.805664,460
871.922852,464
872.040222,458
872.157471,454
872.274719,484
872.391968,445
872.509155,463
872.626465,457
872.743652,456
872.860962,453
872.978149,449
873.095337,469
873.212646,458
873.329834,438
873.44696,474
873.564209,458
873.681396,471
873.798645,450
873.915894,453
874.03302,443
874.150208,455
874.267456,464
874.384583,463
874.501831,472
874.618958,454
874.736145,463
874.853333,468
874.970459,457
875.087646,472
875.204834,486
875.32196,461
875.439148,455
875.556274,459
875.673401,481
875.790527,450
875.907715,457
876.024841,469
876.141968,465
876.259094,445
876.376282,456
876.493347,457
876.610474,455
876.7276,431
876.844727,460
876.961853,439
877.078918,455
877.195984,463
877.313171,464
877.430237,469
877.547302,444
877.664368,471
877.781433,436
877.898499,461
878.015625,443
878.13269,458
878.249695,436
878.366821,467
878.483887,439
878.600952,464
878.717957,473
878.834961,463
878.952087,458
879.069092,463
879.186157,460
879.303162,446
879.420227,464
879.537231,451
879.654236,456
879.77124,462
879.888306,442
880.005249,457
880.122314,462
880.239319,442
880.356323,457
880.473328,463
880.590271,439
880.707275,452
880.824341,443
880.941284,459
881.058228,461
881.175232,476
881.292236,454
881.40918,444
881.526123,464
881.643066,462
881.760071,446
881.877014,460
881.993958,453
882.11084,451
882.227783,459
882.344727,450
882.46167,455
882.578613,456
882.695618,465
882.812439,446
882.929382,447
883.046326,460
883.163208,457
883.280151,455
883.397034,443
883.513916,474
883.630798,451
883.747742,463
883.864563,456
883.981506,453
884.098389,453
884.21521,454
884.332153,473
884.448975,449
884.565796,446
884.682678,467
884.7995,452
884.916443,455
885.033264,449
885.150085,453
885.266968,470
885.383789,468
885.500671,468
885.617493,462
885.734314,456
885.851196,460
885.967896,467
886.084717,480
886.201599,465
886.318359,466
886.435181,464
886.552002,461
886.668762,476
886.785645,454
886.902344,475
887.019165,478
887.135925,484
887.252747,465
887.369446,441
887.486267,465
887.603027,472
887.719788,462
887.836548,454
887.953247,464
888.070068,450
888.186829,465
888.303528,464
888.420288,460
888.536987,442
888.653687,455
888.770447,459
888.887146,459
889.003967,456
889.120667,464
889.237305,443
889.354065,462
889.470703,468
889.587463,468
889.704163,454
889.820862,432
889.937561,466
890.054199,440
890.170837,444
890.287598,457
890.404236,452
890.520874,450
890.637634,462
890.754211,466
890.87085,469
890.987549,453
891.104187,457
891.220886,456
891.337463,448
891.454102,456
891.57074,461
891.687378,481
891.804077,446
891.920654,449
892.037231,454
892.15387,457
892.270447,458
892.387085,449
892.503723,467
892.6203,471
892.736877,460
892.853516,463
892.970032,460
893.08667,450
893.203186,440
893.319763,453
893.43634,447
893.552917,467
893.669556,452
893.786011,449
893.902588,461
894.019165,468
894.135681,474
894.252197,457
894.368835,464
894.485291,470
894.601868,448
894.718384,471
894.8349,453
894.951355,468
895.067932,480
895.184448,466
895.300964,459
895.417419,464
895.533936,474
895.650452,465
895.766907,454
895.883423,466
895.999878,473
896.116333,459
896.232849,436
896.349304,478
896.465759,456
896.582214,459
896.698669,466
896.815125,467
896.931641,454
897.048035,452
897.164551,473
897.280884,482
897.397339,469
897.513794,464
897.630249,444
897.746582,452
897.863098,466
897.979431,474
898.095886,468
898.212341,472
898.328674,434
898.445129,470
898.561462,459
898.677795,458
898.794312,477
898.910645,453
899.026978,458
899.143433,462
899.259766,470
899.37616,460
899.492493,458
899.608765,476
899.725159,460
899.841553,477
899.957947,468
900.07428,457
900.190552,446
900.306946,460
900.423157,466
900.53949,479
900.655884,455
900.772156,467
900.888489,464
901.004822,461
901.121033,476
901.237366,449
901.353699,466
901.46991,466
901.586304,483
901.702515,458
901.818787,460
901.93512,456
902.051331,455
902.167603,460
902.283875,465
902.400085,474
902.516418,464
902.632629,489
902.74884,471
902.865112,453
902.981384,457
903.097595,476
903.213867,448
903.330017,478
903.446289,473
903.5625,471
903.67865,471
903.794922,469
903.911072,477
904.027344,462
904.143494,462
904.259705,472
904.375916,479
904.492065,474
904.608215,450
904.724426,470
904.840576,469
904.956726,458
905.072876,470
905.189087,468
905.305176,473
905.421387,490
905.537537,459
905.653687,472
905.769775,464
905.885925,465
906.002014,469
906.118164,448
906.234314,471
906.350403,476
906.466492,460
906.582642,472
906.69873,458
906.814758,442
906.930908,478
907.046936,474
907.163086,474
907.279175,467
907.395264,463
907.511353,474
907.62738,468
907.743408,476
907.859497,463
907.975525,465
908.091553,473
908.207703,468
908.32373,472
908.439758,472
908.555786,468
908.671814,476
908.787842,464
908.90387,468
909.019775,448
909.135864,461
909.251892,471
909.367859,481
909.483826,461
909.599854,457
909.715881,481
909.831848,464
909.947815,450
910.063782,478
910.179749,458
910.295776,463
910.411743,456
910.527649,466
910.643616,461
910.759583,467
910.875488,469
910.991455,471
911.107361,474
911.223267,477
911.339294,464
911.4552,466
911.571106,483
911.687073,481
911.802979,453
911.918823,484
912.034729,475
912.150635,467
912.266602,481
912.382446,473
912.498352,470
912.614197,471
912.730103,464
912.846008,455
792.44574,662
792.56488,690
792.68396,722
792.80304,688
792.92218,671
793.041199,642
793.160339,637
793.279419,671
793.398499,631
793.517578,613
793.636658,631
793.755737,644
793.874817,633
793.993896,614
794.112976,646
794.232056,604
794.351074,617
794.470215,613
794.589233,630
794.708313,597
794.827393,629
794.946411,601
795.065552,629
795.18457,614
795.303589,610
795.422668,631
795.541687,610
795.660767,595
795.779846,609
795.898865,598
796.017883,604
796.136963,613
796.255981,619
796.375061,593
796.49408,610
796.613037,587
796.732117,598
796.851135,600
796.970154,617
797.089233,597
797.208191,601
797.327271,588
797.446228,582
797.565186,577
797.684265,632
797.803223,579
797.922241,555
798.04126,585
798.160278,592
798.279297,593
798.398315,591
798.517273,594
798.636292,606
798.75531,565
798.874268,574
798.993286,591
799.112244,563
799.231323,600
799.350281,582
799.469238,580
799.588257,575
799.707153,586
799.826111,591
799.945129,572
800.064087,607
800.183044,591
800.302063,587
800.421021,594
800.539978,567
800.658936,583
800.777893,584
800.896912,574
801.015747,596
801.134705,596
801.253723,599
801.37262,573
801.491638,593
801.610535,575
801.729492,580
801.84845,566
801.967407,609
802.086243,587
802.205261,602
802.324158,598
802.443115,597
802.562073,603
802.680969,606
802.799927,572
802.918762,619
803.037659,588
803.156677,585
803.275574,586
803.39447,605
803.513428,595
803.632263,573
803.751221,609
803.870117,599
803.989014,586
804.107971,596
804.226746,598
804.345642,592
804.4646,600
804.583496,618
804.702393,607
804.821228,609
804.940125,607
805.059021,592
805.177917,613
805.296814,614
805.415649,616
805.534546,606
805.653442,623
805.772278,630
805.891113,594
806.01001,615
806.128906,594
806.247742,614
806.366577,593
806.485413,631
806.604309,626
806.723145,624
806.84198,621
806.960876,644
807.079712,609
807.198486,618
807.317383,619
807.436218,616
807.554993,616
807.673889,608
807.792725,608
807.91156,603
808.030396,581
808.14917,598
808.268005,599
808.386841,642
808.505676,619
808.624451,606
808.743286,625
808.862122,615
808.980896,616
809.099731,627
809.218506,625
809.337341,622
809.456116,620
809.57489,604
809.693726,624
809.8125,618
809.931274,630
810.050049,624
810.168884,599
810.287659,622
810.406372,618
810.525269,650
810.643982,608
810.762756,641
810.881531,609
811.000305,609
811.11908,629
811.237854,611
811.356567,619
811.475403,661
811.594116,640
811.71283,640
811.831604,648
811.950378,660
812.069153,613
812.187927,626
812.30658,644
812.425415,626
812.544128,631
812.662781,622
812.781616,609
812.900269,650
813.019043,584
813.137756,617
813.256531,630
813.375244,649
813.493896,615
813.612671,608
813.731384,633
813.850037,641
813.96875,606
814.087524,609
814.206238,611
814.324951,612
814.443604,612
814.562256,595
814.68103,607
814.799683,625
814.918335,625
815.037109,640
815.155762,611
815.274475,641
815.393188,603
815.511841,617
815.630554,612
815.749146,597
815.867859,617
815.986572,619
816.105164,613
816.223877,616
816.342529,600
816.461182,612
816.579895,620
816.698486,631
816.817139,623
816.935791,600
817.054504,636
817.173096,618
817.291748,621
817.4104,591
817.529053,577
817.647644,592
817.766235,599
817.884949,578
818.00354,576
818.122192,550
818.240845,581
818.359436,555
818.478088,545
818.59668,552
818.715271,543
818.833923,529
818.952515,531
819.071106,522
819.189758,521
819.30835,536
819.426941,516
819.545532,509
819.664124,509
819.782715,515
819.901306,505
820.019897,513
820.138489,501
820.25708,504
820.375671,503
820.494202,493
820.612732,503
820.731384,499
820.849915,523
820.968506,487
821.087097,490
821.205627,484
821.324158,475
821.442749,500
821.561279,491
821.679871,490
821.798401,484
821.916931,488
822.035461,475
822.154053,478
822.272583,473
822.391174,506
822.509583,481
822.628174,484
822.746704,476
822.865234,476
822.983765,473
823.102295,491
823.220825,494
823.339294,475
823.457825,466
823.576355,490
823.694824,462
823.813354,483
823.931885,477
824.050354,494
824.168884,494
824.287354,505
824.405823,469
824.524353,498
824.642822,498
824.761353,494
824.879822,482
824.998291,481
825.116699,488
825.235291,483
825.353699,500
825.472168,486
825.590637,490
825.709106,482
825.827576,465
825.946045,482
826.064453,463
826.182983,466
826.301392,506
826.4198,490
826.53833,460
826.656738,463
826.775208,480
826.893677,460
827.012024,472
827.130493,456
827.248962,473
827.36731,471
827.485779,469
827.604248,490
827.722595,472
827.841064,453
827.959412,465
828.077942,461
828.196289,464
828.314636,467
828.433105,486
828.551514,487
828.669861,452
828.78833,467
828.906677,478
829.025085,452
829.143433,451
829.261841,470
829.38031,467
829.498657,462
829.617004,452
829.735413,474
829.85376,462
829.972107,463
830.090515,469
830.208862,460
830.327209,464
830.445557,471
830.563904,461
830.682312,447
830.800659,480
830.919006,469
831.037354,456
831.155701,474
831.274048,483
831.392395,440
831.51062,472
831.629028,456
831.747314,458
831.865662,449
831.984009,452
832.102356,464
832.220642,482
832.338928,466
832.457275,461
832.575623,465
832.693909,461
832.812134,468
832.930481,461
833.048828,468
833.167114,480
833.2854,459
833.403687,480
833.521973,454
833.640259,457
833.758545,458
833.876831,468
833.995056,471
834.113281,444
834.231628,466
834.349915,467
834.468201,490
834.586426,464
834.704651,454
834.822998,460
834.941162,470
835.059448,462
835.177673,463
835.295959,461
835.414246,448
835.53241,460
835.650635,464
835.768921,456
835.887146,463
836.005371,471
836.123596,481
836.241821,474
836.360046,475
836.478271,449
836.596497,487
836.714722,486
836.832886,479
836.95105,456
837.069336,490
837.1875,465
837.305725,480
837.423889,471
837.542053,477
837.660339,459
837.778503,472
837.896667,456
838.014832,486
838.132996,481
838.25116,476
838.369385,471
838.487488,486
838.605713,476
838.723877,504
838.84198,461
838.960205,483
839.078308,469
839.196472,473
839.314636,484
839.4328,489
839.550964,481
839.669067,485
839.787231,476
839.905396,468
840.023499,473
840.141602,462
840.259766,490
840.377869,471
840.495972,464
840.614136,471
840.732239,483
840.850342,461
840.968445,475
841.086548,470
841.204651,475
841.322754,487
841.440918,480
841.55896,460
841.677002,480
841.795166,474
841.913208,491
842.031311,459
842.149353,475
842.267456,476
842.385498,460
842.503601,474
842.621643,459
842.739746,442
842.857788,455
842.97583,453
843.093933,462
843.211975,439
843.330017,460
843.44812,470
843.566101,463
843.684204,465
843.802246,459
843.920227,453
844.038269,469
844.156311,457
844.274292,459
844.392395,464
844.510376,467
844.628357,458
844.74646,459
844.864441,451
844.982422,458
845.100403,462
845.218384,446
845.336426,471
845.454468,460
845.572449,430
845.69043,443
845.808411,462
845.926453,447
846.044373,461
846.162354,461
846.280396,472
846.398315,459
846.516296,471
846.634216,465
846.752197,465
846.870178,435
846.988098,461
847.106079,448
847.22406,458
847.34198,448
847.4599,459
847.577881,451
847.695801,448
847.813782,445
847.931641,447
848.049561,464
848.167603,460
848.285461,441
848.403381,475
848.521362,434
848.639221,455
848.75708,463
848.875,457
848.99292,451
849.110901,460
849.22876,461
849.34668,460
849.464539,456
849.582458,463
849.700317,457
849.818176,459
849.936096,454
850.053955,447
850.171875,450
850.289673,458
850.407593,432
850.525452,457
850.643311,454
850.761169,468
850.878967,447
850.996887,469
851.114746,440
851.232544,462
851.350403,437
851.468262,463
851.58606,447
851.703979,480
851.821777,444
851.939636,459
852.057434,439
852.175232,461
852.293091,481
852.410889,449
852.528687,447
852.646545,471
852.764343,459
852.88208,467
852.999939,450
853.117676,477
853.235535,450
853.353271,442
853.471069,450
853.588928,459
853.706604,463
853.824402,464
853.9422,448
854.059998,438
854.177734,458
854.295532,452
854.413269,443
854.531006,458
854.648804,461
854.766541,451
854.884277,465
855.002014,455
855.119751,464
855.237549,452
855.355225,443
855.473022,492
855.590698,462
855.708435,457
855.826172,476
855.943848,456
856.061646,465
856.179321,454
856.296997,451
856.414795,461
856.53241,479
856.650085,474
856.767822,476
856.885559,455
857.003174,450
857.120911,451
857.238586,465
857.356201,480
857.473938,481
857.591614,456
857.709351,462
857.826965,486
857.944641,446
858.062317,471
858.179993,472
858.297668,458
858.415283,449
858.532959,467
858.650574,456
858.768188,472
858.885803,475
859.003479,443
859.121094,452
859.23877,468
859.356384,457
859.473999,443
859.591675,452
859.709229,454
859.826843,458
859.944458,460
860.062012,445
860.179626,456
860.297302,458
860.414856,435
860.532471,436
860.650024,451
860.767639,450
860.885193,442
861.002808,462
861.120361,454
861.237976,475
861.35553,463
861.473022,444
861.590698,474
861.708191,447
861.825745,467
861.943298,485
862.060852,457
862.178406,448
862.295959,473
862.413513,458
862.531006,455
862.64856,451
862.766113,465
862.883667,442
863.00116,464
863.118713,455
863.236206,444
863.353699,444
863.471252,473
863.588745,441
863.706177,446
863.82373,464
863.941162,475
864.058716,464
864.176208,448
864.29364,461
864.411194,450
864.528687,444
864.646118,471
864.763611,446
864.881042,470
864.998535,468
865.116028,461
865.233459,468
865.350891,461
865.468384,452
865.585754,450
865.703308,444
865.820679,471
865.938171,455
866.055542,455
866.173035,463
866.290466,461
866.407837,448
866.52533,474
866.6427,452
866.760071,448
866.877563,461
866.994934,459
867.112305,471
867.229736,444
867.347107,455
867.464539,452
867.58197,449
867.699341,465
867.81665,457
867.934082,449
868.051453,454
868.168823,458
868.286194,475
868.403564,459
868.520935,454
868.638306,450
868.755676,466
868.872986,478
868.990295,458
869.107727,444
869.225037,461
869.342346,455
869.459717,457
869.577026,477
869.694336,458
869.811707,452
869.929016,461
870.046326,449
870.163635,460
870.280945,460
870.398254,461
870.515564,454
870.632812,431
870.750183,473
870.867432,466
870.984741,460
871.102051,467
871.219299,475
871.336609,461
871.453918,465
871.571106,451
871.688416,463
871.805664,455
871.922852,463
872.040222,435
872.157471,458
872.274719,447
872.391968,459
872.509155,454
872.626465,463
872.743652,475
872.860962,445
872.978149,462
873.095337,454
873.212646,459
873.329834,436
873.44696,453
873.564209,439
873.681396,467
873.798645,479
873.915894,467
874.03302,458
874.150208,458
874.267456,449
874.384583,453
874.501831,477
874.618958,472
874.736145,463
874.853333,458
874.970459,470
875.087646,464
875.204834,480
875.32196,445
875.439148,461
875.556274,456
875.673401,465
875.790527,455
875.907715,439
876.024841,472
876.141968,452
876.259094,448
876.376282,462
876.493347,447
876.610474,462
876.7276,435
876.844727,454
876.961853,439
877.078918,458
877.195984,466
877.313171,442
877.430237,458
877.547302,457
877.664368,462
877.781433,464
877.898499,452
878.015625,460
878.13269,458
878.249695,462
878.366821,480
878.483887,478
878.600952,435
878.717957,463
878.834961,447
878.952087,482
879.069092,463
879.186157,450
879.303162,462
879.420227,445
879.537231,444
879.654236,459
879.77124,457
879.888306,447
880.005249,472
880.122314,448
880.239319,452
880.356323,459
880.473328,469
880.590271,466
880.707275,472
880.824341,445
880.941284,461
881.058228,453
881.175232,441
881.292236,461
881.40918,443
881.526123,445
881.643066,476
881.760071,448
881.877014,463
881.993958,465
882.11084,464
882.227783,460
882.344727,455
882.46167,457
882.578613,464
882.695618,454
882.812439,469
882.929382,473
883.046326,484
883.163208,452
883.280151,457
883.397034,471
883.513916,454
883.630798,474
883.747742,447
883.864563,453
883.981506,463
884.098389,456
884.21521,472
884.332153,466
884.448975,458
884.565796,472
884.682678,468
884.7995,479
884.916443,452
885.033264,466
885.150085,456
885.266968,485
885.383789,464
885.500671,464
885.617493,457
885.734314,476
885.851196,454
885.967896,469
886.084717,478
886.201599,447
886.318359,457
886.435181,470
886.552002,471
886.668762,482
886.785645,460
886.902344,456
887.019165,447
887.135925,485
887.252747,461
887.369446,463
887.486267,455
887.603027,441
887.719788,455
887.836548,461
887.953247,455
888.070068,471
888.186829,461
888.303528,456
888.420288,449
888.536987,451
888.653687,484
888.770447,452
888.887146,453
889.003967,467
889.120667,447
889.237305,453
889.354065,471
889.470703,465
889.587463,446
889.704163,465
889.820862,455
889.937561,459
890.054199,471
890.170837,454
890.287598,460
890.404236,479
890.520874,464
890.637634,462
890.754211,448
890.87085,454
890.987549,442
891.104187,469
891.220886,462
891.337463,452
891.454102,457
891.57074,454
891.687378,432
891.804077,462
891.920654,480
892.037231,451
892.15387,448
892.270447,466
892.387085,462
892.503723,491
892.6203,452
892.736877,451
892.853516,457
892.970032,459
893.08667,449
893.203186,461
893.319763,445
893.43634,470
893.552917,472
893.669556,465
893.786011,432
893.902588,459
894.019165,466
894.135681,468
894.252197,473
894.368835,477
894.485291,471
894.601868,473
894.718384,448
894.8349,460
894.951355,457
895.067932,467
895.184448,456
895.300964,464
895.417419,470
895.533936,461
895.650452,444
895.766907,473
895.883423,466
895.999878,465
896.116333,464
896.232849,482
896.349304,465
896.465759,470
896.582214,463
896.698669,461
896.815125,478
896.931641,457
897.048035,461
897.164551,467
897.280884,458
897.397339,470
897.513794,467
897.630249,465
897.746582,449
897.863098,459
897.979431,480
898.095886,468
898.212341,460
898.328674,482
898.445129,446
898.561462,448
898.677795,453
898.794312,475
898.910645,452
899.026978,469
899.143433,441
899.259766,469
899.37616,454
899.492493,464
899.608765,452
899.725159,464
899.841553,452
899.957947,467
900.07428,450
900.190552,456
900.306946,447
900.423157,460
900.53949,462
900.655884,445
900.772156,468
900.888489,463
901.004822,472
901.121033,466
901.237366,459
901.353699,486
901.46991,459
901.586304,487
901.702515,458
901.818787,456
901.93512,457
902.051331,467
902.167603,456
902.283875,468
902.400085,459
902.516418,449
902.632629,469
902.74884,462
902.865112,474
902.981384,476
903.097595,442
903.213867,489
903.330017,472
903.446289,460
903.5625,470
903.67865,463
903.794922,474
903.911072,467
904.027344,470
904.143494,475
904.259705,466
904.375916,474
904.492065,462
904.608215,466
904.724426,482
904.840576,476
904.956726,451
905.072876,468
905.189087,476
905.305176,474
905.421387,482
905.537537,469
905.653687,478
905.769775,456
905.885925,469
906.002014,465
906.118164,468
906.234314,472
906.350403,475
906.466492,472
906.582642,481
906.69873,472
906.814758,459
906.930908,461
907.046936,468
907.163086,480
907.279175,454
907.395264,478
907.511353,474
907.62738,478
907.743408,480
907.859497,463
907.975525,441
908.091553,464
908.207703,448
908.32373,468
908.439758,436
908.555786,475
908.671814,464
908.787842,464
908.90387,487
909.019775,474
909.135864,462
909.251892,473
909.367859,484
909.483826,463
909.599854,478
909.715881,470
909.831848,453
909.947815,465
910.063782,469
910.179749,496
910.295776,471
910.411743,464
910.527649,471
910.643616,483
910.759583,470
910.875488,470
910.991455,492
911.107361,486
911.223267,456
911.339294,472
911.4552,477
911.571106,472
911.687073,478
911.802979,452
911.918823,455
912.034729,457
912.150635,449
912.266602,470
912.382446,453
912.498352,457
912.614197,461
912.730103,449
912.846008,471
