792.44574,602
792.56488,613
792.68396,681
792.80304,662
792.92218,610
793.041199,591
793.160339,581
793.279419,608
793.398499,585
793.517578,596
793.636658,578
793.755737,598
793.874817,605
793.993896,603
794.112976,580
794.232056,558
794.351074,579
794.470215,583
794.589233,597
794.708313,555
794.827393,592
794.946411,580
795.065552,597
795.18457,598
795.303589,596
795.422668,576
795.541687,586
795.660767,573
795.779846,564
795.898865,558
796.017883,576
796.136963,573
796.255981,576
796.375061,560
796.49408,582
796.613037,594
796.732117,573
796.851135,562
796.970154,567
797.089233,568
797.208191,580
797.327271,560
797.446228,587
797.565186,557
797.684265,578
797.803223,576
797.922241,566
798.04126,564
798.160278,558
798.279297,555
798.398315,581
798.517273,556
798.636292,580
798.75531,564
798.874268,567
798.993286,572
799.112244,573
799.231323,580
799.350281,566
799.469238,579
799.588257,578
799.707153,585
799.826111,567
799.945129,559
800.064087,581
800.183044,585
800.302063,556
800.421021,561
800.539978,570
800.658936,556
800.777893,583
800.896912,567
801.015747,565
801.134705,558
801.253723,578
801.37262,546
801.491638,580
801.610535,561
801.729492,586
801.84845,588
801.967407,576
802.086243,574
802.205261,573
802.324158,569
802.443115,581
802.562073,570
802.680969,565
802.799927,577
802.918762,592
803.037659,553
803.156677,572
803.275574,556
803.39447,544
803.513428,607
803.632263,593
803.751221,582
803.870117,566
803.989014,583
804.107971,591
804.226746,570
804.345642,586
804.4646,571
804.583496,606
804.702393,576
804.821228,587
804.940125,565
805.059021,597
805.177917,579
805.296814,625
805.415649,581
805.534546,589
805.653442,571
805.772278,595
805.891113,588
806.01001,598
806.128906,590
806.247742,612
806.366577,600
806.485413,615
806.604309,602
806.723145,602
806.84198,593
806.960876,592
807.079712,587
807.198486,598
807.317383,597
807.436218,603
807.554993,596
807.673889,607
807.792725,582
807.91156,620
808.030396,610
808.14917,585
808.268005,589
808.386841,611
808.505676,603
808.624451,611
808.743286,598
808.862122,624
808.980896,592
809.099731,617
809.218506,594
809.337341,596
809.456116,570
809.57489,601
809.693726,624
809.8125,610
809.931274,591
810.050049,633
810.168884,601
810.287659,604
810.406372,594
810.525269,623
810.643982,590
810.762756,627
810.881531,595
811.000305,594
811.11908,604
811.237854,610
811.356567,601
811.475403,621
811.594116,615
811.71283,614
811.831604,616
811.950378,608
812.069153,632
812.187927,629
812.30658,592
812.425415,639
812.544128,596
812.662781,617
812.781616,632
812.900269,622
813.019043,596
813.137756,605
813.256531,609
813.375244,623
813.493896,626
813.612671,607
813.731384,605
813.850037,604
813.96875,599
814.087524,604
814.206238,586
814.324951,632
814.443604,623
814.562256,602
814.68103,624
814.799683,634
814.918335,631
815.037109,626
815.155762,596
815.274475,627
815.393188,606
815.511841,596
815.630554,603
815.749146,601
815.867859,576
815.986572,606
816.105164,582
816.223877,603
816.342529,615
816.461182,596
816.579895,578
816.698486,624
816.817139,593
816.935791,609
817.054504,605
817.173096,589
817.291748,602
817.4104,613
817.529053,576
817.647644,583
817.766235,580
817.884949,575
818.00354,565
818.122192,527
818.240845,550
818.359436,536
818.478088,526
818.59668,532
818.715271,528
818.833923,532
818.952515,524
819.071106,516
819.189758,509
819.30835,523
819.426941,498
819.545532,513
819.664124,521
819.782715,485
819.901306,515
820.019897,481
820.138489,510
820.25708,503
820.375671,468
820.494202,491
820.612732,492
820.731384,495
820.849915,489
820.968506,469
821.087097,469
821.205627,508
821.324158,479
821.442749,477
821.561279,477
821.679871,479
821.798401,504
821.916931,494
822.035461,473
822.154053,488
822.272583,505
822.391174,473
822.509583,492
822.628174,485
822.746704,473
822.865234,479
822.983765,459
823.102295,470
823.220825,462
823.339294,471
823.457825,480
823.576355,509
823.694824,485
823.813354,480
823.931885,474
824.050354,485
824.168884,493
824.287354,485
824.405823,496
824.524353,483
824.642822,464
824.761353,483
824.879822,496
824.998291,483
825.116699,482
825.235291,491
825.353699,473
825.472168,468
825.590637,473
825.709106,465
825.827576,475
825.946045,480
826.064453,463
826.182983,459
826.301392,463
826.4198,476
826.53833,479
826.656738,465
826.775208,442
826.893677,450
827.012024,458
827.130493,453
827.248962,471
827.36731,461
827.485779,464
827.604248,467
827.722595,450
827.841064,475
827.959412,483
828.077942,474
828.196289,454
828.314636,446
828.433105,474
828.551514,491
828.669861,462
828.78833,471
828.906677,448
829.025085,470
829.143433,465
829.261841,471
829.38031,460
829.498657,470
829.617004,450
829.735413,465
829.85376,461
829.972107,457
830.090515,461
830.208862,472
830.327209,466
830.445557,438
830.563904,459
830.682312,483
830.800659,458
830.919006,478
831.037354,447
831.155701,477
831.274048,469
831.392395,460
831.51062,445
831.629028,470
831.747314,454
831.865662,463
831.984009,442
832.102356,482
832.220642,464
832.338928,454
832.457275,463
832.575623,475
832.693909,448
832.812134,451
832.930481,456
833.048828,466
833.167114,476
833.2854,468
833.403687,447
833.521973,450
833.640259,457
833.758545,448
833.876831,449
833.995056,475
834.113281,469
834.231628,450
834.349915,459
834.468201,452
834.586426,447
834.704651,467
834.822998,472
834.941162,458
835.059448,454
835.177673,473
835.295959,456
835.414246,474
835.53241,462
835.650635,478
835.768921,464
835.887146,481
836.005371,473
836.123596,456
836.241821,475
836.360046,479
836.478271,471
836.596497,476
836.714722,471
836.832886,475
836.95105,468
837.069336,471
837.1875,478
837.305725,476
837.423889,482
837.542053,482
837.660339,471
837.778503,490
837.896667,470
838.014832,476
838.132996,475
838.25116,478
838.369385,483
838.487488,490
838.605713,477
838.723877,488
838.84198,479
838.960205,481
839.078308,484
839.196472,479
839.314636,466
839.4328,478
839.550964,459
839.669067,467
839.787231,468
839.905396,490
840.023499,455
840.141602,479
840.259766,463
840.377869,469
840.495972,449
840.614136,460
840.732239,471
840.850342,463
840.968445,468
841.086548,463
841.204651,452
841.322754,467
841.440918,448
841.55896,453
841.677002,472
841.795166,458
841.913208,432
842.031311,475
842.149353,467
842.267456,449
842.385498,446
842.503601,448
842.621643,462
842.739746,455
842.857788,438
842.97583,465
843.093933,457
843.211975,447
843.330017,478
843.44812,455
843.566101,470
843.684204,454
843.802246,442
843.920227,464
844.038269,446
844.156311,472
844.274292,455
844.392395,453
844.510376,451
844.628357,445
844.74646,455
844.864441,483
844.982422,458
845.100403,480
845.218384,449
845.336426,453
845.454468,473
845.572449,444
845.69043,452
845.808411,469
845.926453,450
846.044373,448
846.162354,448
846.280396,435
846.398315,453
846.516296,443
846.634216,427
846.752197,467
846.870178,441
846.988098,448
847.106079,444
847.22406,456
847.34198,449
847.4599,469
847.577881,431
847.695801,470
847.813782,455
847.931641,444
848.049561,455
848.167603,447
848.285461,459
848.403381,464
848.521362,456
848.639221,460
848.75708,435
848.875,438
848.99292,463
849.110901,468
849.22876,447
849.34668,477
849.464539,454
849.582458,451
849.700317,449
849.818176,465
849.936096,456
850.053955,451
850.171875,439
850.289673,460
850.407593,459
850.525452,460
850.643311,447
850.761169,454
850.878967,454
850.996887,455
851.114746,423
851.232544,467
851.350403,445
851.468262,460
851.58606,444
851.703979,498
851.821777,463
851.939636,450
852.057434,469
852.175232,446
852.293091,448
852.410889,454
852.528687,436
852.646545,456
852.764343,453
852.88208,476
852.999939,471
853.117676,491
853.235535,457
853.353271,440
853.471069,454
853.588928,456
853.706604,447
853.824402,467
853.9422,477
854.059998,473
854.177734,447
854.295532,468
854.413269,461
854.531006,463
854.648804,459
854.766541,463
854.884277,444
855.002014,478
855.119751,452
855.237549,451
855.355225,454
855.473022,472
855.590698,446
855.708435,461
855.826172,461
855.943848,455
856.061646,449
856.179321,479
856.296997,482
856.414795,468
856.53241,465
856.650085,474
856.767822,454
856.885559,446
857.003174,461
857.120911,475
857.238586,441
857.356201,479
857.473938,451
857.591614,451
857.709351,452
857.826965,468
857.944641,459
858.062317,461
858.179993,471
858.297668,457
858.415283,458
858.532959,468
858.650574,462
858.768188,445
858.885803,446
859.003479,463
859.121094,465
859.23877,466
859.356384,439
859.473999,468
859.591675,477
859.709229,470
859.826843,446
859.944458,457
860.062012,452
860.179626,485
860.297302,448
860.414856,472
860.532471,445
860.650024,458
860.767639,474
860.885193,470
861.002808,453
861.120361,463
861.237976,467
861.35553,436
861.473022,451
861.590698,452
861.708191,448
861.825745,467
861.943298,445
862.060852,466
862.178406,455
862.295959,453
862.413513,454
862.531006,461
862.64856,463
862.766113,462
862.883667,454
863.00116,480
863.118713,450
863.236206,459
863.353699,442
863.471252,456
863.588745,465
863.706177,467
863.82373,477
863.941162,489
864.058716,444
864.176208,448
864.29364,440
864.411194,467
864.528687,439
864.646118,453
864.763611,458
864.881042,454
864.998535,450
865.116028,455
865.233459,456
865.350891,464
865.468384,460
865.585754,484
865.703308,458
865.820679,444
865.938171,462
866.055542,465
866.173035,463
866.290466,458
866.407837,440
866.52533,474
866.6427,455
866.760071,453
866.877563,460
866.994934,470
867.112305,479
867.229736,450
867.347107,463
867.464539,449
867.58197,453
867.699341,466
867.81665,465
867.934082,466
868.051453,471
868.168823,465
868.286194,445
868.403564,473
868.520935,459
868.638306,454
868.755676,463
868.872986,471
868.990295,455
869.107727,464
869.225037,458
869.342346,456
869.459717,456
869.577026,476
869.694336,455
869.811707,455
869.929016,452
870.046326,464
870.163635,448
870.280945,461
870.398254,465
870.515564,452
870.632812,462
870.750183,480
870.867432,457
870.984741,458
871.102051,447
871.219299,453
871.336609,463
871.453918,458
871.571106,465
871.688416,471
871.805664,465
871.922852,461
872.040222,460
872.157471,470
872.274719,473
872.391968,479
872.509155,450
872.626465,472
872.743652,466
872.860962,467
872.978149,455
873.095337,429
873.212646,459
873.329834,462
873.44696,481
873.564209,463
873.681396,461
873.798645,462
873.915894,462
874.03302,461
874.150208,447
874.267456,457
874.384583,455
874.501831,475
874.618958,448
874.736145,469
874.853333,453
874.970459,480
875.087646,450
875.204834,459
875.32196,460
875.439148,476
875.556274,468
875.673401,467
875.790527,458
875.907715,460
876.024841,452
876.141968,461
876.259094,463
876.376282,471
876.493347,460
876.610474,460
876.7276,465
876.844727,480
876.961853,461
877.078918,468
877.195984,456
877.313171,483
877.430237,456
877.547302,474
877.664368,454
877.781433,458
877.898499,464
878.015625,468
878.13269,457
878.249695,458
878.366821,454
878.483887,461
878.600952,466
878.717957,469
878.834961,469
878.952087,454
879.069092,453
879.186157,459
879.303162,439
879.420227,463
879.537231,471
879.654236,479
879.77124,471
879.888306,480
880.005249,474
880.122314,462
880.239319,460
880.356323,478
880.473328,459
880.590271,461
880.707275,479
880.824341,488
880.941284,477
881.058228,468
881.175232,470
881.292236,469
881.40918,463
881.526123,475
881.643066,467
881.760071,467
881.877014,480
881.993958,471
882.11084,463
882.227783,465
882.344727,477
882.46167,465
882.578613,461
882.695618,457
882.812439,482
882.929382,480
883.046326,456
883.163208,461
883.280151,444
883.397034,466
883.513916,457
883.630798,458
883.747742,473
883.864563,447
883.981506,450
884.098389,469
884.21521,449
884.332153,478
884.448975,473
884.565796,462
884.682678,456
884.7995,462
884.916443,457
885.033264,462
885.150085,464
885.266968,479
885.383789,479
885.500671,473
885.617493,477
885.734314,453
885.851196,458
885.967896,460
886.084717,451
886.201599,485
886.318359,477
886.435181,483
886.552002,459
886.668762,485
886.785645,481
886.902344,504
887.019165,467
887.135925,456
887.252747,466
887.369446,479
887.486267,477
887.603027,450
887.719788,462
887.836548,479
887.953247,468
888.070068,458
888.186829,479
888.303528,474
888.420288,474
888.536987,481
888.653687,462
888.770447,480
888.887146,486
889.003967,481
889.120667,468
889.237305,447
889.354065,449
889.470703,460
889.587463,453
889.704163,476
889.820862,490
889.937561,478
890.054199,491
890.170837,486
890.287598,474
890.404236,481
890.520874,457
890.637634,485
890.754211,467
890.87085,475
890.987549,456
891.104187,471
891.220886,474
891.337463,478
891.454102,492
891.57074,473
891.687378,463
891.804077,488
891.920654,481
892.037231,497
892.15387,469
892.270447,477
892.387085,471
892.503723,479
892.6203,456
892.736877,490
892.853516,462
892.970032,481
893.08667,489
893.203186,477
893.319763,467
893.43634,493
893.552917,473
893.669556,480
893.786011,476
893.902588,480
894.019165,486
894.135681,474
894.252197,476
894.368835,478
894.485291,487
894.601868,488
894.718384,474
894.8349,473
894.951355,474
895.067932,473
895.184448,473
895.300964,462
895.417419,473
895.533936,468
895.650452,466
895.766907,465
895.883423,481
895.999878,488
896.116333,480
896.232849,480
896.349304,479
896.465759,463
896.582214,501
896.698669,471
896.815125,472
896.931641,464
897.048035,469
897.164551,473
897.280884,466
897.397339,473
897.513794,470
897.630249,498
897.746582,495
897.863098,483
897.979431,453
898.095886,459
898.212341,462
898.328674,465
898.445129,491
898.561462,470
898.677795,485
898.794312,488
898.910645,485
899.026978,486
899.143433,470
899.259766,485
899.37616,473
899.492493,479
899.608765,472
899.725159,492
899.841553,469
899.957947,469
900.07428,486
900.190552,494
900.306946,467
900.423157,481
900.53949,490
900.655884,478
900.772156,468
900.888489,477
901.004822,481
901.121033,475
901.237366,467
901.353699,494
901.46991,486
901.586304,483
901.702515,466
901.818787,468
901.93512,487
902.051331,475
902.167603,478
902.283875,481
902.400085,484
902.516418,476
902.632629,488
902.74884,499
902.865112,463
902.981384,479
903.097595,467
903.213867,490
903.330017,477
903.446289,496
903.5625,490
903.67865,479
903.794922,475
903.911072,478
904.027344,486
904.143494,481
904.259705,470
904.375916,491
904.492065,474
904.608215,491
904.724426,471
904.840576,489
904.956726,479
905.072876,478
905.189087,467
905.305176,487
905.421387,474
905.537537,493
905.653687,473
905.769775,468
905.885925,482
906.002014,478
906.118164,495
906.234314,477
906.350403,498
906.466492,488
906.582642,483
906.69873,483
906.814758,473
906.930908,476
907.046936,474
907.163086,482
907.279175,479
907.395264,481
907.511353,492
907.62738,474
907.743408,500
907.859497,474
907.975525,465
908.091553,488
908.207703,481
908.32373,487
908.439758,478
908.555786,481
908.671814,477
908.787842,506
908.90387,454
909.019775,474
909.135864,473
909.251892,473
909.367859,481
909.483826,496
909.599854,484
909.715881,495
909.831848,481
909.947815,487
910.063782,485
910.179749,504
910.295776,485
910.411743,453
910.527649,481
910.643616,479
910.759583,484
910.875488,506
910.991455,494
911.107361,473
911.223267,478
911.339294,498
911.4552,486
911.571106,491
911.687073,480
911.802979,482
911.918823,482
912.034729,494
912.150635,479
912.266602,468
912.382446,490
912.498352,487
912.614197,490
912.730103,488
912.846008,482
792.44574,601
792.56488,638
792.68396,651
792.80304,670
792.92218,599
793.041199,592
793.160339,586
793.279419,591
793.398499,611
793.517578,579
793.636658,557
793.755737,584
793.874817,624
793.993896,617
794.112976,591
794.232056,573
794.351074,593
794.470215,608
794.589233,581
794.708313,582
794.827393,575
794.946411,563
795.065552,608
795.18457,596
795.303589,562
795.422668,601
795.541687,572
795.660767,585
795.779846,570
795.898865,582
796.017883,591
796.136963,587
796.255981,593
796.375061,581
796.49408,576
796.613037,607
796.732117,570
796.851135,573
796.970154,556
797.089233,559
797.208191,572
797.327271,563
797.446228,583
797.565186,585
797.684265,563
797.803223,558
797.922241,554
798.04126,579
798.160278,565
798.279297,568
798.398315,562
798.517273,581
798.636292,570
798.75531,597
798.874268,594
798.993286,576
799.112244,565
799.231323,552
799.350281,562
799.469238,542
799.588257,581
799.707153,570
799.826111,560
799.945129,585
800.064087,570
800.183044,579
800.302063,558
800.421021,567
800.539978,571
800.658936,558
800.777893,616
800.896912,569
801.015747,541
801.134705,579
801.253723,559
801.37262,560
801.491638,575
801.610535,572
801.729492,559
801.84845,580
801.967407,578
802.086243,569
802.205261,586
802.324158,586
802.443115,567
802.562073,585
802.680969,558
802.799927,588
802.918762,587
803.037659,579
803.156677,589
803.275574,589
803.39447,577
803.513428,574
803.632263,592
803.751221,564
803.870117,566
803.989014,586
804.107971,569
804.226746,590
804.345642,608
804.4646,587
804.583496,612
804.702393,613
804.821228,573
804.940125,591
805.059021,584
805.177917,586
805.296814,590
805.415649,599
805.534546,601
805.653442,594
805.772278,586
805.891113,599
806.01001,582
806.128906,591
806.247742,596
806.366577,598
806.485413,598
806.604309,604
806.723145,597
806.84198,603
806.960876,578
807.079712,593
807.198486,612
807.317383,604
807.436218,602
807.554993,605
807.673889,614
807.792725,630
807.91156,585
808.030396,593
808.14917,601
808.268005,627
808.386841,608
808.505676,610
808.624451,599
808.743286,603
808.862122,609
808.980896,602
809.099731,603
809.218506,593
809.337341,625
809.456116,626
809.57489,612
809.693726,620
809.8125,619
809.931274,604
810.050049,623
810.168884,621
810.287659,617
810.406372,646
810.525269,608
810.643982,612
810.762756,634
810.881531,629
811.000305,604
811.11908,637
811.237854,608
811.356567,615
811.475403,595
811.594116,631
811.71283,622
811.831604,619
811.950378,614
812.069153,642
812.187927,629
812.30658,613
812.425415,617
812.544128,615
812.662781,616
812.781616,622
812.900269,614
813.019043,641
813.137756,589
813.256531,641
813.375244,618
813.493896,602
813.612671,613
813.731384,610
813.850037,629
813.96875,616
814.087524,629
814.206238,623
814.324951,631
814.443604,608
814.562256,594
814.68103,617
814.799683,607
814.918335,594
815.037109,613
815.155762,613
815.274475,611
815.393188,614
815.511841,602
815.630554,602
815.749146,607
815.867859,591
815.986572,586
816.105164,607
816.223877,621
816.342529,599
816.461182,598
816.579895,603
816.698486,610
816.817139,625
816.935791,598
817.054504,612
817.173096,588
817.291748,639
817.4104,614
817.529053,587
817.647644,596
817.766235,578
817.884949,569
818.00354,582
818.122192,553
818.240845,540
818.359436,550
818.478088,550
818.59668,532
818.715271,543
818.833923,529
818.952515,517
819.071106,515
819.189758,512
819.30835,515
819.426941,508
819.545532,513
819.664124,511
819.782715,485
819.901306,492
820.019897,483
820.138489,487
820.25708,491
820.375671,492
820.494202,506
820.612732,480
820.731384,493
820.849915,481
820.968506,489
821.087097,486
821.205627,477
821.324158,505
821.442749,479
821.561279,494
821.679871,491
821.798401,490
821.916931,489
822.035461,480
822.154053,482
822.272583,479
822.391174,477
822.509583,477
822.628174,473
822.746704,481
822.865234,473
822.983765,484
823.102295,473
823.220825,471
823.339294,493
823.457825,474
823.576355,496
823.694824,497
823.813354,486
823.931885,484
824.050354,502
824.168884,496
824.287354,488
824.405823,513
824.524353,478
824.642822,485
824.761353,507
824.879822,492
824.998291,507
825.116699,485
825.235291,496
825.353699,485
825.472168,487
825.590637,473
825.709106,473
825.827576,476
825.946045,475
826.064453,448
826.182983,497
826.301392,492
826.4198,450
826.53833,463
826.656738,484
826.775208,469
826.893677,481
827.012024,477
827.130493,454
827.248962,468
827.36731,481
827.485779,471
827.604248,486
827.722595,478
827.841064,452
827.959412,476
828.077942,468
828.196289,473
828.314636,449
828.433105,469
828.551514,460
828.669861,457
828.78833,475
828.906677,462
829.025085,471
829.143433,485
829.261841,465
829.38031,477
829.498657,456
829.617004,466
829.735413,482
829.85376,467
829.972107,465
830.090515,456
830.208862,447
830.327209,478
830.445557,468
830.563904,458
830.682312,455
830.800659,454
830.919006,459
831.037354,462
831.155701,461
831.274048,454
831.392395,473
831.51062,464
831.629028,465
831.747314,454
831.865662,455
831.984009,457
832.102356,467
832.220642,453
832.338928,460
832.457275,453
832.575623,484
832.693909,458
832.812134,463
832.930481,474
833.048828,470
833.167114,460
833.2854,481
833.403687,470
833.521973,474
833.640259,464
833.758545,468
833.876831,466
833.995056,450
834.113281,467
834.231628,463
834.349915,466
834.468201,458
834.586426,478
834.704651,484
834.822998,457
834.941162,477
835.059448,454
835.177673,449
835.295959,459
835.414246,445
835.53241,448
835.650635,446
835.768921,477
835.887146,461
836.005371,462
836.123596,472
836.241821,461
836.360046,463
836.478271,468
836.596497,497
836.714722,471
836.832886,461
836.95105,481
837.069336,489
837.1875,492
837.305725,487
837.423889,486
837.542053,460
837.660339,483
837.778503,472
837.896667,486
838.014832,479
838.132996,472
838.25116,480
838.369385,482
838.487488,461
838.605713,490
838.723877,479
838.84198,464
838.960205,477
839.078308,478
839.196472,470
839.314636,460
839.4328,493
839.550964,454
839.669067,478
839.787231,466
839.905396,467
840.023499,473
840.141602,481
840.259766,473
840.377869,493
840.495972,480
840.614136,472
840.732239,451
840.850342,474
840.968445,469
841.086548,476
841.204651,465
841.322754,472
841.440918,462
841.55896,464
841.677002,478
841.795166,463
841.913208,463
842.031311,472
842.149353,463
842.267456,469
842.385498,447
842.503601,468
842.621643,453
842.739746,460
842.857788,471
842.97583,463
843.093933,455
843.211975,473
843.330017,479
843.44812,457
843.566101,457
843.684204,464
843.802246,449
843.920227,444
844.038269,474
844.156311,451
844.274292,449
844.392395,465
844.510376,461
844.628357,442
844.74646,452
844.864441,448
844.982422,455
845.100403,465
845.218384,454
845.336426,441
845.454468,442
845.572449,451
845.69043,465
845.808411,463
845.926453,468
846.044373,427
846.162354,443
846.280396,441
846.398315,463
846.516296,456
846.634216,446
846.752197,441
846.870178,462
846.988098,460
847.106079,464
847.22406,464
847.34198,458
847.4599,463
847.577881,471
847.695801,452
847.813782,451
847.931641,464
848.049561,476
848.167603,442
848.285461,472
848.403381,423
848.521362,434
848.639221,463
848.75708,467
848.875,444
848.99292,469
849.110901,482
849.22876,459
849.34668,444
849.464539,456
849.582458,449
849.700317,451
849.818176,473
849.936096,455
850.053955,454
850.171875,487
850.289673,449
850.407593,456
850.525452,461
850.643311,443
850.761169,442
850.878967,449
850.996887,474
851.114746,461
851.232544,443
851.350403,463
851.468262,461
851.58606,450
851.703979,453
851.821777,469
851.939636,461
852.057434,456
852.175232,444
852.293091,473
852.410889,459
852.528687,451
852.646545,441
852.764343,465
852.88208,461
852.999939,461
853.117676,435
853.235535,468
853.353271,458
853.471069,472
853.588928,471
853.706604,466
853.824402,462
853.9422,471
854.059998,459
854.177734,451
854.295532,445
854.413269,448
854.531006,463
854.648804,457
854.766541,456
854.884277,463
855.002014,466
855.119751,472
855.237549,456
855.355225,447
855.473022,448
855.590698,477
855.708435,455
855.826172,449
855.943848,441
856.061646,464
856.179321,451
856.296997,468
856.414795,472
856.53241,481
856.650085,445
856.767822,476
856.885559,457
857.003174,463
857.120911,459
857.238586,466
857.356201,469
857.473938,461
857.591614,459
857.709351,500
857.826965,461
857.944641,466
858.062317,470
858.179993,456
858.297668,477
858.415283,464
858.532959,470
858.650574,467
858.768188,466
858.885803,454
859.003479,453
859.121094,463
859.23877,462
859.356384,458
859.473999,461
859.591675,451
859.709229,443
859.826843,474
859.944458,484
860.062012,470
860.179626,451
860.297302,446
860.414856,452
860.532471,460
860.650024,438
860.767639,458
860.885193,469
861.002808,449
861.120361,465
861.237976,463
861.35553,464
861.473022,478
861.590698,465
861.708191,476
861.825745,458
861.943298,458
862.060852,455
862.178406,472
862.295959,464
862.413513,472
862.531006,454
862.64856,479
862.766113,439
862.883667,457
863.00116,462
863.118713,459
863.236206,464
863.353699,463
863.471252,469
863.588745,462
863.706177,468
863.82373,460
863.941162,459
864.058716,465
864.176208,479
864.29364,458
864.411194,482
864.528687,467
864.646118,455
864.763611,469
864.881042,472
864.998535,472
865.116028,477
865.233459,473
865.350891,459
865.468384,484
865.585754,451
865.703308,470
865.820679,468
865.938171,454
866.055542,471
866.173035,469
866.290466,447
866.407837,472
866.52533,457
866.6427,477
866.760071,449
866.877563,471
866.994934,450
867.112305,464
867.229736,453
867.347107,444
867.464539,470
867.58197,473
867.699341,457
867.81665,476
867.934082,452
868.051453,472
868.168823,473
868.286194,467
868.403564,459
868.520935,477
868.638306,465
868.755676,475
868.872986,458
868.990295,453
869.107727,466
869.225037,475
869.342346,460
869.459717,460
869.577026,466
869.694336,469
869.811707,465
869.929016,472
870.046326,452
870.163635,470
870.280945,472
870.398254,471
870.515564,453
870.632812,474
870.750183,453
870.867432,470
870.984741,467
871.102051,486
871.219299,454
871.336609,465
871.453918,464
871.571106,453
871.688416,457
871.805664,475
871.922852,478
872.040222,457
872.157471,437
872.274719,465
872.391968,466
872.509155,463
872.626465,455
872.743652,444
872.860962,474
872.978149,462
873.095337,449
873.212646,470
873.329834,471
873.44696,453
873.564209,477
873.681396,461
873.798645,481
873.915894,457
874.03302,471
874.150208,463
874.267456,459
874.384583,474
874.501831,466
874.618958,470
874.736145,463
874.853333,466
874.970459,474
875.087646,488
875.204834,484
875.32196,469
875.439148,465
875.556274,460
875.673401,455
875.790527,457
875.907715,478
876.024841,460
876.141968,457
876.259094,455
876.376282,466
876.493347,475
876.610474,454
876.7276,458
876.844727,468
876.961853,461
877.078918,486
877.195984,452
877.313171,478
877.430237,475
877.547302,483
877.664368,462
877.781433,474
877.898499,461
878.015625,460
878.13269,484
878.249695,480
878.366821,480
878.483887,470
878.600952,484
878.717957,457
878.834961,457
878.952087,453
879.069092,478
879.186157,476
879.303162,464
879.420227,483
879.537231,468
879.654236,469
879.77124,492
879.888306,458
880.005249,476
880.122314,452
880.239319,486
880.356323,471
880.473328,469
880.590271,448
880.707275,475
880.824341,471
880.941284,482
881.058228,454
881.175232,477
881.292236,457
881.40918,470
881.526123,475
881.643066,478
881.760071,468
881.877014,471
881.993958,470
882.11084,483
882.227783,474
882.344727,481
882.46167,480
882.578613,492
882.695618,449
882.812439,462
882.929382,467
883.046326,462
883.163208,473
883.280151,464
883.397034,462
883.513916,460
883.630798,480
883.747742,475
883.864563,462
883.981506,490
884.098389,470
884.21521,465
884.332153,459
884.448975,460
884.565796,478
884.682678,463
884.7995,470
884.916443,487
885.033264,467
885.150085,482
885.266968,478
885.383789,470
885.500671,475
885.617493,473
885.734314,443
885.851196,497
885.967896,461
886.084717,469
886.201599,477
886.318359,469
886.435181,478
886.552002,482
886.668762,485
886.785645,481
886.902344,491
887.019165,474
887.135925,453
887.252747,488
887.369446,477
887.486267,482
887.603027,459
887.719788,481
887.836548,474
887.953247,471
888.070068,487
888.186829,477
888.303528,480
888.420288,491
888.536987,439
888.653687,473
888.770447,479
888.887146,493
889.003967,465
889.120667,481
889.237305,467
889.354065,480
889.470703,466
889.587463,484
889.704163,484
889.820862,466
889.937561,490
890.054199,462
890.170837,469
890.287598,465
890.404236,476
890.520874,463
890.637634,459
890.754211,472
890.87085,458
890.987549,476
891.104187,457
891.220886,459
891.337463,490
891.454102,482
891.57074,472
891.687378,476
891.804077,478
891.920654,487
892.037231,494
892.15387,494
892.270447,476
892.387085,491
892.503723,477
892.6203,486
892.736877,470
892.853516,469
892.970032,468
893.08667,470
893.203186,477
893.319763,477
893.43634,467
893.552917,487
893.669556,465
893.786011,478
893.902588,479
894.019165,485
894.135681,495
894.252197,492
894.368835,478
894.485291,493
894.601868,478
894.718384,484
894.8349,470
894.951355,477
895.067932,476
895.184448,494
895.300964,468
895.417419,491
895.533936,474
895.650452,494
895.766907,477
895.883423,492
895.999878,481
896.116333,485
896.232849,486
896.349304,491
896.465759,467
896.582214,468
896.698669,483
896.815125,482
896.931641,487
897.048035,494
897.164551,474
897.280884,471
897.397339,468
897.513794,484
897.630249,471
897.746582,483
897.863098,482
897.979431,483
898.095886,488
898.212341,472
898.328674,497
898.445129,471
898.561462,476
898.677795,486
898.794312,475
898.910645,478
899.026978,495
899.143433,499
899.259766,483
899.37616,478
899.492493,482
899.608765,480
899.725159,485
899.841553,464
899.957947,480
900.07428,490
900.190552,485
900.306946,492
900.423157,473
900.53949,471
900.655884,477
900.772156,480
900.888489,486
901.004822,489
901.121033,495
901.237366,462
901.353699,488
901.46991,481
901.586304,485
901.702515,508
901.818787,506
901.93512,476
902.051331,477
902.167603,479
902.283875,481
902.400085,493
902.516418,496
902.632629,482
902.74884,479
902.865112,491
902.981384,483
903.097595,488
903.213867,501
903.330017,506
903.446289,492
903.5625,485
903.67865,490
903.794922,498
903.911072,467
904.027344,478
904.143494,472
904.259705,507
904.375916,492
904.492065,503
904.608215,487
904.724426,485
904.840576,476
904.956726,502
905.072876,476
905.189087,498
905.305176,479
905.421387,471
905.537537,489
905.653687,504
905.769775,497
905.885925,486
906.002014,503
906.118164,502
906.234314,485
906.350403,484
906.466492,472
906.582642,491
906.69873,500
906.814758,495
906.930908,500
907.046936,486
907.163086,494
907.279175,505
907.395264,512
907.511353,482
907.62738,461
907.743408,475
907.859497,491
907.975525,467
908.091553,495
908.207703,478
908.32373,494
908.439758,482
908.555786,485
908.671814,511
908.787842,488
908.90387,487
909.019775,490
909.135864,488
909.251892,480
909.367859,487
909.483826,485
909.599854,476
909.715881,498
909.831848,483
909.947815,490
910.063782,498
910.179749,480
910.295776,504
910.411743,468
910.527649,487
910.643616,475
910.759583,485
910.875488,496
910.991455,510
911.107361,475
911.223267,483
911.339294,506
911.4552,483
911.571106,484
911.687073,485
911.802979,474
911.918823,480
912.034729,510
912.150635,508
912.266602,495
912.382446,474
912.498352,470
912.614197,500
912.730103,486
912.846008,492
792.44574,586
792.56488,636
792.68396,680
792.80304,645
792.92218,611
793.041199,593
793.160339,582
793.279419,596
793.398499,587
793.517578,594
793.636658,579
793.755737,590
793.874817,608
793.993896,615
794.112976,575
794.232056,585
794.351074,613
794.470215,576
794.589233,596
794.708313,586
794.827393,596
794.946411,608
795.065552,590
795.18457,571
795.303589,566
795.422668,561
795.541687,604
795.660767,582
795.779846,588
795.898865,551
796.017883,575
796.136963,589
796.255981,575
796.375061,572
796.49408,587
796.613037,577
796.732117,584
796.851135,579
796.970154,578
797.089233,564
797.208191,571
797.327271,593
797.446228,581
797.565186,576
797.684265,570
797.803223,576
797.922241,564
798.04126,580
798.160278,562
798.279297,590
798.398315,563
798.517273,592
798.636292,577
798.75531,569
798.874268,572
798.993286,592
799.112244,580
799.231323,583
799.350281,566
799.469238,584
799.588257,570
799.707153,574
799.826111,559
799.945129,559
800.064087,575
800.183044,589
800.302063,569
800.421021,550
800.539978,579
800.658936,554
800.777893,585
800.896912,557
801.015747,572
801.134705,565
801.253723,550
801.37262,596
801.491638,580
801.610535,572
801.729492,546
801.84845,564
801.967407,567
802.086243,566
802.205261,574
802.324158,588
802.443115,587
802.562073,587
802.680969,588
802.799927,567
802.918762,573
803.037659,606
803.156677,595
803.275574,577
803.39447,599
803.513428,574
803.632263,594
803.751221,578
803.870117,580
803.989014,590
804.107971,590
804.226746,579
804.345642,604
804.4646,580
804.583496,599
804.702393,583
804.821228,586
804.940125,601
805.059021,601
805.177917,594
805.296814,601
805.415649,592
805.534546,586
805.653442,588
805.772278,585
805.891113,593
806.01001,577
806.128906,599
806.247742,629
806.366577,616
806.485413,617
806.604309,612
806.723145,619
806.84198,599
806.960876,623
807.079712,602
807.198486,600
807.317383,608
807.436218,596
807.554993,596
807.673889,605
807.792725,588
807.91156,605
808.030396,609
808.14917,631
808.268005,594
808.386841,600
808.505676,620
808.624451,616
808.743286,582
808.862122,604
808.980896,611
809.099731,597
809.218506,616
809.337341,618
809.456116,634
809.57489,628
809.693726,610
809.8125,611
809.931274,613
810.050049,625
810.168884,627
810.287659,638
810.406372,630
810.525269,621
810.643982,626
810.762756,631
810.881531,619
811.000305,618
811.11908,623
811.237854,596
811.356567,613
811.475403,603
811.594116,594
811.71283,626
811.831604,632
811.950378,625
812.069153,631
812.187927,625
812.30658,613
812.425415,616
812.544128,618
812.662781,629
812.781616,641
812.900269,614
813.019043,628
813.137756,599
813.256531,616
813.375244,618
813.493896,637
813.612671,629
813.731384,606
813.850037,631
813.96875,615
814.087524,615
814.206238,616
814.324951,618
814.443604,622
814.562256,600
814.68103,603
814.799683,611
814.918335,597
815.037109,613
815.155762,601
815.274475,596
815.393188,602
815.511841,605
815.630554,616
815.749146,592
815.867859,596
815.986572,606
816.105164,563
816.223877,603
816.342529,608
816.461182,596
816.579895,617
816.698486,602
816.817139,579
816.935791,621
817.054504,605
817.173096,604
817.291748,586
817.4104,592
817.529053,585
817.647644,572
817.766235,571
817.884949,566
818.00354,556
818.122192,543
818.240845,539
818.359436,557
818.478088,528
818.59668,550
818.715271,527
818.833923,542
818.952515,507
819.071106,523
819.189758,516
819.30835,526
819.426941,509
819.545532,512
819.664124,492
819.782715,505
819.901306,492
820.019897,530
820.138489,499
820.25708,494
820.375671,507
820.494202,475
820.612732,485
820.731384,484
820.849915,479
820.968506,471
821.087097,504
821.205627,482
821.324158,489
821.442749,485
821.561279,491
821.679871,486
821.798401,480
821.916931,508
822.035461,478
822.154053,490
822.272583,469
822.391174,458
822.509583,499
822.628174,476
822.746704,486
822.865234,472
822.983765,500
823.102295,471
823.220825,477
823.339294,488
823.457825,477
823.576355,469
823.694824,484
823.813354,483
823.931885,499
824.050354,461
824.168884,476
824.287354,485
824.405823,478
824.524353,494
824.642822,472
824.761353,495
824.879822,497
824.998291,484
825.116699,481
825.235291,494
825.353699,485
825.472168,475
825.590637,469
825.709106,475
825.827576,472
825.946045,477
826.064453,486
826.182983,489
826.301392,478
826.4198,475
826.53833,476
826.656738,467
826.775208,472
826.893677,482
827.012024,493
827.130493,469
827.248962,461
827.36731,453
827.485779,491
827.604248,463
827.722595,452
827.841064,470
827.959412,472
828.077942,457
828.196289,465
828.314636,457
828.433105,461
828.551514,472
828.669861,458
828.78833,461
828.906677,450
829.025085,471
829.143433,469
829.261841,459
829.38031,449
829.498657,467
829.617004,470
829.735413,456
829.85376,456
829.972107,453
830.090515,452
830.208862,477
830.327209,464
830.445557,464
830.563904,452
830.682312,450
830.800659,455
830.919006,466
831.037354,453
831.155701,462
831.274048,472
831.392395,462
831.51062,462
831.629028,461
831.747314,466
831.865662,462
831.984009,464
832.102356,458
832.220642,472
832.338928,468
832.457275,464
832.575623,472
832.693909,458
832.812134,461
832.930481,467
833.048828,449
833.167114,458
833.2854,437
833.403687,455
833.521973,466
833.640259,467
833.758545,473
833.876831,458
833.995056,479
834.113281,469
834.231628,473
834.349915,464
834.468201,454
834.586426,456
834.704651,452
834.822998,469
834.941162,475
835.059448,459
835.177673,467
835.295959,438
835.414246,458
835.53241,471
835.650635,446
835.768921,448
835.887146,459
836.005371,485
836.123596,442
836.241821,453
836.360046,470
836.478271,468
836.596497,450
836.714722,458
836.832886,463
836.95105,476
837.069336,477
837.1875,471
837.305725,482
837.423889,467
837.542053,486
837.660339,480
837.778503,503
837.896667,478
838.014832,477
838.132996,471
838.25116,492
838.369385,468
838.487488,489
838.605713,475
838.723877,481
838.84198,464
838.960205,485
839.078308,498
839.196472,476
839.314636,474
839.4328,490
839.550964,454
839.669067,484
839.787231,461
839.905396,496
840.023499,476
840.141602,471
840.259766,471
840.377869,468
840.495972,466
840.614136,459
840.732239,463
840.850342,471
840.968445,456
841.086548,462
841.204651,468
841.322754,456
841.440918,460
841.55896,472
841.677002,447
841.795166,449
841.913208,485
842.031311,456
842.149353,454
842.267456,467
842.385498,455
842.503601,472
842.621643,454
842.739746,461
842.857788,457
842.97583,453
843.093933,457
843.211975,445
843.330017,448
843.44812,447
843.566101,461
843.684204,465
843.802246,444
843.920227,456
844.038269,477
844.156311,456
844.274292,469
844.392395,474
844.510376,460
844.628357,468
844.74646,457
844.864441,452
844.982422,439
845.100403,469
845.218384,442
845.336426,472
845.454468,451
845.572449,452
845.69043,463
845.808411,457
845.926453,434
846.044373,493
846.162354,466
846.280396,438
846.398315,464
846.516296,451
846.634216,454
846.752197,455
846.870178,448
846.988098,449
847.106079,470
847.22406,464
847.34198,452
847.4599,459
847.577881,444
847.695801,459
847.813782,455
847.931641,479
848.049561,463
848.167603,452
848.285461,444
848.403381,468
848.521362,477
848.639221,458
848.75708,443
848.875,474
848.99292,438
849.110901,441
849.22876,451
849.34668,465
849.464539,456
849.582458,465
849.700317,460
849.818176,455
849.936096,450
850.053955,476
850.171875,445
850.289673,445
850.407593,455
850.525452,467
850.643311,459
850.761169,456
850.878967,462
850.996887,458
851.114746,448
851.232544,440
851.350403,453
851.468262,460
851.58606,446
851.703979,446
851.821777,470
851.939636,474
852.057434,432
852.175232,461
852.293091,442
852.410889,474
852.528687,461
852.646545,469
852.764343,464
852.88208,461
852.999939,465
853.117676,455
853.235535,456
853.353271,463
853.471069,444
853.588928,450
853.706604,457
853.824402,471
853.9422,463
854.059998,460
854.177734,452
854.295532,456
854.413269,452
854.531006,466
854.648804,469
854.766541,466
854.884277,467
855.002014,450
855.119751,451
855.237549,449
855.355225,469
855.473022,448
855.590698,451
855.708435,457
855.826172,451
855.943848,467
856.061646,455
856.179321,475
856.296997,446
856.414795,485
856.53241,460
856.650085,501
856.767822,449
856.885559,478
857.003174,457
857.120911,482
857.238586,460
857.356201,458
857.473938,466
857.591614,455
857.709351,448
857.826965,484
857.944641,482
858.062317,462
858.179993,459
858.297668,463
858.415283,465
858.532959,462
858.650574,462
858.768188,445
858.885803,453
859.003479,450
859.121094,454
859.23877,448
859.356384,465
859.473999,466
859.591675,465
859.709229,474
859.826843,476
859.944458,465
860.062012,449
860.179626,456
860.297302,447
860.414856,447
860.532471,474
860.650024,463
860.767639,444
860.885193,440
861.002808,463
861.120361,455
861.237976,436
861.35553,474
861.473022,450
861.590698,465
861.708191,460
861.825745,472
861.943298,455
862.060852,458
862.178406,477
862.295959,471
862.413513,436
862.531006,455
862.64856,459
862.766113,444
862.883667,470
863.00116,460
863.118713,434
863.236206,474
863.353699,463
863.471252,467
863.588745,460
863.706177,478
863.82373,449
863.941162,449
864.058716,455
864.176208,456
864.29364,441
864.411194,463
864.528687,458
864.646118,481
864.763611,441
864.881042,462
864.998535,470
865.116028,460
865.233459,463
865.350891,451
865.468384,466
865.585754,470
865.703308,459
865.820679,459
865.938171,464
866.055542,465
866.173035,470
866.290466,459
866.407837,462
866.52533,481
866.6427,458
866.760071,480
866.877563,463
866.994934,477
867.112305,474
867.229736,478
867.347107,467
867.464539,473
867.58197,459
867.699341,453
867.81665,455
867.934082,454
868.051453,465
868.168823,480
868.286194,457
868.403564,448
868.520935,461
868.638306,461
868.755676,480
868.872986,456
868.990295,475
869.107727,439
869.225037,455
869.342346,460
869.459717,461
869.577026,472
869.694336,477
869.811707,461
869.929016,474
870.046326,474
870.163635,450
870.280945,477
870.398254,469
870.515564,470
870.632812,456
870.750183,475
870.867432,452
870.984741,459
871.102051,455
871.219299,458
871.336609,464
871.453918,464
871.571106,451
871.688416,475
871.805664,457
871.922852,472
872.040222,457
872.157471,460
872.274719,465
872.391968,460
872.509155,465
872.626465,480
872.743652,460
872.860962,471
872.978149,445
873.095337,484
873.212646,469
873.329834,460
873.44696,468
873.564209,465
873.681396,466
873.798645,459
873.915894,474
874.03302,465
874.150208,469
874.267456,466
874.384583,473
874.501831,465
874.618958,469
874.736145,467
874.853333,478
874.970459,459
875.087646,471
875.204834,453
875.32196,459
875.439148,457
875.556274,466
875.673401,460
875.790527,460
875.907715,471
876.024841,479
876.141968,470
876.259094,460
876.376282,479
876.493347,464
876.610474,473
876.7276,455
876.844727,471
876.961853,455
877.078918,451
877.195984,476
877.313171,478
877.430237,461
877.547302,464
877.664368,449
877.781433,474
877.898499,451
878.015625,468
878.13269,449
878.249695,464
878.366821,453
878.483887,469
878.600952,464
878.717957,482
878.834961,472
878.952087,470
879.069092,477
879.186157,477
879.303162,484
879.420227,481
879.537231,451
879.654236,471
879.77124,483
879.888306,468
880.005249,442
880.122314,458
880.239319,447
880.356323,471
880.473328,455
880.590271,450
880.707275,472
880.824341,475
880.941284,472
881.058228,458
881.175232,465
881.292236,467
881.40918,463
881.526123,479
881.643066,457
881.760071,458
881.877014,462
881.993958,480
882.11084,451
882.227783,479
882.344727,489
882.46167,481
882.578613,463
882.695618,492
882.812439,454
882.929382,477
883.046326,473
883.163208,489
883.280151,450
883.397034,468
883.513916,480
883.630798,487
883.747742,482
883.864563,454
883.981506,480
884.098389,461
884.21521,464
884.332153,474
884.448975,482
884.565796,468
884.682678,464
884.7995,478
884.916443,472
885.033264,483
885.150085,459
885.266968,483
885.383789,481
885.500671,487
885.617493,469
885.734314,487
885.851196,466
885.967896,472
886.084717,455
886.201599,480
886.318359,465
886.435181,466
886.552002,472
886.668762,482
886.785645,465
886.902344,487
887.019165,483
887.135925,472
887.252747,463
887.369446,458
887.486267,484
887.603027,472
887.719788,476
887.836548,481
887.953247,447
888.070068,464
888.186829,459
888.303528,484
888.420288,473
888.536987,476
888.653687,474
888.770447,479
888.887146,459
889.003967,483
889.120667,490
889.237305,461
889.354065,455
889.470703,504
889.587463,462
889.704163,484
889.820862,476
889.937561,477
890.054199,459
890.170837,487
890.287598,467
890.404236,471
890.520874,471
890.637634,471
890.754211,460
890.87085,466
890.987549,470
891.104187,485
891.220886,470
891.337463,470
891.454102,493
891.57074,483
891.687378,473
891.804077,486
891.920654,476
892.037231,471
892.15387,484
892.270447,501
892.387085,483
892.503723,470
892.6203,474
892.736877,477
892.853516,471
892.970032,501
893.08667,483
893.203186,494
893.319763,464
893.43634,515
893.552917,474
893.669556,461
893.786011,474
893.902588,474
894.019165,471
894.135681,492
894.252197,476
894.368835,487
894.485291,501
894.601868,480
894.718384,468
894.8349,495
894.951355,473
895.067932,485
895.184448,486
895.300964,494
895.417419,463
895.533936,483
895.650452,474
895.766907,499
895.883423,474
895.999878,493
896.116333,488
896.232849,497
896.349304,469
896.465759,491
896.582214,485
896.698669,501
896.815125,476
896.931641,487
897.048035,472
897.164551,501
897.280884,479
897.397339,491
897.513794,455
897.630249,493
897.746582,473
897.863098,481
897.979431,471
898.095886,488
898.212341,479
898.328674,494
898.445129,486
898.561462,483
898.677795,489
898.794312,487
898.910645,459
899.026978,481
899.143433,482
899.259766,496
899.37616,478
899.492493,483
899.608765,497
899.725159,479
899.841553,485
899.957947,475
900.07428,487
900.190552,470
900.306946,484
900.423157,499
900.53949,473
900.655884,483
900.772156,486
900.888489,509
901.004822,472
901.121033,476
901.237366,479
901.353699,483
901.46991,461
901.586304,492
901.702515,489
901.818787,483
901.93512,484
902.051331,497
902.167603,491
902.283875,494
902.400085,482
902.516418,484
902.632629,489
902.74884,493
902.865112,490
902.981384,505
903.097595,460
903.213867,506
903.330017,493
903.446289,500
903.5625,505
903.67865,494
903.794922,483
903.911072,511
904.027344,491
904.143494,492
904.259705,482
904.375916,463
904.492065,482
904.608215,503
904.724426,481
904.840576,484
904.956726,484
905.072876,471
905.189087,493
905.305176,489
905.421387,486
905.537537,488
905.653687,489
905.769775,492
905.885925,488
906.002014,482
906.118164,487
906.234314,469
906.350403,506
906.466492,483
906.582642,473
906.69873,493
906.814758,489
906.930908,478
907.046936,491
907.163086,495
907.279175,484
907.395264,479
907.511353,484
907.62738,489
907.743408,486
907.859497,491
907.975525,487
908.091553,510
908.207703,481
908.32373,490
908.439758,477
908.555786,488
908.671814,480
908.787842,484
908.90387,469
909.019775,483
909.135864,474
909.251892,482
909.367859,493
909.483826,471
909.599854,500
909.715881,486
909.831848,485
909.947815,506
910.063782,491
910.179749,479
910.295776,480
910.411743,477
910.527649,482
910.643616,475
910.759583,497
910.875488,492
910.991455,482
911.107361,478
911.223267,507
911.339294,496
911.4552,494
911.571106,507
911.687073,480
911.802979,492
911.918823,491
912.034729,480
912.150635,481
912.266602,492
912.382446,492
912.498352,484
912.614197,473
912.730103,508
912.846008,487
