792.44574,612
792.56488,640
792.68396,659
792.80304,655
792.92218,618
793.041199,572
793.160339,608
793.279419,582
793.398499,586
793.517578,559
793.636658,595
793.755737,598
793.874817,608
793.993896,594
794.112976,583
794.232056,559
794.351074,597
794.470215,573
794.589233,596
794.708313,580
794.827393,595
794.946411,551
795.065552,598
795.18457,580
795.303589,578
795.422668,579
795.541687,581
795.660767,569
795.779846,564
795.898865,572
796.017883,586
796.136963,579
796.255981,584
796.375061,568
796.49408,593
796.613037,594
796.732117,559
796.851135,627
796.970154,566
797.089233,574
797.208191,566
797.327271,561
797.446228,568
797.565186,545
797.684265,571
797.803223,562
797.922241,561
798.04126,561
798.160278,548
798.279297,556
798.398315,563
798.517273,571
798.636292,562
798.75531,586
798.874268,550
798.993286,576
799.112244,553
799.231323,557
799.350281,571
799.469238,566
799.588257,572
799.707153,592
799.826111,556
799.945129,552
800.064087,558
800.183044,553
800.302063,585
800.421021,587
800.539978,558
800.658936,565
800.777893,603
800.896912,573
801.015747,569
801.134705,558
801.253723,583
801.37262,570
801.491638,578
801.610535,563
801.729492,554
801.84845,571
801.967407,576
802.086243,562
802.205261,554
802.324158,574
802.443115,590
802.562073,589
802.680969,580
802.799927,562
802.918762,586
803.037659,581
803.156677,584
803.275574,586
803.39447,599
803.513428,566
803.632263,577
803.751221,558
803.870117,599
803.989014,587
804.107971,602
804.226746,598
804.345642,589
804.4646,587
804.583496,585
804.702393,585
804.821228,612
804.940125,588
805.059021,600
805.177917,588
805.296814,587
805.415649,583
805.534546,589
805.653442,577
805.772278,572
805.891113,593
806.01001,585
806.128906,599
806.247742,610
806.366577,600
806.485413,601
806.604309,603
806.723145,596
806.84198,593
806.960876,588
807.079712,579
807.198486,605
807.317383,581
807.436218,594
807.554993,606
807.673889,615
807.792725,584
807.91156,597
808.030396,602
808.14917,586
808.268005,593
808.386841,602
808.505676,604
808.624451,583
808.743286,585
808.862122,622
808.980896,601
809.099731,599
809.218506,627
809.337341,616
809.456116,619
809.57489,621
809.693726,617
809.8125,603
809.931274,615
810.050049,622
810.168884,609
810.287659,615
810.406372,612
810.525269,637
810.643982,599
810.762756,621
810.881531,608
811.000305,603
811.11908,627
811.237854,601
811.356567,591
811.475403,630
811.594116,622
811.71283,626
811.831604,595
811.950378,612
812.069153,614
812.187927,599
812.30658,627
812.425415,616
812.544128,614
812.662781,592
812.781616,601
812.900269,622
813.019043,614
813.137756,612
813.256531,623
813.375244,632
813.493896,615
813.612671,622
813.731384,599
813.850037,637
813.96875,584
814.087524,586
814.206238,607
814.324951,596
814.443604,611
814.562256,609
814.68103,611
814.799683,620
814.918335,585
815.037109,611
815.155762,598
815.274475,597
815.393188,584
815.511841,599
815.630554,600
815.749146,594
815.867859,615
815.986572,605
816.105164,584
816.223877,599
816.342529,594
816.461182,610
816.579895,589
816.698486,610
816.817139,619
816.935791,599
817.054504,587
817.173096,595
817.291748,620
817.4104,536
817.529053,586
817.647644,571
817.766235,574
817.884949,567
818.00354,564
818.122192,564
818.240845,546
818.359436,546
818.478088,541
818.59668,526
818.715271,543
818.833923,527
818.952515,520
819.071106,542
819.189758,498
819.30835,509
819.426941,517
819.545532,513
819.664124,472
819.782715,524
819.901306,492
820.019897,485
820.138489,502
820.25708,503
820.375671,476
820.494202,502
820.612732,495
820.731384,496
820.849915,492
820.968506,486
821.087097,485
821.205627,486
821.324158,485
821.442749,453
821.561279,494
821.679871,483
821.798401,490
821.916931,484
822.035461,478
822.154053,496
822.272583,479
822.391174,499
822.509583,469
822.628174,499
822.746704,477
822.865234,478
822.983765,485
823.102295,486
823.220825,480
823.339294,497
823.457825,486
823.576355,478
823.694824,470
823.813354,489
823.931885,478
824.050354,458
824.168884,461
824.287354,492
824.405823,505
824.524353,502
824.642822,491
824.761353,489
824.879822,476
824.998291,503
825.116699,487
825.235291,492
825.353699,472
825.472168,482
825.590637,469
825.709106,476
825.827576,472
825.946045,480
826.064453,462
826.182983,468
826.301392,484
826.4198,453
826.53833,485
826.656738,469
826.775208,475
826.893677,470
827.012024,466
827.130493,480
827.248962,467
827.36731,470
827.485779,463
827.604248,471
827.722595,463
827.841064,446
827.959412,471
828.077942,456
828.196289,454
828.314636,479
828.433105,448
828.551514,452
828.669861,457
828.78833,473
828.906677,472
829.025085,464
829.143433,465
829.261841,464
829.38031,454
829.498657,456
829.617004,460
829.735413,486
829.85376,461
829.972107,464
830.090515,446
830.208862,460
830.327209,454
830.445557,457
830.563904,454
830.682312,468
830.800659,461
830.919006,426
831.037354,450
831.155701,463
831.274048,464
831.392395,456
831.51062,455
831.629028,473
831.747314,458
831.865662,473
831.984009,443
832.102356,466
832.220642,459
832.338928,479
832.457275,456
832.575623,463
832.693909,455
832.812134,460
832.930481,454
833.048828,448
833.167114,446
833.2854,464
833.403687,445
833.521973,467
833.640259,472
833.758545,493
833.876831,460
833.995056,449
834.113281,443
834.231628,469
834.349915,462
834.468201,464
834.586426,472
834.704651,472
834.822998,462
834.941162,459
835.059448,470
835.177673,477
835.295959,476
835.414246,452
835.53241,464
835.650635,450
835.768921,450
835.887146,471
836.005371,462
836.123596,470
836.241821,462
836.360046,450
836.478271,455
836.596497,468
836.714722,477
836.832886,468
836.95105,458
837.069336,475
837.1875,474
837.305725,463
837.423889,468
837.542053,473
837.660339,477
837.778503,487
837.896667,457
838.014832,481
838.132996,458
838.25116,462
838.369385,483
838.487488,476
838.605713,484
838.723877,473
838.84198,493
838.960205,466
839.078308,462
839.196472,463
839.314636,466
839.4328,486
839.550964,471
839.669067,458
839.787231,472
839.905396,495
840.023499,492
840.141602,461
840.259766,467
840.377869,478
840.495972,475
840.614136,493
840.732239,464
840.850342,450
840.968445,471
841.086548,481
841.204651,476
841.322754,469
841.440918,446
841.55896,483
841.677002,454
841.795166,463
841.913208,444
842.031311,460
842.149353,435
842.267456,461
842.385498,459
842.503601,447
842.621643,441
842.739746,454
842.857788,444
842.97583,436
843.093933,446
843.211975,432
843.330017,458
843.44812,465
843.566101,452
843.684204,465
843.802246,447
843.920227,448
844.038269,466
844.156311,453
844.274292,421
844.392395,470
844.510376,440
844.628357,466
844.74646,463
844.864441,448
844.982422,453
845.100403,458
845.218384,440
845.336426,451
845.454468,454
845.572449,464
845.69043,449
845.808411,447
845.926453,440
846.044373,454
846.162354,441
846.280396,459
846.398315,435
846.516296,476
846.634216,444
846.752197,458
846.870178,448
846.988098,462
847.106079,466
847.22406,448
847.34198,448
847.4599,450
847.577881,465
847.695801,460
847.813782,444
847.931641,467
848.049561,451
848.167603,454
848.285461,437
848.403381,454
848.521362,444
848.639221,475
848.75708,458
848.875,461
848.99292,456
849.110901,457
849.22876,461
849.34668,456
849.464539,470
849.582458,461
849.700317,441
849.818176,442
849.936096,455
850.053955,452
850.171875,458
850.289673,438
850.407593,467
850.525452,450
850.643311,455
850.761169,459
850.878967,474
850.996887,469
851.114746,472
851.232544,461
851.350403,462
851.468262,470
851.58606,441
851.703979,461
851.821777,447
851.939636,448
852.057434,461
852.175232,473
852.293091,464
852.410889,469
852.528687,449
852.646545,466
852.764343,455
852.88208,457
852.999939,478
853.117676,469
853.235535,448
853.353271,466
853.471069,439
853.588928,481
853.706604,436
853.824402,468
853.9422,461
854.059998,474
854.177734,457
854.295532,465
854.413269,454
854.531006,481
854.648804,462
854.766541,462
854.884277,464
855.002014,470
855.119751,451
855.237549,473
855.355225,478
855.473022,466
855.590698,458
855.708435,461
855.826172,457
855.943848,467
856.061646,449
856.179321,453
856.296997,487
856.414795,463
856.53241,473
856.650085,468
856.767822,450
856.885559,457
857.003174,470
857.120911,473
857.238586,461
857.356201,440
857.473938,460
857.591614,459
857.709351,471
857.826965,454
857.944641,447
858.062317,464
858.179993,465
858.297668,467
858.415283,475
858.532959,469
858.650574,466
858.768188,456
858.885803,442
859.003479,455
859.121094,450
859.23877,459
859.356384,466
859.473999,462
859.591675,448
859.709229,447
859.826843,459
859.944458,464
860.062012,464
860.179626,468
860.297302,448
860.414856,461
860.532471,448
860.650024,460
860.767639,479
860.885193,458
861.002808,461
861.120361,449
861.237976,468
861.35553,457
861.473022,458
861.590698,469
861.708191,451
861.825745,458
861.943298,448
862.060852,450
862.178406,483
862.295959,445
862.413513,454
862.531006,468
862.64856,481
862.766113,467
862.883667,457
863.00116,465
863.118713,454
863.236206,451
863.353699,461
863.471252,467
863.588745,467
863.706177,467
863.82373,454
863.941162,468
864.058716,473
864.176208,467
864.29364,479
864.411194,458
864.528687,470
864.646118,453
864.763611,464
864.881042,471
864.998535,450
865.116028,469
865.233459,461
865.350891,445
865.468384,457
865.585754,442
865.703308,452
865.820679,449
865.938171,448
866.055542,480
866.173035,466
866.290466,446
866.407837,489
866.52533,459
866.6427,457
866.760071,465
866.877563,435
866.994934,466
867.112305,449
867.229736,447
867.347107,463
867.464539,474
867.58197,457
867.699341,460
867.81665,454
867.934082,485
868.051453,443
868.168823,500
868.286194,450
868.403564,439
868.520935,478
868.638306,475
868.755676,458
868.872986,455
868.990295,471
869.107727,468
869.225037,445
869.342346,483
869.459717,457
869.577026,451
869.694336,459
869.811707,466
869.929016,448
870.046326,476
870.163635,464
870.280945,470
870.398254,442
870.515564,456
870.632812,485
870.750183,467
870.867432,469
870.984741,466
871.102051,474
871.219299,458
871.336609,473
871.453918,489
871.571106,456
871.688416,445
871.805664,462
871.922852,454
872.040222,454
872.157471,466
872.274719,460
872.391968,480
872.509155,470
872.626465,477
872.743652,469
872.860962,461
872.978149,456
873.095337,490
873.212646,473
873.329834,462
873.44696,454
873.564209,461
873.681396,471
873.798645,469
873.915894,449
874.03302,450
874.150208,470
874.267456,451
874.384583,451
874.501831,434
874.618958,460
874.736145,460
874.853333,463
874.970459,446
875.087646,458
875.204834,459
875.32196,486
875.439148,467
875.556274,459
875.673401,463
875.790527,451
875.907715,460
876.024841,455
876.141968,453
876.259094,474
876.376282,487
876.493347,484
876.610474,468
876.7276,464
876.844727,458
876.961853,457
877.078918,479
877.195984,448
877.313171,464
877.430237,469
877.547302,469
877.664368,485
877.781433,449
877.898499,464
878.015625,468
878.13269,471
878.249695,455
878.366821,445
878.483887,466
878.600952,446
878.717957,469
878.834961,467
878.952087,459
879.069092,460
879.186157,469
879.303162,456
879.420227,467
879.537231,462
879.654236,466
879.77124,461
879.888306,448
880.005249,465
880.122314,473
880.239319,448
880.356323,458
880.473328,480
880.590271,480
880.707275,465
880.824341,460
880.941284,450
881.058228,474
881.175232,476
881.292236,473
881.40918,452
881.526123,477
881.643066,457
881.760071,478
881.877014,438
881.993958,464
882.11084,455
882.227783,457
882.344727,462
882.46167,460
882.578613,451
882.695618,483
882.812439,453
882.929382,458
883.046326,453
883.163208,457
883.280151,473
883.397034,478
883.513916,479
883.630798,466
883.747742,470
883.864563,487
883.981506,457
884.098389,482
884.21521,456
884.332153,485
884.448975,469
884.565796,476
884.682678,467
884.7995,476
884.916443,462
885.033264,470
885.150085,476
885.266968,474
885.383789,462
885.500671,460
885.617493,468
885.734314,467
885.851196,459
885.967896,463
886.084717,467
886.201599,482
886.318359,474
886.435181,459
886.552002,470
886.668762,471
886.785645,482
886.902344,480
887.019165,475
887.135925,468
887.252747,484
887.369446,478
887.486267,470
887.603027,478
887.719788,470
887.836548,491
887.953247,464
888.070068,487
888.186829,480
888.303528,479
888.420288,469
888.536987,473
888.653687,470
888.770447,474
888.887146,476
889.003967,473
889.120667,453
889.237305,481
889.354065,464
889.470703,465
889.587463,483
889.704163,466
889.820862,487
889.937561,491
890.054199,466
890.170837,476
890.287598,487
890.404236,490
890.520874,457
890.637634,451
890.754211,458
890.87085,487
890.987549,486
891.104187,467
891.220886,474
891.337463,465
891.454102,462
891.57074,473
891.687378,472
891.804077,481
891.920654,468
892.037231,479
892.15387,473
892.270447,481
892.387085,491
892.503723,478
892.6203,484
892.736877,486
892.853516,478
892.970032,471
893.08667,444
893.203186,474
893.319763,464
893.43634,498
893.552917,474
893.669556,494
893.786011,499
893.902588,474
894.019165,477
894.135681,487
894.252197,470
894.368835,473
894.485291,474
894.601868,484
894.718384,476
894.8349,488
894.951355,471
895.067932,488
895.184448,473
895.300964,488
895.417419,477
895.533936,466
895.650452,467
895.766907,463
895.883423,484
895.999878,460
896.116333,459
896.232849,491
896.349304,484
896.465759,491
896.582214,474
896.698669,487
896.815125,487
896.931641,482
897.048035,487
897.164551,480
897.280884,473
897.397339,488
897.513794,473
897.630249,467
897.746582,476
897.863098,474
897.979431,475
898.095886,512
898.212341,476
898.328674,476
898.445129,472
898.561462,474
898.677795,495
898.794312,485
898.910645,461
899.026978,492
899.143433,489
899.259766,497
899.37616,473
899.492493,489
899.608765,453
899.725159,482
899.841553,481
899.957947,506
900.07428,453
900.190552,469
900.306946,472
900.423157,484
900.53949,475
900.655884,453
900.772156,495
900.888489,476
901.004822,487
901.121033,471
901.237366,496
901.353699,495
901.46991,488
901.586304,502
901.702515,472
901.818787,473
901.93512,479
902.051331,480
902.167603,476
902.283875,491
902.400085,474
902.516418,505
902.632629,466
902.74884,481
902.865112,473
902.981384,473
903.097595,471
903.213867,473
903.330017,484
903.446289,488
903.5625,488
903.67865,494
903.794922,483
903.911072,486
904.027344,482
904.143494,484
904.259705,462
904.375916,476
904.492065,496
904.608215,500
904.724426,472
904.840576,489
904.956726,472
905.072876,490
905.189087,476
905.305176,514
905.421387,469
905.537537,480
905.653687,502
905.769775,473
905.885925,482
906.002014,496
906.118164,485
906.234314,492
906.350403,483
906.466492,469
906.582642,462
906.69873,478
906.814758,478
906.930908,508
907.046936,492
907.163086,506
907.279175,481
907.395264,495
907.511353,482
907.62738,460
907.743408,483
907.859497,489
907.975525,484
908.091553,505
908.207703,490
908.32373,495
908.439758,489
908.555786,485
908.671814,485
908.787842,497
908.90387,494
909.019775,485
909.135864,477
909.251892,479
909.367859,478
909.483826,480
909.599854,489
909.715881,493
909.831848,468
909.947815,474
910.063782,498
910.179749,493
910.295776,483
910.411743,505
910.527649,490
910.643616,484
910.759583,502
910.875488,497
910.991455,476
911.107361,477
911.223267,484
911.339294,483
911.4552,487
911.571106,495
911.687073,506
911.802979,487
911.918823,474
912.034729,496
912.150635,500
912.266602,512
912.382446,472
912.498352,504
912.614197,485
912.730103,484
912.846008,486
792.44574,599
792.56488,614
792.68396,680
792.80304,664
792.92218,611
793.041199,602
793.160339,612
793.279419,588
793.398499,632
793.517578,565
793.636658,590
793.755737,601
793.874817,637
793.993896,614
794.112976,588
794.232056,587
794.351074,591
794.470215,599
794.589233,590
794.708313,583
794.827393,596
794.946411,594
795.065552,591
795.18457,598
795.303589,615
795.422668,592
795.541687,582
795.660767,564
795.779846,561
795.898865,576
796.017883,581
796.136963,566
796.255981,584
796.375061,550
796.49408,574
796.613037,556
796.732117,559
796.851135,586
796.970154,573
797.089233,580
797.208191,562
797.327271,564
797.446228,576
797.565186,563
797.684265,583
797.803223,559
797.922241,574
798.04126,567
798.160278,569
798.279297,565
798.398315,551
798.517273,581
798.636292,586
798.75531,545
798.874268,588
798.993286,559
799.112244,591
799.231323,569
799.350281,570
799.469238,575
799.588257,567
799.707153,558
799.826111,581
799.945129,582
800.064087,587
800.183044,569
800.302063,545
800.421021,567
800.539978,573
800.658936,564
800.777893,587
800.896912,550
801.015747,568
801.134705,559
801.253723,581
801.37262,562
801.491638,592
801.610535,578
801.729492,594
801.84845,566
801.967407,570
802.086243,569
802.205261,577
802.324158,577
802.443115,571
802.562073,591
802.680969,602
802.799927,593
802.918762,593
803.037659,580
803.156677,591
803.275574,597
803.39447,584
803.513428,601
803.632263,586
803.751221,597
803.870117,565
803.989014,573
804.107971,575
804.226746,611
804.345642,578
804.4646,597
804.583496,587
804.702393,576
804.821228,588
804.940125,567
805.059021,595
805.177917,598
805.296814,590
805.415649,602
805.534546,614
805.653442,588
805.772278,581
805.891113,597
806.01001,579
806.128906,600
806.247742,587
806.366577,605
806.485413,596
806.604309,578
806.723145,619
806.84198,600
806.960876,598
807.079712,603
807.198486,633
807.317383,617
807.436218,601
807.554993,629
807.673889,569
807.792725,604
807.91156,631
808.030396,615
808.14917,604
808.268005,596
808.386841,625
808.505676,608
808.624451,593
808.743286,599
808.862122,607
808.980896,601
809.099731,621
809.218506,612
809.337341,612
809.456116,620
809.57489,609
809.693726,612
809.8125,612
809.931274,609
810.050049,599
810.168884,628
810.287659,638
810.406372,613
810.525269,614
810.643982,602
810.762756,628
810.881531,598
811.000305,632
811.11908,597
811.237854,616
811.356567,601
811.475403,605
811.594116,611
811.71283,625
811.831604,627
811.950378,616
812.069153,599
812.187927,631
812.30658,607
812.425415,642
812.544128,622
812.662781,601
812.781616,621
812.900269,604
813.019043,600
813.137756,612
813.256531,615
813.375244,609
813.493896,612
813.612671,650
813.731384,614
813.850037,633
813.96875,625
814.087524,595
814.206238,608
814.324951,591
814.443604,605
814.562256,622
814.68103,604
814.799683,619
814.918335,587
815.037109,619
815.155762,603
815.274475,617
815.393188,586
815.511841,600
815.630554,595
815.749146,592
815.867859,593
815.986572,619
816.105164,595
816.223877,595
816.342529,578
816.461182,583
816.579895,603
816.698486,633
816.817139,598
816.935791,606
817.054504,600
817.173096,601
817.291748,615
817.4104,600
817.529053,589
817.647644,574
817.766235,573
817.884949,559
818.00354,575
818.122192,567
818.240845,567
818.359436,547
818.478088,557
818.59668,541
818.715271,527
818.833923,544
818.952515,530
819.071106,523
819.189758,497
819.30835,510
819.426941,491
819.545532,501
819.664124,496
819.782715,513
819.901306,506
820.019897,494
820.138489,507
820.25708,518
820.375671,471
820.494202,497
820.612732,505
820.731384,509
820.849915,493
820.968506,502
821.087097,467
821.205627,470
821.324158,471
821.442749,479
821.561279,496
821.679871,485
821.798401,472
821.916931,492
822.035461,492
822.154053,494
822.272583,477
822.391174,487
822.509583,463
822.628174,491
822.746704,487
822.865234,477
822.983765,481
823.102295,466
823.220825,502
823.339294,474
823.457825,480
823.576355,491
823.694824,472
823.813354,476
823.931885,490
824.050354,492
824.168884,475
824.287354,491
824.405823,467
824.524353,475
824.642822,478
824.761353,487
824.879822,489
824.998291,491
825.116699,465
825.235291,489
825.353699,500
825.472168,492
825.590637,473
825.709106,473
825.827576,477
825.946045,464
826.064453,476
826.182983,485
826.301392,449
826.4198,487
826.53833,471
826.656738,468
826.775208,478
826.893677,458
827.012024,470
827.130493,445
827.248962,457
827.36731,480
827.485779,466
827.604248,461
827.722595,464
827.841064,462
827.959412,459
828.077942,465
828.196289,462
828.314636,468
828.433105,467
828.551514,445
828.669861,444
828.78833,460
828.906677,459
829.025085,452
829.143433,460
829.261841,492
829.38031,463
829.498657,485
829.617004,459
829.735413,464
829.85376,465
829.972107,464
830.090515,459
830.208862,468
830.327209,477
830.445557,457
830.563904,454
830.682312,466
830.800659,455
830.919006,454
831.037354,466
831.155701,468
831.274048,453
831.392395,448
831.51062,441
831.629028,445
831.747314,464
831.865662,463
831.984009,438
832.102356,443
832.220642,470
832.338928,468
832.457275,465
832.575623,456
832.693909,456
832.812134,460
832.930481,448
833.048828,462
833.167114,448
833.2854,467
833.403687,456
833.521973,460
833.640259,452
833.758545,471
833.876831,443
833.995056,461
834.113281,474
834.231628,452
834.349915,453
834.468201,468
834.586426,466
834.704651,464
834.822998,452
834.941162,483
835.059448,461
835.177673,469
835.295959,456
835.414246,480
835.53241,451
835.650635,483
835.768921,454
835.887146,445
836.005371,461
836.123596,466
836.241821,434
836.360046,459
836.478271,468
836.596497,457
836.714722,460
836.832886,475
836.95105,481
837.069336,468
837.1875,460
837.305725,486
837.423889,463
837.542053,464
837.660339,459
837.778503,486
837.896667,474
838.014832,493
838.132996,471
838.25116,494
838.369385,474
838.487488,501
838.605713,479
838.723877,486
838.84198,469
838.960205,474
839.078308,470
839.196472,485
839.314636,448
839.4328,500
839.550964,471
839.669067,478
839.787231,471
839.905396,464
840.023499,481
840.141602,470
840.259766,456
840.377869,458
840.495972,485
840.614136,474
840.732239,473
840.850342,466
840.968445,457
841.086548,453
841.204651,463
841.322754,464
841.440918,480
841.55896,461
841.677002,448
841.795166,486
841.913208,434
842.031311,474
842.149353,467
842.267456,460
842.385498,440
842.503601,457
842.621643,453
842.739746,458
842.857788,446
842.97583,449
843.093933,454
843.211975,446
843.330017,453
843.44812,464
843.566101,456
843.684204,463
843.802246,450
843.920227,452
844.038269,457
844.156311,478
844.274292,457
844.392395,455
844.510376,445
844.628357,464
844.74646,450
844.864441,455
844.982422,433
845.100403,444
845.218384,449
845.336426,458
845.454468,449
845.572449,466
845.69043,433
845.808411,463
845.926453,472
846.044373,453
846.162354,451
846.280396,465
846.398315,454
846.516296,451
846.634216,457
846.752197,447
846.870178,448
846.988098,466
847.106079,444
847.22406,459
847.34198,450
847.4599,457
847.577881,456
847.695801,453
847.813782,467
847.931641,459
848.049561,472
848.167603,448
848.285461,467
848.403381,471
848.521362,435
848.639221,466
848.75708,452
848.875,473
848.99292,451
849.110901,441
849.22876,458
849.34668,448
849.464539,456
849.582458,472
849.700317,455
849.818176,452
849.936096,460
850.053955,451
850.171875,454
850.289673,443
850.407593,461
850.525452,470
850.643311,434
850.761169,472
850.878967,466
850.996887,472
851.114746,446
851.232544,449
851.350403,447
851.468262,457
851.58606,444
851.703979,463
851.821777,470
851.939636,449
852.057434,468
852.175232,465
852.293091,453
852.410889,454
852.528687,464
852.646545,467
852.764343,440
852.88208,456
852.999939,458
853.117676,460
853.235535,466
853.353271,446
853.471069,453
853.588928,473
853.706604,433
853.824402,466
853.9422,471
854.059998,461
854.177734,466
854.295532,446
854.413269,445
854.531006,457
854.648804,448
854.766541,447
854.884277,448
855.002014,462
855.119751,443
855.237549,463
855.355225,478
855.473022,467
855.590698,460
855.708435,455
855.826172,461
855.943848,464
856.061646,462
856.179321,459
856.296997,460
856.414795,464
856.53241,453
856.650085,469
856.767822,448
856.885559,459
857.003174,467
857.120911,465
857.238586,472
857.356201,482
857.473938,460
857.591614,458
857.709351,466
857.826965,459
857.944641,467
858.062317,466
858.179993,449
858.297668,472
858.415283,457
858.532959,460
858.650574,455
858.768188,455
858.885803,463
859.003479,462
859.121094,451
859.23877,476
859.356384,476
859.473999,463
859.591675,458
859.709229,446
859.826843,468
859.944458,465
860.062012,471
860.179626,475
860.297302,463
860.414856,476
860.532471,468
860.650024,467
860.767639,454
860.885193,462
861.002808,449
861.120361,471
861.237976,472
861.35553,450
861.473022,458
861.590698,461
861.708191,460
861.825745,458
861.943298,449
862.060852,472
862.178406,468
862.295959,483
862.413513,469
862.531006,457
862.64856,459
862.766113,447
862.883667,456
863.00116,453
863.118713,457
863.236206,478
863.353699,481
863.471252,468
863.588745,451
863.706177,465
863.82373,474
863.941162,462
864.058716,466
864.176208,448
864.29364,473
864.411194,468
864.528687,473
864.646118,470
864.763611,460
864.881042,475
864.998535,446
865.116028,465
865.233459,450
865.350891,473
865.468384,436
865.585754,460
865.703308,459
865.820679,462
865.938171,473
866.055542,481
866.173035,447
866.290466,470
866.407837,480
866.52533,477
866.6427,454
866.760071,485
866.877563,472
866.994934,463
867.112305,460
867.229736,469
867.347107,467
867.464539,465
867.58197,467
867.699341,470
867.81665,473
867.934082,474
868.051453,475
868.168823,462
868.286194,444
868.403564,478
868.520935,457
868.638306,462
868.755676,458
868.872986,480
868.990295,470
869.107727,476
869.225037,453
869.342346,489
869.459717,500
869.577026,459
869.694336,436
869.811707,450
869.929016,473
870.046326,466
870.163635,458
870.280945,485
870.398254,474
870.515564,458
870.632812,482
870.750183,481
870.867432,462
870.984741,488
871.102051,468
871.219299,464
871.336609,464
871.453918,476
871.571106,458
871.688416,487
871.805664,459
871.922852,465
872.040222,455
872.157471,474
872.274719,449
872.391968,453
872.509155,469
872.626465,481
872.743652,471
872.860962,440
872.978149,464
873.095337,480
873.212646,450
873.329834,454
873.44696,458
873.564209,456
873.681396,473
873.798645,460
873.915894,459
874.03302,469
874.150208,497
874.267456,478
874.384583,443
874.501831,471
874.618958,465
874.736145,458
874.853333,457
874.970459,468
875.087646,466
875.204834,460
875.32196,459
875.439148,480
875.556274,473
875.673401,461
875.790527,472
875.907715,485
876.024841,459
876.141968,484
876.259094,470
876.376282,466
876.493347,484
876.610474,461
876.7276,455
876.844727,464
876.961853,458
877.078918,464
877.195984,459
877.313171,490
877.430237,443
877.547302,459
877.664368,475
877.781433,475
877.898499,458
878.015625,465
878.13269,457
878.249695,478
878.366821,474
878.483887,465
878.600952,479
878.717957,478
878.834961,466
878.952087,451
879.069092,461
879.186157,466
879.303162,456
879.420227,470
879.537231,460
879.654236,474
879.77124,473
879.888306,461
880.005249,481
880.122314,465
880.239319,465
880.356323,473
880.473328,475
880.590271,469
880.707275,481
880.824341,468
880.941284,478
881.058228,471
881.175232,472
881.292236,470
881.40918,461
881.526123,475
881.643066,466
881.760071,492
881.877014,458
881.993958,465
882.11084,477
882.227783,468
882.344727,464
882.46167,459
882.578613,456
882.695618,459
882.812439,463
882.929382,478
883.046326,464
883.163208,464
883.280151,484
883.397034,464
883.513916,479
883.630798,465
883.747742,487
883.864563,482
883.981506,452
884.098389,493
884.21521,465
884.332153,470
884.448975,477
884.565796,470
884.682678,480
884.7995,460
884.916443,463
885.033264,466
885.150085,469
885.266968,474
885.383789,463
885.500671,471
885.617493,464
885.734314,486
885.851196,492
885.967896,475
886.084717,462
886.201599,483
886.318359,497
886.435181,477
886.552002,460
886.668762,467
886.785645,461
886.902344,479
887.019165,467
887.135925,483
887.252747,468
887.369446,464
887.486267,461
887.603027,454
887.719788,450
887.836548,462
887.953247,473
888.070068,464
888.186829,483
888.303528,472
888.420288,468
888.536987,466
888.653687,470
888.770447,477
888.887146,469
889.003967,460
889.120667,475
889.237305,474
889.354065,472
889.470703,456
889.587463,462
889.704163,467
889.820862,479
889.937561,468
890.054199,490
890.170837,484
890.287598,467
890.404236,482
890.520874,476
890.637634,500
890.754211,478
890.87085,459
890.987549,464
891.104187,471
891.220886,491
891.337463,489
891.454102,482
891.57074,469
891.687378,475
891.804077,507
891.920654,480
892.037231,475
892.15387,476
892.270447,477
892.387085,479
892.503723,490
892.6203,481
892.736877,475
892.853516,478
892.970032,499
893.08667,473
893.203186,497
893.319763,471
893.43634,491
893.552917,475
893.669556,482
893.786011,493
893.902588,492
894.019165,481
894.135681,488
894.252197,467
894.368835,467
894.485291,466
894.601868,498
894.718384,476
894.8349,487
894.951355,474
895.067932,483
895.184448,454
895.300964,492
895.417419,476
895.533936,490
895.650452,476
895.766907,468
895.883423,475
895.999878,479
896.116333,486
896.232849,482
896.349304,463
896.465759,472
896.582214,467
896.698669,477
896.815125,494
896.931641,479
897.048035,483
897.164551,490
897.280884,499
897.397339,478
897.513794,466
897.630249,482
897.746582,467
897.863098,491
897.979431,465
898.095886,477
898.212341,491
898.328674,488
898.445129,483
898.561462,482
898.677795,474
898.794312,504
898.910645,471
899.026978,489
899.143433,484
899.259766,484
899.37616,484
899.492493,494
899.608765,478
899.725159,481
899.841553,504
899.957947,481
900.07428,468
900.190552,495
900.306946,485
900.423157,486
900.53949,492
900.655884,499
900.772156,489
900.888489,482
901.004822,482
901.121033,482
901.237366,476
901.353699,472
901.46991,485
901.586304,482
901.702515,473
901.818787,488
901.93512,470
902.051331,491
902.167603,473
902.283875,487
902.400085,484
902.516418,504
902.632629,494
902.74884,495
902.865112,474
902.981384,471
903.097595,499
903.213867,506
903.330017,479
903.446289,500
903.5625,486
903.67865,476
903.794922,481
903.911072,491
904.027344,486
904.143494,491
904.259705,482
904.375916,495
904.492065,498
904.608215,484
904.724426,497
904.840576,485
904.956726,496
905.072876,479
905.189087,477
905.305176,500
905.421387,512
905.537537,511
905.653687,498
905.769775,505
905.885925,491
906.002014,485
906.118164,481
906.234314,492
906.350403,471
906.466492,484
906.582642,488
906.69873,497
906.814758,489
906.930908,506
907.046936,494
907.163086,497
907.279175,483
907.395264,483
907.511353,505
907.62738,469
907.743408,484
907.859497,503
907.975525,474
908.091553,493
908.207703,490
908.32373,498
908.439758,505
908.555786,502
908.671814,492
908.787842,498
908.90387,496
909.019775,477
909.135864,480
909.251892,476
909.367859,498
909.483826,494
909.599854,489
909.715881,508
909.831848,501
909.947815,493
910.063782,491
910.179749,473
910.295776,479
910.411743,502
910.527649,475
910.643616,499
910.759583,487
910.875488,483
910.991455,497
911.107361,491
911.223267,497
911.339294,493
911.4552,498
911.571106,486
911.687073,492
911.802979,501
911.918823,480
912.034729,489
912.150635,483
912.266602,509
912.382446,498
912.498352,522
912.614197,486
912.730103,479
912.846008,489
792.44574,603
792.56488,636
792.68396,646
792.80304,645
792.92218,591
793.041199,590
793.160339,582
793.279419,626
793.398499,596
793.517578,577
793.636658,569
793.755737,607
793.874817,621
793.993896,597
794.112976,580
794.232056,606
794.351074,569
794.470215,605
794.589233,579
794.708313,567
794.827393,574
794.946411,584
795.065552,557
795.18457,607
795.303589,584
795.422668,586
795.541687,585
795.660767,558
795.779846,570
795.898865,577
796.017883,562
796.136963,618
796.255981,566
796.375061,579
796.49408,583
796.613037,596
796.732117,574
796.851135,580
796.970154,567
797.089233,584
797.208191,566
797.327271,554
797.446228,589
797.565186,608
797.684265,572
797.803223,555
797.922241,596
798.04126,568
798.160278,577
798.279297,558
798.398315,559
798.517273,566
798.636292,565
798.75531,583
798.874268,554
798.993286,586
799.112244,581
799.231323,562
799.350281,562
799.469238,569
799.588257,574
799.707153,576
799.826111,562
799.945129,555
800.064087,561
800.183044,551
800.302063,585
800.421021,599
800.539978,572
800.658936,569
800.777893,573
800.896912,576
801.015747,581
801.134705,579
801.253723,562
801.37262,565
801.491638,576
801.610535,571
801.729492,576
801.84845,587
801.967407,554
802.086243,581
802.205261,588
802.324158,583
802.443115,586
802.562073,590
802.680969,568
802.799927,552
802.918762,573
803.037659,586
803.156677,591
803.275574,586
803.39447,573
803.513428,571
803.632263,575
803.751221,572
803.870117,559
803.989014,580
804.107971,568
804.226746,592
804.345642,600
804.4646,593
804.583496,590
804.702393,577
804.821228,590
804.940125,597
805.059021,594
805.177917,564
805.296814,600
805.415649,595
805.534546,593
805.653442,592
805.772278,600
805.891113,611
806.01001,594
806.128906,609
806.247742,575
806.366577,601
806.485413,611
806.604309,608
806.723145,595
806.84198,577
806.960876,587
807.079712,616
807.198486,585
807.317383,599
807.436218,606
807.554993,614
807.673889,634
807.792725,613
807.91156,589
808.030396,588
808.14917,619
808.268005,601
808.386841,612
808.505676,599
808.624451,609
808.743286,607
808.862122,597
808.980896,595
809.099731,585
809.218506,619
809.337341,600
809.456116,600
809.57489,632
809.693726,622
809.8125,594
809.931274,613
810.050049,639
810.168884,622
810.287659,616
810.406372,610
810.525269,611
810.643982,590
810.762756,618
810.881531,632
811.000305,606
811.11908,631
811.237854,614
811.356567,616
811.475403,591
811.594116,638
811.71283,614
811.831604,609
811.950378,608
812.069153,621
812.187927,609
812.30658,621
812.425415,601
812.544128,624
812.662781,599
812.781616,627
812.900269,624
813.019043,609
813.137756,626
813.256531,617
813.375244,620
813.493896,627
813.612671,623
813.731384,624
813.850037,612
813.96875,637
814.087524,633
814.206238,609
814.324951,622
814.443604,610
814.562256,635
814.68103,601
814.799683,601
814.918335,617
815.037109,603
815.155762,606
815.274475,613
815.393188,609
815.511841,592
815.630554,606
815.749146,583
815.867859,599
815.986572,606
816.105164,618
816.223877,588
816.342529,579
816.461182,607
816.579895,578
816.698486,595
816.817139,632
816.935791,591
817.054504,627
817.173096,619
817.291748,602
817.4104,596
817.529053,586
817.647644,588
817.766235,571
817.884949,597
818.00354,572
818.122192,559
818.240845,568
818.359436,540
818.478088,544
818.59668,546
818.715271,526
818.833923,516
818.952515,513
819.071106,523
819.189758,524
819.30835,509
819.426941,506
819.545532,501
819.664124,493
819.782715,490
819.901306,506
820.019897,516
820.138489,499
820.25708,491
820.375671,512
820.494202,460
820.612732,506
820.731384,472
820.849915,471
820.968506,484
821.087097,497
821.205627,478
821.324158,485
821.442749,496
821.561279,486
821.679871,494
821.798401,475
821.916931,460
822.035461,502
822.154053,477
822.272583,500
822.391174,468
822.509583,474
822.628174,462
822.746704,486
822.865234,477
822.983765,488
823.102295,461
823.220825,496
823.339294,475
823.457825,467
823.576355,466
823.694824,473
823.813354,491
823.931885,474
824.050354,489
824.168884,492
824.287354,488
824.405823,500
824.524353,484
824.642822,490
824.761353,489
824.879822,489
824.998291,476
825.116699,502
825.235291,476
825.353699,506
825.472168,481
825.590637,469
825.709106,471
825.827576,471
825.946045,460
826.064453,487
826.182983,460
826.301392,486
826.4198,478
826.53833,488
826.656738,466
826.775208,461
826.893677,480
827.012024,482
827.130493,485
827.248962,465
827.36731,473
827.485779,463
827.604248,480
827.722595,468
827.841064,472
827.959412,463
828.077942,482
828.196289,457
828.314636,455
828.433105,471
828.551514,458
828.669861,448
828.78833,454
828.906677,464
829.025085,470
829.143433,460
829.261841,469
829.38031,471
829.498657,455
829.617004,476
829.735413,459
829.85376,468
829.972107,471
830.090515,459
830.208862,468
830.327209,474
830.445557,451
830.563904,458
830.682312,486
830.800659,460
830.919006,446
831.037354,458
831.155701,469
831.274048,462
831.392395,446
831.51062,479
831.629028,467
831.747314,458
831.865662,455
831.984009,468
832.102356,447
832.220642,464
832.338928,451
832.457275,463
832.575623,472
832.693909,467
832.812134,468
832.930481,459
833.048828,468
833.167114,467
833.2854,460
833.403687,455
833.521973,463
833.640259,466
833.758545,441
833.876831,453
833.995056,461
834.113281,456
834.231628,451
834.349915,457
834.468201,466
834.586426,471
834.704651,455
834.822998,461
834.941162,474
835.059448,462
835.177673,483
835.295959,464
835.414246,457
835.53241,466
835.650635,464
835.768921,460
835.887146,450
836.005371,476
836.123596,444
836.241821,476
836.360046,438
836.478271,487
836.596497,466
836.714722,472
836.832886,459
836.95105,482
837.069336,469
837.1875,481
837.305725,486
837.423889,465
837.542053,480
837.660339,486
837.778503,472
837.896667,487
838.014832,456
838.132996,486
838.25116,465
838.369385,488
838.487488,483
838.605713,480
838.723877,453
838.84198,468
838.960205,484
839.078308,467
839.196472,481
839.314636,466
839.4328,464
839.550964,488
839.669067,465
839.787231,478
839.905396,476
840.023499,470
840.141602,484
840.259766,476
840.377869,471
840.495972,459
840.614136,480
840.732239,474
840.850342,472
840.968445,463
841.086548,495
841.204651,464
841.322754,466
841.440918,483
841.55896,476
841.677002,473
841.795166,462
841.913208,471
842.031311,458
842.149353,459
842.267456,468
842.385498,454
842.503601,462
842.621643,461
842.739746,446
842.857788,452
842.97583,459
843.093933,469
843.211975,464
843.330017,444
843.44812,449
843.566101,454
843.684204,452
843.802246,454
843.920227,459
844.038269,465
844.156311,451
844.274292,484
844.392395,444
844.510376,449
844.628357,461
844.74646,467
844.864441,479
844.982422,473
845.100403,430
845.218384,464
845.336426,451
845.454468,464
845.572449,458
845.69043,464
845.808411,470
845.926453,452
846.044373,457
846.162354,441
846.280396,462
846.398315,450
846.516296,448
846.634216,468
846.752197,439
846.870178,450
846.988098,456
847.106079,482
847.22406,452
847.34198,462
847.4599,463
847.577881,460
847.695801,450
847.813782,459
847.931641,448
848.049561,445
848.167603,438
848.285461,458
848.403381,458
848.521362,460
848.639221,464
848.75708,453
848.875,452
848.99292,464
849.110901,462
849.22876,462
849.34668,448
849.464539,449
849.582458,462
849.700317,464
849.818176,450
849.936096,473
850.053955,451
850.171875,460
850.289673,455
850.407593,462
850.525452,447
850.643311,445
850.761169,466
850.878967,466
850.996887,430
851.114746,471
851.232544,448
851.350403,447
851.468262,468
851.58606,453
851.703979,471
851.821777,447
851.939636,461
852.057434,468
852.175232,437
852.293091,467
852.410889,446
852.528687,472
852.646545,440
852.764343,464
852.88208,460
852.999939,457
853.117676,457
853.235535,446
853.353271,463
853.471069,434
853.588928,470
853.706604,474
853.824402,466
853.9422,448
854.059998,429
854.177734,441
854.295532,445
854.413269,460
854.531006,457
854.648804,447
854.766541,462
854.884277,448
855.002014,458
855.119751,461
855.237549,468
855.355225,461
855.473022,461
855.590698,481
855.708435,454
855.826172,455
855.943848,449
856.061646,468
856.179321,457
856.296997,464
856.414795,476
856.53241,448
856.650085,465
856.767822,488
856.885559,461
857.003174,483
857.120911,466
857.238586,466
857.356201,460
857.473938,451
857.591614,461
857.709351,468
857.826965,473
857.944641,460
858.062317,470
858.179993,471
858.297668,467
858.415283,462
858.532959,460
858.650574,456
858.768188,472
858.885803,454
859.003479,478
859.121094,473
859.23877,449
859.356384,453
859.473999,460
859.591675,463
859.709229,457
859.826843,459
859.944458,455
860.062012,464
860.179626,472
860.297302,473
860.414856,472
860.532471,466
860.650024,461
860.767639,439
860.885193,477
861.002808,468
861.120361,452
861.237976,481
861.35553,467
861.473022,454
861.590698,471
861.708191,471
861.825745,455
861.943298,461
862.060852,455
862.178406,468
862.295959,458
862.413513,460
862.531006,466
862.64856,460
862.766113,449
862.883667,462
863.00116,456
863.118713,456
863.236206,460
863.353699,449
863.471252,473
863.588745,462
863.706177,460
863.82373,471
863.941162,474
864.058716,497
864.176208,454
864.29364,463
864.411194,466
864.528687,465
864.646118,468
864.763611,446
864.881042,453
864.998535,474
865.116028,465
865.233459,466
865.350891,460
865.468384,477
865.585754,493
865.703308,470
865.820679,482
865.938171,465
866.055542,465
866.173035,471
866.290466,482
866.407837,470
866.52533,476
866.6427,465
866.760071,462
866.877563,476
866.994934,470
867.112305,471
867.229736,456
867.347107,478
867.464539,444
867.58197,462
867.699341,465
867.81665,461
867.934082,451
868.051453,459
868.168823,476
868.286194,481
868.403564,460
868.520935,478
868.638306,463
868.755676,477
868.872986,481
868.990295,457
869.107727,468
869.225037,474
869.342346,461
869.459717,489
869.577026,441
869.694336,471
869.811707,448
869.929016,478
870.046326,461
870.163635,471
870.280945,453
870.398254,477
870.515564,450
870.632812,468
870.750183,466
870.867432,454
870.984741,442
871.102051,468
871.219299,462
871.336609,463
871.453918,465
871.571106,454
871.688416,459
871.805664,478
871.922852,449
872.040222,456
872.157471,461
872.274719,459
872.391968,460
872.509155,463
872.626465,452
872.743652,458
872.860962,471
872.978149,452
873.095337,471
873.212646,460
873.329834,462
873.44696,485
873.564209,440
873.681396,463
873.798645,452
873.915894,471
874.03302,462
874.150208,477
874.267456,485
874.384583,469
874.501831,457
874.618958,479
874.736145,458
874.853333,470
874.970459,461
875.087646,472
875.204834,468
875.32196,463
875.439148,448
875.556274,475
875.673401,466
875.790527,462
875.907715,468
876.024841,472
876.141968,473
876.259094,459
876.376282,468
876.493347,460
876.610474,468
876.7276,466
876.844727,463
876.961853,473
877.078918,485
877.195984,480
877.313171,464
877.430237,457
877.547302,483
877.664368,491
877.781433,468
877.898499,479
878.015625,464
878.13269,478
878.249695,462
878.366821,463
878.483887,477
878.600952,485
878.717957,467
878.834961,453
878.952087,471
879.069092,489
879.186157,464
879.303162,477
879.420227,476
879.537231,475
879.654236,476
879.77124,469
879.888306,488
880.005249,457
880.122314,475
880.239319,475
880.356323,465
880.473328,451
880.590271,466
880.707275,471
880.824341,475
880.941284,479
881.058228,457
881.175232,497
881.292236,467
881.40918,456
881.526123,466
881.643066,467
881.760071,468
881.877014,478
881.993958,472
882.11084,471
882.227783,456
882.344727,467
882.46167,489
882.578613,479
882.695618,461
882.812439,491
882.929382,461
883.046326,459
883.163208,473
883.280151,462
883.397034,472
883.513916,470
883.630798,482
883.747742,476
883.864563,453
883.981506,505
884.098389,455
884.21521,478
884.332153,477
884.448975,467
884.565796,479
884.682678,468
884.7995,479
884.916443,458
885.033264,473
885.150085,480
885.266968,478
885.383789,472
885.500671,463
885.617493,470
885.734314,470
885.851196,458
885.967896,485
886.084717,494
886.201599,474
886.318359,493
886.435181,474
886.552002,457
886.668762,484
886.785645,479
886.902344,473
887.019165,480
887.135925,454
887.252747,463
887.369446,474
887.486267,472
887.603027,486
887.719788,467
887.836548,465
887.953247,477
888.070068,471
888.186829,465
888.303528,476
888.420288,463
888.536987,473
888.653687,484
888.770447,481
888.887146,471
889.003967,489
889.120667,457
889.237305,485
889.354065,478
889.470703,496
889.587463,460
889.704163,461
889.820862,458
889.937561,485
890.054199,478
890.170837,488
890.287598,469
890.404236,472
890.520874,457
890.637634,476
890.754211,494
890.87085,463
890.987549,480
891.104187,480
891.220886,477
891.337463,472
891.454102,480
891.57074,465
891.687378,491
891.804077,480
891.920654,470
892.037231,471
892.15387,471
892.270447,469
892.387085,481
892.503723,491
892.6203,479
892.736877,503
892.853516,493
892.970032,476
893.08667,491
893.203186,490
893.319763,486
893.43634,505
893.552917,490
893.669556,467
893.786011,487
893.902588,493
894.019165,481
894.135681,495
894.252197,477
894.368835,495
894.485291,486
894.601868,481
894.718384,494
894.8349,479
894.951355,473
895.067932,498
895.184448,478
895.300964,499
895.417419,470
895.533936,481
895.650452,467
895.766907,484
895.883423,490
895.999878,476
896.116333,498
896.232849,491
896.349304,476
896.465759,475
896.582214,491
896.698669,484
896.815125,499
896.931641,469
897.048035,465
897.164551,491
897.280884,479
897.397339,482
897.513794,502
897.630249,488
897.746582,478
897.863098,471
897.979431,485
898.095886,479
898.212341,455
898.328674,493
898.445129,497
898.561462,493
898.677795,477
898.794312,493
898.910645,487
899.026978,487
899.143433,507
899.259766,471
899.37616,482
899.492493,481
899.608765,498
899.725159,492
899.841553,491
899.957947,507
900.07428,492
900.190552,486
900.306946,481
900.423157,482
900.53949,497
900.655884,486
900.772156,489
900.888489,478
901.004822,504
901.121033,490
901.237366,482
901.353699,469
901.46991,474
901.586304,476
901.702515,487
901.818787,472
901.93512,484
902.051331,513
902.167603,482
902.283875,505
902.400085,488
902.516418,519
902.632629,498
902.74884,497
902.865112,488
902.981384,498
903.097595,482
903.213867,495
903.330017,529
903.446289,486
903.5625,483
903.67865,476
903.794922,502
903.911072,503
904.027344,480
904.143494,514
904.259705,471
904.375916,493
904.492065,501
904.608215,472
904.724426,504
904.840576,488
904.956726,491
905.072876,485
905.189087,497
905.305176,495
905.421387,509
905.537537,488
905.653687,483
905.769775,505
905.885925,499
906.002014,485
906.118164,483
906.234314,485
906.350403,493
906.466492,506
906.582642,482
906.69873,487
906.814758,469
906.930908,479
907.046936,494
907.163086,484
907.279175,478
907.395264,490
907.511353,488
907.62738,489
907.743408,486
907.859497,499
907.975525,486
908.091553,517
908.207703,486
908.32373,498
908.439758,515
908.555786,476
908.671814,510
908.787842,479
908.90387,466
909.019775,482
909.135864,486
909.251892,474
909.367859,496
909.483826,497
909.599854,477
909.715881,481
909.831848,504
909.947815,483
910.063782,478
910.179749,505
910.295776,491
910.411743,501
910.527649,497
910.643616,488
910.759583,491
910.875488,491
910.991455,496
911.107361,502
911.223267,502
911.339294,489
911.4552,494
911.571106,487
911.687073,492
911.802979,491
911.918823,475
912.034729,480
912.150635,537
912.266602,505
912.382446,489
912.498352,502
912.614197,477
912.730103,494
912.846008,505
