792.44574,597
792.56488,633
792.68396,672
792.80304,648
792.92218,589
793.041199,575
793.160339,600
793.279419,596
793.398499,622
793.517578,572
793.636658,573
793.755737,595
793.874817,620
793.993896,604
794.112976,560
794.232056,577
794.351074,561
794.470215,582
794.589233,602
794.708313,576
794.827393,584
794.946411,569
795.065552,580
795.18457,587
795.303589,566
795.422668,580
795.541687,540
795.660767,564
795.779846,581
795.898865,573
796.017883,562
796.136963,545
796.255981,551
796.375061,552
796.49408,569
796.613037,560
796.732117,566
796.851135,567
796.970154,548
797.089233,560
797.208191,575
797.327271,551
797.446228,555
797.565186,572
797.684265,580
797.803223,550
797.922241,574
798.04126,564
798.160278,555
798.279297,543
798.398315,553
798.517273,544
798.636292,560
798.75531,548
798.874268,564
798.993286,544
799.112244,538
799.231323,542
799.350281,553
799.469238,555
799.588257,553
799.707153,550
799.826111,552
799.945129,561
800.064087,563
800.183044,553
800.302063,547
800.421021,564
800.539978,527
800.658936,561
800.777893,560
800.896912,547
801.015747,525
801.134705,537
801.253723,549
801.37262,553
801.491638,552
801.610535,568
801.729492,571
801.84845,564
801.967407,562
802.086243,574
802.205261,574
802.324158,545
802.443115,569
802.562073,549
802.680969,569
802.799927,555
802.918762,561
803.037659,554
803.156677,564
803.275574,543
803.39447,576
803.513428,554
803.632263,553
803.751221,589
803.870117,544
803.989014,563
804.107971,562
804.226746,569
804.345642,574
804.4646,568
804.583496,549
804.702393,543
804.821228,570
804.940125,568
805.059021,557
805.177917,580
805.296814,597
805.415649,585
805.534546,575
805.653442,585
805.772278,546
805.891113,570
806.01001,583
806.128906,564
806.247742,566
806.366577,569
806.485413,561
806.604309,550
806.723145,566
806.84198,581
806.960876,575
807.079712,571
807.198486,564
807.317383,563
807.436218,555
807.554993,558
807.673889,579
807.792725,564
807.91156,580
808.030396,568
808.14917,575
808.268005,587
808.386841,593
808.505676,590
808.624451,586
808.743286,598
808.862122,586
808.980896,577
809.099731,592
809.218506,553
809.337341,581
809.456116,591
809.57489,584
809.693726,589
809.8125,584
809.931274,578
810.050049,599
810.168884,588
810.287659,606
810.406372,572
810.525269,591
810.643982,598
810.762756,572
810.881531,596
811.000305,611
811.11908,596
811.237854,580
811.356567,584
811.475403,585
811.594116,606
811.71283,585
811.831604,592
811.950378,574
812.069153,564
812.187927,587
812.30658,578
812.425415,591
812.544128,593
812.662781,597
812.781616,576
812.900269,570
813.019043,592
813.137756,579
813.256531,581
813.375244,584
813.493896,577
813.612671,584
813.731384,597
813.850037,598
813.96875,575
814.087524,592
814.206238,560
814.324951,579
814.443604,575
814.562256,567
814.68103,567
814.799683,586
814.918335,584
815.037109,576
815.155762,573
815.274475,566
815.393188,605
815.511841,564
815.630554,584
815.749146,579
815.867859,575
815.986572,587
816.105164,570
816.223877,568
816.342529,572
816.461182,572
816.579895,575
816.698486,567
816.817139,599
816.935791,586
817.054504,549
817.173096,583
817.291748,561
817.4104,579
817.529053,580
817.647644,552
817.766235,577
817.884949,526
818.00354,532
818.122192,541
818.240845,526
818.359436,519
818.478088,509
818.59668,516
818.715271,537
818.833923,500
818.952515,506
819.071106,512
819.189758,503
819.30835,483
819.426941,495
819.545532,499
819.664124,503
819.782715,478
819.901306,494
820.019897,496
820.138489,490
820.25708,484
820.375671,497
820.494202,474
820.612732,480
820.731384,490
820.849915,507
820.968506,473
821.087097,484
821.205627,493
821.324158,483
821.442749,468
821.561279,479
821.679871,476
821.798401,472
821.916931,473
822.035461,490
822.154053,483
822.272583,475
822.391174,460
822.509583,479
822.628174,466
822.746704,481
822.865234,469
822.983765,480
823.102295,461
823.220825,482
823.339294,471
823.457825,459
823.576355,471
823.694824,483
823.813354,483
823.931885,470
824.050354,478
824.168884,501
824.287354,474
824.405823,479
824.524353,475
824.642822,488
824.761353,497
824.879822,478
824.998291,478
825.116699,474
825.235291,470
825.353699,488
825.472168,483
825.590637,476
825.709106,467
825.827576,480
825.946045,449
826.064453,484
826.182983,461
826.301392,498
826.4198,462
826.53833,453
826.656738,481
826.775208,459
826.893677,460
827.012024,484
827.130493,451
827.248962,471
827.36731,485
827.485779,471
827.604248,466
827.722595,478
827.841064,476
827.959412,482
828.077942,465
828.196289,460
828.314636,445
828.433105,469
828.551514,461
828.669861,483
828.78833,465
828.906677,456
829.025085,471
829.143433,449
829.261841,456
829.38031,478
829.498657,451
829.617004,468
829.735413,443
829.85376,450
829.972107,456
830.090515,450
830.208862,461
830.327209,456
830.445557,463
830.563904,448
830.682312,452
830.800659,457
830.919006,442
831.037354,450
831.155701,472
831.274048,464
831.392395,449
831.51062,469
831.629028,460
831.747314,445
831.865662,481
831.984009,480
832.102356,471
832.220642,470
832.338928,460
832.457275,468
832.575623,451
832.693909,464
832.812134,470
832.930481,466
833.048828,463
833.167114,454
833.2854,459
833.403687,457
833.521973,474
833.640259,460
833.758545,440
833.876831,464
833.995056,461
834.113281,464
834.231628,480
834.349915,442
834.468201,472
834.586426,462
834.704651,454
834.822998,464
834.941162,447
835.059448,458
835.177673,458
835.295959,475
835.414246,457
835.53241,480
835.650635,463
835.768921,463
835.887146,457
836.005371,465
836.123596,445
836.241821,467
836.360046,472
836.478271,473
836.596497,452
836.714722,488
836.832886,480
836.95105,454
837.069336,485
837.1875,453
837.305725,462
837.423889,456
837.542053,498
837.660339,482
837.778503,478
837.896667,443
838.014832,473
838.132996,464
838.25116,477
838.369385,489
838.487488,457
838.605713,463
838.723877,454
838.84198,476
838.960205,474
839.078308,460
839.196472,467
839.314636,461
839.4328,462
839.550964,464
839.669067,463
839.787231,492
839.905396,484
840.023499,474
840.141602,459
840.259766,499
840.377869,475
840.495972,470
840.614136,481
840.732239,467
840.850342,456
840.968445,455
841.086548,460
841.204651,449
841.322754,470
841.440918,463
841.55896,467
841.677002,465
841.795166,449
841.913208,472
842.031311,474
842.149353,461
842.267456,448
842.385498,465
842.503601,464
842.621643,448
842.739746,450
842.857788,469
842.97583,452
843.093933,460
843.211975,448
843.330017,451
843.44812,454
843.566101,451
843.684204,432
843.802246,466
843.920227,460
844.038269,440
844.156311,460
844.274292,474
844.392395,459
844.510376,461
844.628357,452
844.74646,451
844.864441,456
844.982422,452
845.100403,447
845.218384,449
845.336426,453
845.454468,458
845.572449,468
845.69043,469
845.808411,450
845.926453,458
846.044373,438
846.162354,460
846.280396,457
846.398315,481
846.516296,432
846.634216,456
846.752197,442
846.870178,444
846.988098,457
847.106079,432
847.22406,443
847.34198,463
847.4599,446
847.577881,470
847.695801,460
847.813782,449
847.931641,433
848.049561,463
848.167603,445
848.285461,466
848.403381,462
848.521362,458
848.639221,463
848.75708,454
848.875,466
848.99292,457
849.110901,461
849.22876,460
849.34668,468
849.464539,465
849.582458,456
849.700317,461
849.818176,450
849.936096,465
850.053955,483
850.171875,463
850.289673,466
850.407593,460
850.525452,467
850.643311,449
850.761169,458
850.878967,469
850.996887,455
851.114746,438
851.232544,448
851.350403,458
851.468262,451
851.58606,462
851.703979,457
851.821777,457
851.939636,456
852.057434,462
852.175232,442
852.293091,460
852.410889,452
852.528687,454
852.646545,447
852.764343,467
852.88208,477
852.999939,466
853.117676,468
853.235535,477
853.353271,457
853.471069,457
853.588928,436
853.706604,449
853.824402,469
853.9422,466
854.059998,456
854.177734,461
854.295532,438
854.413269,442
854.531006,463
854.648804,471
854.766541,468
854.884277,460
855.002014,460
855.119751,459
855.237549,460
855.355225,446
855.473022,465
855.590698,460
855.708435,469
855.826172,460
855.943848,448
856.061646,465
856.179321,457
856.296997,448
856.414795,477
856.53241,464
856.650085,449
856.767822,454
856.885559,481
857.003174,483
857.120911,472
857.238586,464
857.356201,454
857.473938,451
857.591614,457
857.709351,458
857.826965,454
857.944641,459
858.062317,472
858.179993,455
858.297668,460
858.415283,458
858.532959,444
858.650574,488
858.768188,458
858.885803,482
859.003479,462
859.121094,452
859.23877,454
859.356384,466
859.473999,433
859.591675,469
859.709229,468
859.826843,462
859.944458,444
860.062012,465
860.179626,459
860.297302,481
860.414856,473
860.532471,461
860.650024,461
860.767639,465
860.885193,448
861.002808,459
861.120361,463
861.237976,464
861.35553,462
861.473022,484
861.590698,449
861.708191,457
861.825745,466
861.943298,450
862.060852,477
862.178406,466
862.295959,471
862.413513,440
862.531006,452
862.64856,461
862.766113,453
862.883667,455
863.00116,465
863.118713,473
863.236206,469
863.353699,448
863.471252,460
863.588745,476
863.706177,454
863.82373,466
863.941162,446
864.058716,457
864.176208,471
864.29364,460
864.411194,452
864.528687,459
864.646118,478
864.763611,476
864.881042,459
864.998535,466
865.116028,480
865.233459,457
865.350891,454
865.468384,471
865.585754,458
865.703308,466
865.820679,467
865.938171,466
866.055542,450
866.173035,464
866.290466,464
866.407837,457
866.52533,469
866.6427,474
866.760071,472
866.877563,469
866.994934,461
867.112305,482
867.229736,446
867.347107,462
867.464539,454
867.58197,453
867.699341,470
867.81665,453
867.934082,444
868.051453,453
868.168823,483
868.286194,466
868.403564,446
868.520935,452
868.638306,451
868.755676,492
868.872986,467
868.990295,460
869.107727,475
869.225037,481
869.342346,444
869.459717,475
869.577026,453
869.694336,481
869.811707,467
869.929016,457
870.046326,471
870.163635,475
870.280945,454
870.398254,472
870.515564,469
870.632812,471
870.750183,459
870.867432,450
870.984741,447
871.102051,451
871.219299,464
871.336609,468
871.453918,466
871.571106,474
871.688416,462
871.805664,466
871.922852,461
872.040222,486
872.157471,459
872.274719,458
872.391968,461
872.509155,467
872.626465,462
872.743652,448
872.860962,473
872.978149,454
873.095337,462
873.212646,457
873.329834,456
873.44696,461
873.564209,477
873.681396,451
873.798645,482
873.915894,469
874.03302,455
874.150208,462
874.267456,452
874.384583,475
874.501831,470
874.618958,466
874.736145,464
874.853333,458
874.970459,470
875.087646,478
875.204834,449
875.32196,463
875.439148,465
875.556274,462
875.673401,484
875.790527,462
875.907715,465
876.024841,464
876.141968,464
876.259094,463
876.376282,476
876.493347,483
876.610474,453
876.7276,449
876.844727,436
876.961853,473
877.078918,465
877.195984,469
877.313171,467
877.430237,465
877.547302,455
877.664368,458
877.781433,498
877.898499,479
878.015625,469
878.13269,464
878.249695,456
878.366821,474
878.483887,460
878.600952,474
878.717957,453
878.834961,459
878.952087,453
879.069092,476
879.186157,466
879.303162,469
879.420227,446
879.537231,467
879.654236,485
879.77124,478
879.888306,482
880.005249,444
880.122314,456
880.239319,469
880.356323,480
880.473328,483
880.590271,471
880.707275,473
880.824341,458
880.941284,465
881.058228,491
881.175232,469
881.292236,474
881.40918,475
881.526123,453
881.643066,474
881.760071,468
881.877014,462
881.993958,464
882.11084,439
882.227783,476
882.344727,457
882.46167,484
882.578613,478
882.695618,448
882.812439,490
882.929382,464
883.046326,458
883.163208,472
883.280151,468
883.397034,476
883.513916,468
883.630798,470
883.747742,481
883.864563,474
883.981506,475
884.098389,480
884.21521,496
884.332153,456
884.448975,464
884.565796,472
884.682678,499
884.7995,477
884.916443,459
885.033264,466
885.150085,471
885.266968,496
885.383789,463
885.500671,466
885.617493,473
885.734314,484
885.851196,486
885.967896,468
886.084717,475
886.201599,469
886.318359,489
886.435181,453
886.552002,474
886.668762,497
886.785645,473
886.902344,468
887.019165,492
887.135925,486
887.252747,467
887.369446,475
887.486267,472
887.603027,456
887.719788,467
887.836548,481
887.953247,472
888.070068,458
888.186829,468
888.303528,475
888.420288,460
888.536987,461
888.653687,480
888.770447,483
888.887146,472
889.003967,468
889.120667,467
889.237305,490
889.354065,475
889.470703,485
889.587463,479
889.704163,476
889.820862,454
889.937561,465
890.054199,473
890.170837,499
890.287598,449
890.404236,468
890.520874,487
890.637634,466
890.754211,466
890.87085,452
890.987549,485
891.104187,488
891.220886,490
891.337463,461
891.454102,483
891.57074,498
891.687378,488
891.804077,454
891.920654,469
892.037231,471
892.15387,479
892.270447,462
892.387085,475
892.503723,472
892.6203,487
892.736877,465
892.853516,470
892.970032,466
893.08667,471
893.203186,477
893.319763,487
893.43634,467
893.552917,475
893.669556,479
893.786011,485
893.902588,478
894.019165,477
894.135681,471
894.252197,466
894.368835,467
894.485291,494
894.601868,465
894.718384,481
894.8349,475
894.951355,473
895.067932,482
895.184448,476
895.300964,453
895.417419,481
895.533936,477
895.650452,473
895.766907,478
895.883423,468
895.999878,498
896.116333,480
896.232849,478
896.349304,491
896.465759,476
896.582214,466
896.698669,479
896.815125,496
896.931641,476
897.048035,501
897.164551,491
897.280884,486
897.397339,467
897.513794,478
897.630249,487
897.746582,472
897.863098,469
897.979431,486
898.095886,477
898.212341,480
898.328674,470
898.445129,495
898.561462,479
898.677795,490
898.794312,500
898.910645,478
899.026978,477
899.143433,464
899.259766,468
899.37616,471
899.492493,481
899.608765,492
899.725159,476
899.841553,470
899.957947,466
900.07428,470
900.190552,506
900.306946,473
900.423157,496
900.53949,476
900.655884,462
900.772156,478
900.888489,461
901.004822,488
901.121033,473
901.237366,493
901.353699,476
901.46991,481
901.586304,502
901.702515,474
901.818787,472
901.93512,488
902.051331,486
902.167603,482
902.283875,463
902.400085,490
902.516418,466
902.632629,518
902.74884,481
902.865112,467
902.981384,485
903.097595,486
903.213867,463
903.330017,496
903.446289,478
903.5625,497
903.67865,468
903.794922,498
903.911072,473
904.027344,483
904.143494,470
904.259705,485
904.375916,454
904.492065,480
904.608215,478
904.724426,506
904.840576,495
904.956726,490
905.072876,486
905.189087,478
905.305176,482
905.421387,483
905.537537,484
905.653687,474
905.769775,477
905.885925,499
906.002014,481
906.118164,475
906.234314,484
906.350403,466
906.466492,471
906.582642,479
906.69873,494
906.814758,486
906.930908,489
907.046936,487
907.163086,480
907.279175,480
907.395264,486
907.511353,493
907.62738,480
907.743408,480
907.859497,476
907.975525,502
908.091553,459
908.207703,497
908.32373,483
908.439758,492
908.555786,491
908.671814,497
908.787842,484
908.90387,466
909.019775,484
909.135864,476
909.251892,484
909.367859,485
909.483826,498
909.599854,484
909.715881,469
909.831848,497
909.947815,466
910.063782,477
910.179749,489
910.295776,485
910.411743,485
910.527649,490
910.643616,494
910.759583,461
910.875488,494
910.991455,469
911.107361,481
911.223267,478
911.339294,490
911.4552,466
911.571106,492
911.687073,492
911.802979,484
911.918823,488
912.034729,496
912.150635,484
912.266602,490
912.382446,489
912.498352,482
912.614197,476
912.730103,481
912.846008,469
792.44574,617
792.56488,623
792.68396,680
792.80304,649
792.92218,583
793.041199,593
793.160339,566
793.279419,610
793.398499,581
793.517578,570
793.636658,582
793.755737,593
793.874817,623
793.993896,610
794.112976,562
794.232056,568
794.351074,567
794.470215,576
794.589233,571
794.708313,573
794.827393,563
794.946411,583
795.065552,598
795.18457,566
795.303589,587
795.422668,565
795.541687,570
795.660767,572
795.779846,565
795.898865,549
796.017883,552
796.136963,557
796.255981,587
796.375061,565
796.49408,567
796.613037,567
796.732117,572
796.851135,567
796.970154,566
797.089233,567
797.208191,548
797.327271,539
797.446228,550
797.565186,575
797.684265,545
797.803223,563
797.922241,549
798.04126,553
798.160278,576
798.279297,547
798.398315,551
798.517273,542
798.636292,541
798.75531,549
798.874268,563
798.993286,548
799.112244,540
799.231323,570
799.350281,556
799.469238,574
799.588257,569
799.707153,562
799.826111,565
799.945129,547
800.064087,546
800.183044,549
800.302063,574
800.421021,561
800.539978,556
800.658936,562
800.777893,573
800.896912,561
801.015747,563
801.134705,563
801.253723,558
801.37262,566
801.491638,552
801.610535,582
801.729492,561
801.84845,545
801.967407,557
802.086243,555
802.205261,568
802.324158,547
802.443115,566
802.562073,566
802.680969,557
802.799927,557
802.918762,569
803.037659,564
803.156677,555
803.275574,569
803.39447,562
803.513428,569
803.632263,575
803.751221,578
803.870117,585
803.989014,583
804.107971,565
804.226746,569
804.345642,557
804.4646,563
804.583496,557
804.702393,572
804.821228,545
804.940125,573
805.059021,581
805.177917,587
805.296814,568
805.415649,580
805.534546,576
805.653442,581
805.772278,563
805.891113,575
806.01001,571
806.128906,589
806.247742,560
806.366577,596
806.485413,590
806.604309,567
806.723145,559
806.84198,558
806.960876,567
807.079712,561
807.198486,551
807.317383,579
807.436218,585
807.554993,591
807.673889,583
807.792725,585
807.91156,575
808.030396,585
808.14917,587
808.268005,586
808.386841,577
808.505676,617
808.624451,561
808.743286,561
808.862122,586
808.980896,596
809.099731,587
809.218506,565
809.337341,585
809.456116,583
809.57489,575
809.693726,582
809.8125,585
809.931274,582
810.050049,577
810.168884,591
810.287659,597
810.406372,584
810.525269,586
810.643982,593
810.762756,598
810.881531,588
811.000305,588
811.11908,582
811.237854,584
811.356567,602
811.475403,606
811.594116,580
811.71283,577
811.831604,603
811.950378,604
812.069153,602
812.187927,588
812.30658,574
812.425415,586
812.544128,580
812.662781,591
812.781616,591
812.900269,572
813.019043,588
813.137756,586
813.256531,597
813.375244,562
813.493896,609
813.612671,610
813.731384,558
813.850037,572
813.96875,587
814.087524,606
814.206238,594
814.324951,590
814.443604,574
814.562256,585
814.68103,593
814.799683,595
814.918335,594
815.037109,586
815.155762,579
815.274475,594
815.393188,569
815.511841,591
815.630554,587
815.749146,567
815.867859,582
815.986572,563
816.105164,575
816.223877,569
816.342529,579
816.461182,553
816.579895,577
816.698486,575
816.817139,567
816.935791,581
817.054504,585
817.173096,589
817.291748,579
817.4104,576
817.529053,559
817.647644,559
817.766235,563
817.884949,543
818.00354,538
818.122192,547
818.240845,539
818.359436,516
818.478088,538
818.59668,513
818.715271,517
818.833923,521
818.952515,493
819.071106,501
819.189758,506
819.30835,487
819.426941,510
819.545532,513
819.664124,495
819.782715,512
819.901306,517
820.019897,488
820.138489,512
820.25708,510
820.375671,495
820.494202,479
820.612732,488
820.731384,476
820.849915,481
820.968506,494
821.087097,481
821.205627,483
821.324158,515
821.442749,472
821.561279,468
821.679871,484
821.798401,464
821.916931,455
822.035461,469
822.154053,493
822.272583,455
822.391174,493
822.509583,486
822.628174,467
822.746704,469
822.865234,495
822.983765,470
823.102295,484
823.220825,460
823.339294,479
823.457825,475
823.576355,498
823.694824,474
823.813354,490
823.931885,477
824.050354,481
824.168884,463
824.287354,469
824.405823,466
824.524353,472
824.642822,482
824.761353,471
824.879822,485
824.998291,477
825.116699,492
825.235291,464
825.353699,481
825.472168,474
825.590637,477
825.709106,476
825.827576,474
825.946045,458
826.064453,471
826.182983,441
826.301392,478
826.4198,460
826.53833,468
826.656738,463
826.775208,461
826.893677,473
827.012024,449
827.130493,459
827.248962,488
827.36731,457
827.485779,457
827.604248,458
827.722595,462
827.841064,468
827.959412,457
828.077942,469
828.196289,454
828.314636,480
828.433105,456
828.551514,465
828.669861,449
828.78833,468
828.906677,456
829.025085,453
829.143433,478
829.261841,466
829.38031,477
829.498657,455
829.617004,455
829.735413,468
829.85376,460
829.972107,465
830.090515,454
830.208862,467
830.327209,441
830.445557,453
830.563904,452
830.682312,467
830.800659,457
830.919006,468
831.037354,460
831.155701,447
831.274048,449
831.392395,464
831.51062,446
831.629028,472
831.747314,476
831.865662,466
831.984009,457
832.102356,438
832.220642,454
832.338928,450
832.457275,486
832.575623,469
832.693909,458
832.812134,477
832.930481,444
833.048828,433
833.167114,466
833.2854,464
833.403687,452
833.521973,467
833.640259,464
833.758545,451
833.876831,457
833.995056,484
834.113281,451
834.231628,454
834.349915,449
834.468201,455
834.586426,446
834.704651,453
834.822998,463
834.941162,478
835.059448,464
835.177673,451
835.295959,459
835.414246,478
835.53241,466
835.650635,477
835.768921,475
835.887146,457
836.005371,453
836.123596,483
836.241821,454
836.360046,482
836.478271,456
836.596497,477
836.714722,476
836.832886,467
836.95105,462
837.069336,464
837.1875,484
837.305725,468
837.423889,485
837.542053,470
837.660339,480
837.778503,472
837.896667,467
838.014832,486
838.132996,473
838.25116,493
838.369385,481
838.487488,471
838.605713,474
838.723877,473
838.84198,475
838.960205,474
839.078308,470
839.196472,472
839.314636,471
839.4328,467
839.550964,458
839.669067,456
839.787231,467
839.905396,465
840.023499,485
840.141602,472
840.259766,456
840.377869,475
840.495972,473
840.614136,461
840.732239,460
840.850342,472
840.968445,466
841.086548,458
841.204651,481
841.322754,478
841.440918,452
841.55896,474
841.677002,471
841.795166,459
841.913208,444
842.031311,458
842.149353,469
842.267456,448
842.385498,468
842.503601,478
842.621643,459
842.739746,450
842.857788,458
842.97583,465
843.093933,470
843.211975,462
843.330017,474
843.44812,466
843.566101,443
843.684204,451
843.802246,468
843.920227,461
844.038269,459
844.156311,471
844.274292,448
844.392395,462
844.510376,463
844.628357,459
844.74646,464
844.864441,446
844.982422,440
845.100403,467
845.218384,485
845.336426,460
845.454468,468
845.572449,466
845.69043,448
845.808411,463
845.926453,460
846.044373,449
846.162354,435
846.280396,456
846.398315,472
846.516296,462
846.634216,468
846.752197,451
846.870178,461
846.988098,462
847.106079,452
847.22406,466
847.34198,463
847.4599,445
847.577881,461
847.695801,461
847.813782,437
847.931641,457
848.049561,444
848.167603,463
848.285461,458
848.403381,446
848.521362,448
848.639221,444
848.75708,466
848.875,437
848.99292,453
849.110901,454
849.22876,457
849.34668,456
849.464539,471
849.582458,469
849.700317,461
849.818176,459
849.936096,455
850.053955,448
850.171875,465
850.289673,472
850.407593,455
850.525452,474
850.643311,446
850.761169,447
850.878967,446
850.996887,454
851.114746,473
851.232544,449
851.350403,462
851.468262,464
851.58606,474
851.703979,459
851.821777,451
851.939636,455
852.057434,465
852.175232,452
852.293091,456
852.410889,465
852.528687,463
852.646545,471
852.764343,466
852.88208,462
852.999939,458
853.117676,451
853.235535,452
853.353271,464
853.471069,471
853.588928,453
853.706604,455
853.824402,445
853.9422,466
854.059998,455
854.177734,449
854.295532,466
854.413269,459
854.531006,459
854.648804,456
854.766541,431
854.884277,447
855.002014,450
855.119751,439
855.237549,468
855.355225,434
855.473022,448
855.590698,447
855.708435,474
855.826172,469
855.943848,455
856.061646,461
856.179321,470
856.296997,463
856.414795,470
856.53241,463
856.650085,455
856.767822,470
856.885559,461
857.003174,474
857.120911,460
857.238586,492
857.356201,455
857.473938,446
857.591614,451
857.709351,478
857.826965,478
857.944641,454
858.062317,481
858.179993,474
858.297668,449
858.415283,463
858.532959,465
858.650574,469
858.768188,443
858.885803,478
859.003479,465
859.121094,444
859.23877,452
859.356384,457
859.473999,461
859.591675,487
859.709229,455
859.826843,462
859.944458,458
860.062012,446
860.179626,448
860.297302,473
860.414856,484
860.532471,439
860.650024,455
860.767639,461
860.885193,450
861.002808,478
861.120361,460
861.237976,452
861.35553,462
861.473022,458
861.590698,442
861.708191,450
861.825745,454
861.943298,443
862.060852,469
862.178406,467
862.295959,433
862.413513,462
862.531006,456
862.64856,447
862.766113,448
862.883667,457
863.00116,456
863.118713,464
863.236206,459
863.353699,440
863.471252,452
863.588745,486
863.706177,472
863.82373,455
863.941162,466
864.058716,452
864.176208,468
864.29364,473
864.411194,448
864.528687,464
864.646118,468
864.763611,467
864.881042,471
864.998535,436
865.116028,467
865.233459,471
865.350891,456
865.468384,461
865.585754,461
865.703308,463
865.820679,442
865.938171,450
866.055542,465
866.173035,463
866.290466,453
866.407837,461
866.52533,458
866.6427,460
866.760071,463
866.877563,464
866.994934,469
867.112305,443
867.229736,467
867.347107,459
867.464539,461
867.58197,456
867.699341,471
867.81665,486
867.934082,458
868.051453,483
868.168823,476
868.286194,464
868.403564,472
868.520935,468
868.638306,459
868.755676,474
868.872986,477
868.990295,467
869.107727,462
869.225037,471
869.342346,470
869.459717,459
869.577026,463
869.694336,452
869.811707,465
869.929016,467
870.046326,464
870.163635,478
870.280945,458
870.398254,473
870.515564,453
870.632812,457
870.750183,482
870.867432,474
870.984741,470
871.102051,473
871.219299,459
871.336609,450
871.453918,467
871.571106,469
871.688416,467
871.805664,464
871.922852,475
872.040222,442
872.157471,467
872.274719,466
872.391968,468
872.509155,476
872.626465,470
872.743652,482
872.860962,488
872.978149,490
873.095337,465
873.212646,442
873.329834,455
873.44696,477
873.564209,449
873.681396,462
873.798645,466
873.915894,462
874.03302,456
874.150208,456
874.267456,467
874.384583,471
874.501831,459
874.618958,467
874.736145,465
874.853333,475
874.970459,454
875.087646,467
875.204834,454
875.32196,478
875.439148,468
875.556274,497
875.673401,476
875.790527,459
875.907715,459
876.024841,473
876.141968,455
876.259094,471
876.376282,458
876.493347,489
876.610474,461
876.7276,475
876.844727,467
876.961853,482
877.078918,472
877.195984,458
877.313171,479
877.430237,474
877.547302,469
877.664368,467
877.781433,457
877.898499,456
878.015625,457
878.13269,467
878.249695,463
878.366821,475
878.483887,468
878.600952,474
878.717957,458
878.834961,461
878.952087,479
879.069092,462
879.186157,454
879.303162,455
879.420227,462
879.537231,465
879.654236,459
879.77124,477
879.888306,489
880.005249,464
880.122314,465
880.239319,457
880.356323,472
880.473328,456
880.590271,451
880.707275,458
880.824341,477
880.941284,475
881.058228,457
881.175232,479
881.292236,464
881.40918,456
881.526123,458
881.643066,458
881.760071,449
881.877014,476
881.993958,447
882.11084,488
882.227783,473
882.344727,454
882.46167,477
882.578613,460
882.695618,467
882.812439,498
882.929382,458
883.046326,478
883.163208,459
883.280151,465
883.397034,476
883.513916,481
883.630798,469
883.747742,486
883.864563,475
883.981506,486
884.098389,465
884.21521,480
884.332153,479
884.448975,460
884.565796,472
884.682678,469
884.7995,475
884.916443,468
885.033264,479
885.150085,473
885.266968,457
885.383789,478
885.500671,474
885.617493,474
885.734314,474
885.851196,478
885.967896,471
886.084717,485
886.201599,492
886.318359,469
886.435181,474
886.552002,455
886.668762,468
886.785645,488
886.902344,483
887.019165,456
887.135925,493
887.252747,493
887.369446,482
887.486267,484
887.603027,481
887.719788,484
887.836548,479
887.953247,475
888.070068,468
888.186829,473
888.303528,475
888.420288,486
888.536987,455
888.653687,474
888.770447,460
888.887146,495
889.003967,475
889.120667,472
889.237305,457
889.354065,486
889.470703,481
889.587463,481
889.704163,467
889.820862,462
889.937561,485
890.054199,479
890.170837,470
890.287598,476
890.404236,471
890.520874,481
890.637634,455
890.754211,483
890.87085,485
890.987549,461
891.104187,477
891.220886,475
891.337463,469
891.454102,471
891.57074,481
891.687378,489
891.804077,485
891.920654,488
892.037231,491
892.15387,472
892.270447,461
892.387085,468
892.503723,482
892.6203,487
892.736877,463
892.853516,469
892.970032,485
893.08667,468
893.203186,478
893.319763,477
893.43634,491
893.552917,471
893.669556,500
893.786011,479
893.902588,474
894.019165,495
894.135681,489
894.252197,481
894.368835,454
894.485291,469
894.601868,473
894.718384,491
894.8349,464
894.951355,480
895.067932,490
895.184448,483
895.300964,494
895.417419,484
895.533936,457
895.650452,489
895.766907,453
895.883423,479
895.999878,469
896.116333,465
896.232849,469
896.349304,502
896.465759,506
896.582214,462
896.698669,475
896.815125,494
896.931641,477
897.048035,489
897.164551,481
897.280884,488
897.397339,484
897.513794,463
897.630249,492
897.746582,479
897.863098,472
897.979431,493
898.095886,467
898.212341,480
898.328674,473
898.445129,469
898.561462,482
898.677795,489
898.794312,474
898.910645,480
899.026978,489
899.143433,465
899.259766,455
899.37616,478
899.492493,485
899.608765,467
899.725159,465
899.841553,514
899.957947,469
900.07428,469
900.190552,480
900.306946,483
900.423157,498
900.53949,490
900.655884,496
900.772156,486
900.888489,492
901.004822,480
901.121033,480
901.237366,502
901.353699,474
901.46991,484
901.586304,511
901.702515,489
901.818787,470
901.93512,487
902.051331,471
902.167603,482
902.283875,478
902.400085,489
902.516418,489
902.632629,502
902.74884,485
902.865112,478
902.981384,483
903.097595,502
903.213867,484
903.330017,485
903.446289,461
903.5625,481
903.67865,466
903.794922,468
903.911072,470
904.027344,491
904.143494,493
904.259705,485
904.375916,482
904.492065,492
904.608215,496
904.724426,495
904.840576,495
904.956726,484
905.072876,480
905.189087,489
905.305176,463
905.421387,498
905.537537,489
905.653687,474
905.769775,490
905.885925,499
906.002014,484
906.118164,488
906.234314,480
906.350403,485
906.466492,479
906.582642,476
906.69873,487
906.814758,493
906.930908,498
907.046936,489
907.163086,488
907.279175,486
907.395264,484
907.511353,488
907.62738,492
907.743408,498
907.859497,485
907.975525,502
908.091553,477
908.207703,483
908.32373,493
908.439758,471
908.555786,502
908.671814,490
908.787842,480
908.90387,496
909.019775,484
909.135864,496
909.251892,486
909.367859,490
909.483826,481
909.599854,477
909.715881,482
909.831848,495
909.947815,473
910.063782,465
910.179749,494
910.295776,481
910.411743,484
910.527649,475
910.643616,477
910.759583,493
910.875488,486
910.991455,492
911.107361,476
911.223267,479
911.339294,495
911.4552,476
911.571106,489
911.687073,491
911.802979,490
911.918823,481
912.034729,500
912.150635,485
912.266602,488
912.382446,482
912.498352,486
912.614197,474
912.730103,481
912.846008,489
792.44574,605
792.56488,638
792.68396,706
792.80304,677
792.92218,635
793.041199,579
793.160339,596
793.279419,608
793.398499,607
793.517578,579
793.636658,580
793.755737,594
793.874817,635
793.993896,609
794.112976,585
794.232056,569
794.351074,575
794.470215,584
794.589233,552
794.708313,587
794.827393,557
794.946411,575
795.065552,565
795.18457,571
795.303589,578
795.422668,582
795.541687,587
795.660767,574
795.779846,571
795.898865,581
796.017883,559
796.136963,587
796.255981,566
796.375061,568
796.49408,569
796.613037,552
796.732117,554
796.851135,574
796.970154,553
797.089233,575
797.208191,555
797.327271,571
797.446228,533
797.565186,553
797.684265,552
797.803223,561
797.922241,547
798.04126,583
798.160278,543
798.279297,547
798.398315,562
798.517273,530
798.636292,563
798.75531,565
798.874268,564
798.993286,544
799.112244,541
799.231323,553
799.350281,552
799.469238,568
799.588257,554
799.707153,562
799.826111,552
799.945129,555
800.064087,557
800.183044,568
800.302063,542
800.421021,558
800.539978,562
800.658936,568
800.777893,566
800.896912,578
801.015747,551
801.134705,547
801.253723,536
801.37262,546
801.491638,574
801.610535,562
801.729492,535
801.84845,543
801.967407,545
802.086243,546
802.205261,564
802.324158,584
802.443115,551
802.562073,564
802.680969,574
802.799927,555
802.918762,570
803.037659,562
803.156677,555
803.275574,574
803.39447,563
803.513428,569
803.632263,542
803.751221,540
803.870117,544
803.989014,563
804.107971,568
804.226746,560
804.345642,563
804.4646,567
804.583496,562
804.702393,558
804.821228,574
804.940125,558
805.059021,555
805.177917,579
805.296814,578
805.415649,573
805.534546,567
805.653442,581
805.772278,563
805.891113,577
806.01001,584
806.128906,570
806.247742,558
806.366577,590
806.485413,580
806.604309,559
806.723145,583
806.84198,571
806.960876,558
807.079712,589
807.198486,586
807.317383,580
807.436218,584
807.554993,569
807.673889,609
807.792725,590
807.91156,589
808.030396,591
808.14917,581
808.268005,560
808.386841,578
808.505676,580
808.624451,616
808.743286,575
808.862122,552
808.980896,588
809.099731,555
809.218506,569
809.337341,572
809.456116,597
809.57489,604
809.693726,576
809.8125,594
809.931274,593
810.050049,587
810.168884,574
810.287659,591
810.406372,602
810.525269,603
810.643982,587
810.762756,589
810.881531,583
811.000305,600
811.11908,569
811.237854,583
811.356567,591
811.475403,586
811.594116,583
811.71283,598
811.831604,598
811.950378,609
812.069153,601
812.187927,590
812.30658,586
812.425415,585
812.544128,599
812.662781,564
812.781616,587
812.900269,592
813.019043,613
813.137756,585
813.256531,614
813.375244,592
813.493896,576
813.612671,568
813.731384,566
813.850037,584
813.96875,594
814.087524,585
814.206238,583
814.324951,596
814.443604,577
814.562256,588
814.68103,591
814.799683,577
814.918335,583
815.037109,569
815.155762,562
815.274475,616
815.393188,612
815.511841,577
815.630554,569
815.749146,562
815.867859,571
815.986572,558
816.105164,568
816.223877,548
816.342529,579
816.461182,561
816.579895,576
816.698486,585
816.817139,580
816.935791,568
817.054504,561
817.173096,597
817.291748,571
817.4104,565
817.529053,584
817.647644,565
817.766235,557
817.884949,549
818.00354,544
818.122192,554
818.240845,552
818.359436,516
818.478088,510
818.59668,510
818.715271,519
818.833923,528
818.952515,540
819.071106,516
819.189758,523
819.30835,502
819.426941,498
819.545532,506
819.664124,498
819.782715,488
819.901306,493
820.019897,488
820.138489,511
820.25708,513
820.375671,502
820.494202,497
820.612732,476
820.731384,487
820.849915,469
820.968506,483
821.087097,475
821.205627,486
821.324158,478
821.442749,480
821.561279,492
821.679871,491
821.798401,466
821.916931,497
822.035461,482
822.154053,476
822.272583,484
822.391174,491
822.509583,489
822.628174,469
822.746704,484
822.865234,481
822.983765,468
823.102295,485
823.220825,480
823.339294,484
823.457825,492
823.576355,478
823.694824,480
823.813354,487
823.931885,478
824.050354,482
824.168884,485
824.287354,498
824.405823,500
824.524353,484
824.642822,492
824.761353,482
824.879822,473
824.998291,498
825.116699,478
825.235291,476
825.353699,487
825.472168,461
825.590637,478
825.709106,458
825.827576,469
825.946045,473
826.064453,473
826.182983,469
826.301392,467
826.4198,474
826.53833,469
826.656738,468
826.775208,487
826.893677,467
827.012024,465
827.130493,458
827.248962,453
827.36731,447
827.485779,455
827.604248,454
827.722595,489
827.841064,453
827.959412,461
828.077942,467
828.196289,452
828.314636,459
828.433105,463
828.551514,478
828.669861,471
828.78833,475
828.906677,478
829.025085,457
829.143433,478
829.261841,459
829.38031,493
829.498657,451
829.617004,456
829.735413,470
829.85376,461
829.972107,469
830.090515,454
830.208862,462
830.327209,441
830.445557,460
830.563904,479
830.682312,465
830.800659,461
830.919006,454
831.037354,472
831.155701,454
831.274048,465
831.392395,462
831.51062,458
831.629028,456
831.747314,450
831.865662,456
831.984009,455
832.102356,472
832.220642,465
832.338928,469
832.457275,482
832.575623,453
832.693909,460
832.812134,465
832.930481,444
833.048828,465
833.167114,474
833.2854,458
833.403687,456
833.521973,474
833.640259,459
833.758545,457
833.876831,451
833.995056,467
834.113281,444
834.231628,459
834.349915,454
834.468201,462
834.586426,447
834.704651,460
834.822998,453
834.941162,460
835.059448,460
835.177673,471
835.295959,454
835.414246,471
835.53241,464
835.650635,467
835.768921,455
835.887146,467
836.005371,470
836.123596,434
836.241821,452
836.360046,472
836.478271,460
836.596497,468
836.714722,460
836.832886,481
836.95105,478
837.069336,486
837.1875,481
837.305725,477
837.423889,497
837.542053,465
837.660339,477
837.778503,496
837.896667,470
838.014832,468
838.132996,483
838.25116,466
838.369385,476
838.487488,466
838.605713,465
838.723877,467
838.84198,471
838.960205,477
839.078308,460
839.196472,469
839.314636,480
839.4328,468
839.550964,479
839.669067,475
839.787231,475
839.905396,480
840.023499,480
840.141602,464
840.259766,469
840.377869,462
840.495972,453
840.614136,476
840.732239,481
840.850342,457
840.968445,487
841.086548,455
841.204651,449
841.322754,454
841.440918,472
841.55896,449
841.677002,452
841.795166,483
841.913208,470
842.031311,444
842.149353,460
842.267456,457
842.385498,460
842.503601,456
842.621643,444
842.739746,446
842.857788,473
842.97583,465
843.093933,473
843.211975,460
843.330017,442
843.44812,462
843.566101,482
843.684204,444
843.802246,456
843.920227,467
844.038269,458
844.156311,442
844.274292,467
844.392395,457
844.510376,480
844.628357,480
844.74646,444
844.864441,474
844.982422,465
845.100403,445
845.218384,458
845.336426,445
845.454468,451
845.572449,458
845.69043,482
845.808411,449
845.926453,457
846.044373,445
846.162354,462
846.280396,461
846.398315,446
846.516296,472
846.634216,458
846.752197,446
846.870178,461
846.988098,457
847.106079,468
847.22406,460
847.34198,461
847.4599,455
847.577881,457
847.695801,455
847.813782,443
847.931641,445
848.049561,459
848.167603,455
848.285461,461
848.403381,447
848.521362,457
848.639221,460
848.75708,478
848.875,455
848.99292,479
849.110901,461
849.22876,470
849.34668,435
849.464539,461
849.582458,469
849.700317,473
849.818176,468
849.936096,463
850.053955,458
850.171875,465
850.289673,466
850.407593,454
850.525452,442
850.643311,466
850.761169,448
850.878967,465
850.996887,454
851.114746,461
851.232544,456
851.350403,458
851.468262,442
851.58606,463
851.703979,455
851.821777,454
851.939636,466
852.057434,445
852.175232,473
852.293091,456
852.410889,475
852.528687,480
852.646545,460
852.764343,464
852.88208,461
852.999939,459
853.117676,465
853.235535,447
853.353271,450
853.471069,460
853.588928,449
853.706604,454
853.824402,477
853.9422,459
854.059998,459
854.177734,445
854.295532,440
854.413269,469
854.531006,470
854.648804,468
854.766541,454
854.884277,446
855.002014,454
855.119751,445
855.237549,481
855.355225,460
855.473022,476
855.590698,475
855.708435,466
855.826172,451
855.943848,482
856.061646,462
856.179321,457
856.296997,455
856.414795,477
856.53241,471
856.650085,474
856.767822,469
856.885559,477
857.003174,469
857.120911,464
857.238586,471
857.356201,450
857.473938,474
857.591614,491
857.709351,475
857.826965,464
857.944641,448
858.062317,469
858.179993,456
858.297668,483
858.415283,450
858.532959,460
858.650574,456
858.768188,470
858.885803,467
859.003479,453
859.121094,464
859.23877,473
859.356384,470
859.473999,461
859.591675,451
859.709229,443
859.826843,451
859.944458,457
860.062012,465
860.179626,481
860.297302,462
860.414856,471
860.532471,480
860.650024,454
860.767639,464
860.885193,458
861.002808,449
861.120361,465
861.237976,471
861.35553,465
861.473022,455
861.590698,443
861.708191,462
861.825745,458
861.943298,447
862.060852,470
862.178406,468
862.295959,474
862.413513,455
862.531006,465
862.64856,462
862.766113,463
862.883667,447
863.00116,478
863.118713,467
863.236206,464
863.353699,468
863.471252,457
863.588745,464
863.706177,471
863.82373,454
863.941162,459
864.058716,477
864.176208,435
864.29364,476
864.411194,462
864.528687,475
864.646118,480
864.763611,470
864.881042,443
864.998535,464
865.116028,469
865.233459,466
865.350891,481
865.468384,471
865.585754,457
865.703308,467
865.820679,463
865.938171,466
866.055542,456
866.173035,454
866.290466,471
866.407837,448
866.52533,461
866.6427,471
866.760071,467
866.877563,446
866.994934,492
867.112305,481
867.229736,454
867.347107,448
867.464539,466
867.58197,488
867.699341,458
867.81665,452
867.934082,484
868.051453,461
868.168823,462
868.286194,477
868.403564,475
868.520935,466
868.638306,469
868.755676,471
868.872986,481
868.990295,469
869.107727,464
869.225037,467
869.342346,441
869.459717,453
869.577026,463
869.694336,482
869.811707,468
869.929016,478
870.046326,464
870.163635,469
870.280945,469
870.398254,458
870.515564,472
870.632812,471
870.750183,457
870.867432,461
870.984741,485
871.102051,476
871.219299,473
871.336609,486
871.453918,465
871.571106,460
871.688416,454
871.805664,479
871.922852,464
872.040222,471
872.157471,464
872.274719,487
872.391968,467
872.509155,469
872.626465,472
872.743652,471
872.860962,445
872.978149,460
873.095337,471
873.212646,469
873.329834,489
873.44696,479
873.564209,473
873.681396,453
873.798645,456
873.915894,464
874.03302,458
874.150208,466
874.267456,449
874.384583,468
874.501831,472
874.618958,457
874.736145,467
874.853333,471
874.970459,465
875.087646,481
875.204834,461
875.32196,475
875.439148,461
875.556274,480
875.673401,472
875.790527,446
875.907715,471
876.024841,471
876.141968,471
876.259094,499
876.376282,485
876.493347,488
876.610474,472
876.7276,468
876.844727,477
876.961853,479
877.078918,449
877.195984,471
877.313171,475
877.430237,471
877.547302,455
877.664368,454
877.781433,470
877.898499,479
878.015625,474
878.13269,492
878.249695,463
878.366821,468
878.483887,462
878.600952,455
878.717957,469
878.834961,472
878.952087,466
879.069092,466
879.186157,473
879.303162,462
879.420227,462
879.537231,479
879.654236,466
879.77124,484
879.888306,485
880.005249,477
880.122314,475
880.239319,482
880.356323,473
880.473328,480
880.590271,478
880.707275,447
880.824341,453
880.941284,473
881.058228,463
881.175232,458
881.292236,462
881.40918,465
881.526123,490
881.643066,461
881.760071,464
881.877014,477
881.993958,468
882.11084,486
882.227783,484
882.344727,471
882.46167,475
882.578613,467
882.695618,481
882.812439,492
882.929382,493
883.046326,460
883.163208,459
883.280151,474
883.397034,460
883.513916,477
883.630798,467
883.747742,466
883.864563,487
883.981506,465
884.098389,467
884.21521,481
884.332153,472
884.448975,466
884.565796,462
884.682678,480
884.7995,465
884.916443,469
885.033264,465
885.150085,480
885.266968,457
885.383789,491
885.500671,475
885.617493,485
885.734314,478
885.851196,475
885.967896,476
886.084717,481
886.201599,466
886.318359,478
886.435181,472
886.552002,491
886.668762,468
886.785645,471
886.902344,483
887.019165,497
887.135925,481
887.252747,482
887.369446,476
887.486267,484
887.603027,476
887.719788,486
887.836548,485
887.953247,475
888.070068,483
888.186829,477
888.303528,484
888.420288,465
888.536987,495
888.653687,482
888.770447,485
888.887146,482
889.003967,478
889.120667,473
889.237305,479
889.354065,479
889.470703,480
889.587463,469
889.704163,455
889.820862,481
889.937561,472
890.054199,499
890.170837,461
890.287598,470
890.404236,469
890.520874,486
890.637634,473
890.754211,479
890.87085,469
890.987549,473
891.104187,473
891.220886,485
891.337463,481
891.454102,463
891.57074,463
891.687378,484
891.804077,481
891.920654,467
892.037231,475
892.15387,483
892.270447,484
892.387085,477
892.503723,479
892.6203,459
892.736877,481
892.853516,474
892.970032,461
893.08667,477
893.203186,484
893.319763,485
893.43634,481
893.552917,485
893.669556,471
893.786011,474
893.902588,476
894.019165,464
894.135681,462
894.252197,472
894.368835,471
894.485291,467
894.601868,483
894.718384,476
894.8349,486
894.951355,489
895.067932,476
895.184448,469
895.300964,483
895.417419,478
895.533936,471
895.650452,483
895.766907,472
895.883423,511
895.999878,474
896.116333,494
896.232849,468
896.349304,492
896.465759,480
896.582214,474
896.698669,495
896.815125,469
896.931641,480
897.048035,488
897.164551,481
897.280884,481
897.397339,469
897.513794,489
897.630249,480
897.746582,468
897.863098,480
897.979431,491
898.095886,485
898.212341,470
898.328674,444
898.445129,487
898.561462,480
898.677795,481
898.794312,489
898.910645,474
899.026978,490
899.143433,471
899.259766,482
899.37616,483
899.492493,485
899.608765,487
899.725159,481
899.841553,484
899.957947,480
900.07428,482
900.190552,477
900.306946,499
900.423157,486
900.53949,482
900.655884,478
900.772156,479
900.888489,475
901.004822,484
901.121033,476
901.237366,488
901.353699,489
901.46991,491
901.586304,490
901.702515,492
901.818787,495
901.93512,499
902.051331,497
902.167603,487
902.283875,492
902.400085,493
902.516418,476
902.632629,507
902.74884,480
902.865112,491
902.981384,492
903.097595,505
903.213867,496
903.330017,474
903.446289,497
903.5625,489
903.67865,485
903.794922,490
903.911072,495
904.027344,492
904.143494,486
904.259705,484
904.375916,490
904.492065,493
904.608215,492
904.724426,474
904.840576,488
904.956726,465
905.072876,488
905.189087,503
905.305176,475
905.421387,490
905.537537,481
905.653687,489
905.769775,487
905.885925,491
906.002014,491
906.118164,499
906.234314,487
906.350403,509
906.466492,483
906.582642,507
906.69873,505
906.814758,494
906.930908,471
907.046936,465
907.163086,481
907.279175,486
907.395264,489
907.511353,495
907.62738,464
907.743408,482
907.859497,485
907.975525,491
908.091553,483
908.207703,478
908.32373,525
908.439758,502
908.555786,484
908.671814,498
908.787842,480
908.90387,496
909.019775,506
909.135864,489
909.251892,476
909.367859,499
909.483826,501
909.599854,482
909.715881,500
909.831848,489
909.947815,483
910.063782,477
910.179749,489
910.295776,488
910.411743,496
910.527649,469
910.643616,474
910.759583,509
910.875488,491
910.991455,497
911.107361,492
911.223267,484
911.339294,476
911.4552,510
911.571106,497
911.687073,491
911.802979,478
911.918823,476
912.034729,490
912.150635,498
912.266602,497
912.382446,486
912.498352,467
912.614197,486
912.730103,481
912.846008,472
