792.44574,480
792.56488,534
792.68396,554
792.80304,541
792.92218,503
793.041199,455
793.160339,479
793.279419,501
793.398499,487
793.517578,457
793.636658,491
793.755737,493
793.874817,516
793.993896,487
794.112976,471
794.232056,485
794.351074,490
794.470215,486
794.589233,488
794.708313,491
794.827393,485
794.946411,476
795.065552,495
795.18457,486
795.303589,483
795.422668,503
795.541687,498
795.660767,480
795.779846,477
795.898865,478
796.017883,477
796.136963,479
796.255981,487
796.375061,479
796.49408,485
796.613037,481
796.732117,495
796.851135,460
796.970154,509
797.089233,476
797.208191,489
797.327271,467
797.446228,477
797.565186,485
797.684265,492
797.803223,484
797.922241,481
798.04126,480
798.160278,483
798.279297,483
798.398315,492
798.517273,481
798.636292,486
798.75531,479
798.874268,481
798.993286,466
799.112244,468
799.231323,477
799.350281,477
799.469238,467
799.588257,466
799.707153,503
799.826111,480
799.945129,459
800.064087,499
800.183044,468
800.302063,486
800.421021,487
800.539978,478
800.658936,473
800.777893,479
800.896912,482
801.015747,471
801.134705,481
801.253723,488
801.37262,489
801.491638,494
801.610535,478
801.729492,464
801.84845,453
801.967407,481
802.086243,461
802.205261,463
802.324158,490
802.443115,493
802.562073,478
802.680969,464
802.799927,482
802.918762,479
803.037659,490
803.156677,477
803.275574,456
803.39447,497
803.513428,469
803.632263,482
803.751221,457
803.870117,467
803.989014,488
804.107971,467
804.226746,462
804.345642,474
804.4646,464
804.583496,463
804.702393,470
804.821228,478
804.940125,479
805.059021,471
805.177917,497
805.296814,463
805.415649,464
805.534546,479
805.653442,485
805.772278,479
805.891113,474
806.01001,501
806.128906,481
806.247742,476
806.366577,474
806.485413,489
806.604309,461
806.723145,478
806.84198,480
806.960876,472
807.079712,484
807.198486,476
807.317383,465
807.436218,463
807.554993,474
807.673889,482
807.792725,475
807.91156,459
808.030396,493
808.14917,468
808.268005,473
808.386841,473
808.505676,482
808.624451,470
808.743286,468
808.862122,474
808.980896,458
809.099731,478
809.218506,464
809.337341,463
809.456116,490
809.57489,473
809.693726,462
809.8125,480
809.931274,487
810.050049,472
810.168884,454
810.287659,484
810.406372,479
810.525269,476
810.643982,463
810.762756,488
810.881531,469
811.000305,486
811.11908,471
811.237854,465
811.356567,486
811.475403,452
811.594116,451
811.71283,477
811.831604,483
811.950378,458
812.069153,474
812.187927,455
812.30658,470
812.425415,488
812.544128,492
812.662781,477
812.781616,493
812.900269,480
813.019043,459
813.137756,482
813.256531,475
813.375244,482
813.493896,480
813.612671,479
813.731384,458
813.850037,468
813.96875,483
814.087524,475
814.206238,468
814.324951,486
814.443604,470
814.562256,479
814.68103,495
814.799683,480
814.918335,481
815.037109,464
815.155762,451
815.274475,471
815.393188,475
815.511841,482
815.630554,462
815.749146,470
815.867859,469
815.986572,473
816.105164,466
816.223877,461
816.342529,462
816.461182,479
816.579895,498
816.698486,469
816.817139,464
816.935791,475
817.054504,461
817.173096,473
817.291748,454
817.4104,467
817.529053,475
817.647644,465
817.766235,462
817.884949,444
818.00354,474
818.122192,487
818.240845,472
818.359436,464
818.478088,461
818.59668,461
818.715271,455
818.833923,456
818.952515,454
819.071106,471
819.189758,463
819.30835,468
819.426941,445
819.545532,465
819.664124,454
819.782715,469
819.901306,437
820.019897,465
820.138489,448
820.25708,448
820.375671,463
820.494202,445
820.612732,464
820.731384,456
820.849915,466
820.968506,478
821.087097,456
821.205627,454
821.324158,449
821.442749,444
821.561279,474
821.679871,460
821.798401,450
821.916931,454
822.035461,461
822.154053,467
822.272583,438
822.391174,448
822.509583,436
822.628174,436
822.746704,449
822.865234,454
822.983765,449
823.102295,463
823.220825,457
823.339294,460
823.457825,450
823.576355,449
823.694824,456
823.813354,448
823.931885,430
824.050354,463
824.168884,456
824.287354,455
824.405823,461
824.524353,465
824.642822,442
824.761353,450
824.879822,471
824.998291,438
825.116699,457
825.235291,445
825.353699,438
825.472168,452
825.590637,451
825.709106,460
825.827576,447
825.946045,447
826.064453,440
826.182983,459
826.301392,461
826.4198,460
826.53833,477
826.656738,449
826.775208,453
826.893677,464
827.012024,444
827.130493,459
827.248962,435
827.36731,457
827.485779,444
827.604248,451
827.722595,458
827.841064,446
827.959412,429
828.077942,459
828.196289,450
828.314636,449
828.433105,452
828.551514,464
828.669861,459
828.78833,444
828.906677,443
829.025085,449
829.143433,428
829.261841,444
829.38031,459
829.498657,445
829.617004,448
829.735413,466
829.85376,446
829.972107,431
830.090515,453
830.208862,463
830.327209,445
830.445557,448
830.563904,441
830.682312,452
830.800659,426
830.919006,434
831.037354,466
831.155701,455
831.274048,445
831.392395,454
831.51062,443
831.629028,448
831.747314,435
831.865662,461
831.984009,439
832.102356,442
832.220642,451
832.338928,445
832.457275,426
832.575623,448
832.693909,446
832.812134,444
832.930481,452
833.048828,438
833.167114,421
833.2854,435
833.403687,445
833.521973,466
833.640259,425
833.758545,434
833.876831,438
833.995056,441
834.113281,445
834.231628,448
834.349915,434
834.468201,456
834.586426,441
834.704651,452
834.822998,455
834.941162,460
835.059448,438
835.177673,455
835.295959,458
835.414246,438
835.53241,443
835.650635,445
835.768921,424
835.887146,452
836.005371,428
836.123596,462
836.241821,441
836.360046,438
836.478271,426
836.596497,461
836.714722,432
836.832886,457
836.95105,452
837.069336,448
837.1875,439
837.305725,454
837.423889,447
837.542053,450
837.660339,430
837.778503,453
837.896667,445
838.014832,446
838.132996,441
838.25116,447
838.369385,442
838.487488,456
838.605713,452
838.723877,433
838.84198,452
838.960205,450
839.078308,430
839.196472,453
839.314636,442
839.4328,450
839.550964,449
839.669067,477
839.787231,447
839.905396,434
840.023499,442
840.141602,447
840.259766,449
840.377869,450
840.495972,440
840.614136,433
840.732239,447
840.850342,456
840.968445,449
841.086548,438
841.204651,431
841.322754,437
841.440918,454
841.55896,437
841.677002,434
841.795166,445
841.913208,440
842.031311,435
842.149353,459
842.267456,446
842.385498,437
842.503601,456
842.621643,444
842.739746,441
842.857788,447
842.97583,434
843.093933,447
843.211975,437
843.330017,454
843.44812,450
843.566101,434
843.684204,435
843.802246,429
843.920227,435
844.038269,434
844.156311,433
844.274292,440
844.392395,457
844.510376,435
844.628357,440
844.74646,437
844.864441,468
844.982422,428
845.100403,441
845.218384,434
845.336426,450
845.454468,444
845.572449,438
845.69043,455
845.808411,453
845.926453,437
846.044373,433
846.162354,446
846.280396,440
846.398315,440
846.516296,453
846.634216,429
846.752197,449
846.870178,439
846.988098,422
847.106079,439
847.22406,454
847.34198,432
847.4599,432
847.577881,417
847.695801,447
847.813782,455
847.931641,441
848.049561,428
848.167603,458
848.285461,443
848.403381,449
848.521362,426
848.639221,443
848.75708,440
848.875,448
848.99292,428
849.110901,443
849.22876,428
849.34668,441
849.464539,435
849.582458,455
849.700317,446
849.818176,466
849.936096,437
850.053955,456
850.171875,458
850.289673,440
850.407593,414
850.525452,445
850.643311,439
850.761169,441
850.878967,439
850.996887,450
851.114746,449
851.232544,427
851.350403,442
851.468262,446
851.58606,456
851.703979,435
851.821777,445
851.939636,434
852.057434,433
852.175232,430
852.293091,467
852.410889,428
852.528687,444
852.646545,426
852.764343,451
852.88208,449
852.999939,450
853.117676,435
853.235535,434
853.353271,429
853.471069,457
853.588928,442
853.706604,451
853.824402,442
853.9422,448
854.059998,422
854.177734,455
854.295532,444
854.413269,424
854.531006,416
854.648804,447
854.766541,431
854.884277,455
855.002014,452
855.119751,434
855.237549,437
855.355225,432
855.473022,428
855.590698,439
855.708435,438
855.826172,414
855.943848,442
856.061646,418
856.179321,442
856.296997,420
856.414795,462
856.53241,426
856.650085,438
856.767822,441
856.885559,456
857.003174,438
857.120911,451
857.238586,450
857.356201,463
857.473938,463
857.591614,434
857.709351,438
857.826965,449
857.944641,448
858.062317,431
858.179993,443
858.297668,454
858.415283,435
858.532959,441
858.650574,447
858.768188,462
858.885803,435
859.003479,436
859.121094,452
859.23877,446
859.356384,464
859.473999,428
859.591675,449
859.709229,450
859.826843,440
859.944458,445
860.062012,433
860.179626,462
860.297302,436
860.414856,441
860.532471,425
860.650024,441
860.767639,441
860.885193,442
861.002808,440
861.120361,439
861.237976,419
861.35553,433
861.473022,437
861.590698,445
861.708191,427
861.825745,456
861.943298,439
862.060852,439
862.178406,452
862.295959,461
862.413513,449
862.531006,440
862.64856,434
862.766113,466
862.883667,463
863.00116,420
863.118713,449
863.236206,457
863.353699,448
863.471252,452
863.588745,410
863.706177,445
863.82373,436
863.941162,437
864.058716,458
864.176208,452
864.29364,438
864.411194,449
864.528687,434
864.646118,433
864.763611,429
864.881042,434
864.998535,441
865.116028,433
865.233459,443
865.350891,442
865.468384,452
865.585754,442
865.703308,440
865.820679,452
865.938171,448
866.055542,437
866.173035,455
866.290466,460
866.407837,433
866.52533,434
866.6427,443
866.760071,451
866.877563,436
866.994934,471
867.112305,441
867.229736,442
867.347107,438
867.464539,428
867.58197,431
867.699341,450
867.81665,445
867.934082,449
868.051453,449
868.168823,446
868.286194,447
868.403564,463
868.520935,436
868.638306,449
868.755676,452
868.872986,445
868.990295,444
869.107727,439
869.225037,444
869.342346,438
869.459717,448
869.577026,456
869.694336,449
869.811707,455
869.929016,447
870.046326,446
870.163635,438
870.280945,455
870.398254,438
870.515564,440
870.632812,441
870.750183,456
870.867432,463
870.984741,423
871.102051,436
871.219299,445
871.336609,440
871.453918,454
871.571106,442
871.688416,469
871.805664,423
871.922852,441
872.040222,445
872.157471,448
872.274719,445
872.391968,434
872.509155,443
872.626465,442
872.743652,434
872.860962,434
872.978149,443
873.095337,446
873.212646,451
873.329834,454
873.44696,458
873.564209,452
873.681396,456
873.798645,448
873.915894,439
874.03302,444
874.150208,443
874.267456,451
874.384583,457
874.501831,442
874.618958,446
874.736145,428
874.853333,439
874.970459,446
875.087646,443
875.204834,449
875.32196,434
875.439148,449
875.556274,441
875.673401,448
875.790527,446
875.907715,429
876.024841,460
876.141968,439
876.259094,422
876.376282,456
876.493347,439
876.610474,448
876.7276,444
876.844727,462
876.961853,452
877.078918,443
877.195984,454
877.313171,454
877.430237,445
877.547302,448
877.664368,427
877.781433,442
877.898499,434
878.015625,451
878.13269,434
878.249695,442
878.366821,443
878.483887,454
878.600952,426
878.717957,427
878.834961,453
878.952087,434
879.069092,453
879.186157,463
879.303162,450
879.420227,457
879.537231,450
879.654236,451
879.77124,449
879.888306,464
880.005249,442
880.122314,446
880.239319,437
880.356323,458
880.473328,449
880.590271,442
880.707275,446
880.824341,454
880.941284,440
881.058228,443
881.175232,456
881.292236,439
881.40918,441
881.526123,458
881.643066,435
881.760071,456
881.877014,445
881.993958,440
882.11084,441
882.227783,433
882.344727,424
882.46167,472
882.578613,433
882.695618,431
882.812439,449
882.929382,454
883.046326,444
883.163208,444
883.280151,436
883.397034,467
883.513916,426
883.630798,433
883.747742,431
883.864563,472
883.981506,446
884.098389,451
884.21521,451
884.332153,447
884.448975,449
884.565796,447
884.682678,435
884.7995,450
884.916443,463
885.033264,463
885.150085,461
885.266968,469
885.383789,426
885.500671,444
885.617493,453
885.734314,459
885.851196,430
885.967896,440
886.084717,446
886.201599,436
886.318359,469
886.435181,454
886.552002,456
886.668762,458
886.785645,461
886.902344,446
887.019165,444
887.135925,460
887.252747,447
887.369446,452
887.486267,435
887.603027,463
887.719788,448
887.836548,462
887.953247,466
888.070068,468
888.186829,468
888.303528,457
888.420288,449
888.536987,453
888.653687,446
888.770447,445
888.887146,458
889.003967,454
889.120667,434
889.237305,456
889.354065,432
889.470703,449
889.587463,449
889.704163,455
889.820862,455
889.937561,460
890.054199,443
890.170837,451
890.287598,433
890.404236,450
890.520874,453
890.637634,442
890.754211,465
890.87085,436
890.987549,454
891.104187,449
891.220886,435
891.337463,447
891.454102,452
891.57074,445
891.687378,449
891.804077,456
891.920654,452
892.037231,467
892.15387,472
892.270447,447
892.387085,441
892.503723,469
892.6203,439
892.736877,456
892.853516,449
892.970032,471
893.08667,471
893.203186,460
893.319763,455
893.43634,456
893.552917,445
893.669556,477
893.786011,458
893.902588,448
894.019165,456
894.135681,460
894.252197,447
894.368835,451
894.485291,474
894.601868,431
894.718384,436
894.8349,449
894.951355,421
895.067932,455
895.184448,456
895.300964,463
895.417419,457
895.533936,449
895.650452,455
895.766907,447
895.883423,436
895.999878,461
896.116333,473
896.232849,460
896.349304,443
896.465759,431
896.582214,442
896.698669,453
896.815125,448
896.931641,476
897.048035,451
897.164551,458
897.280884,442
897.397339,469
897.513794,456
897.630249,455
897.746582,464
897.863098,447
897.979431,466
898.095886,451
898.212341,455
898.328674,469
898.445129,420
898.561462,467
898.677795,451
898.794312,472
898.910645,456
899.026978,458
899.143433,470
899.259766,450
899.37616,462
899.492493,455
899.608765,474
899.725159,457
899.841553,466
899.957947,467
900.07428,462
900.190552,482
900.306946,476
900.423157,460
900.53949,458
900.655884,462
900.772156,462
900.888489,472
901.004822,466
901.121033,451
901.237366,458
901.353699,465
901.46991,459
901.586304,469
901.702515,456
901.818787,460
901.93512,466
902.051331,481
902.167603,451
902.283875,455
902.400085,463
902.516418,444
902.632629,449
902.74884,456
902.865112,452
902.981384,452
903.097595,450
903.213867,456
903.330017,447
903.446289,476
903.5625,470
903.67865,461
903.794922,453
903.911072,454
904.027344,418
904.143494,457
904.259705,467
904.375916,465
904.492065,435
904.608215,468
904.724426,452
904.840576,463
904.956726,465
905.072876,451
905.189087,476
905.305176,466
905.421387,442
905.537537,474
905.653687,444
905.769775,460
905.885925,471
906.002014,462
906.118164,457
906.234314,459
906.350403,428
906.466492,449
906.582642,456
906.69873,456
906.814758,463
906.930908,483
907.046936,454
907.163086,455
907.279175,470
907.395264,457
907.511353,469
907.62738,469
907.743408,454
907.859497,458
907.975525,446
908.091553,480
908.207703,457
908.32373,472
908.439758,453
908.555786,473
908.671814,444
908.787842,475
908.90387,460
909.019775,481
909.135864,449
909.251892,452
909.367859,464
909.483826,450
909.599854,461
909.715881,454
909.831848,461
909.947815,471
910.063782,462
910.179749,469
910.295776,450
910.411743,461
910.527649,464
910.643616,470
910.759583,457
910.875488,458
910.991455,477
911.107361,455
911.223267,450
911.339294,453
911.4552,472
911.571106,471
911.687073,469
911.802979,464
911.918823,454
912.034729,470
912.150635,443
912.266602,454
912.382446,461
912.498352,461
912.614197,461
912.730103,465
912.846008,466
792.44574,501
792.56488,538
792.68396,572
792.80304,553
792.92218,491
793.041199,482
793.160339,491
793.279419,518
793.398499,476
793.517578,475
793.636658,464
793.755737,493
793.874817,503
793.993896,499
794.112976,497
794.232056,492
794.351074,487
794.470215,499
794.589233,514
794.708313,477
794.827393,480
794.946411,497
795.065552,488
795.18457,478
795.303589,512
795.422668,476
795.541687,504
795.660767,489
795.779846,474
795.898865,504
796.017883,491
796.136963,488
796.255981,483
796.375061,496
796.49408,489
796.613037,478
796.732117,477
796.851135,479
796.970154,496
797.089233,471
797.208191,492
797.327271,463
797.446228,483
797.565186,503
797.684265,484
797.803223,480
797.922241,488
798.04126,491
798.160278,496
798.279297,493
798.398315,470
798.517273,491
798.636292,479
798.75531,484
798.874268,493
798.993286,500
799.112244,484
799.231323,489
799.350281,487
799.469238,469
799.588257,469
799.707153,490
799.826111,494
799.945129,486
800.064087,485
800.183044,475
800.302063,492
800.421021,494
800.539978,472
800.658936,470
800.777893,463
800.896912,482
801.015747,473
801.134705,474
801.253723,492
801.37262,496
801.491638,471
801.610535,477
801.729492,468
801.84845,490
801.967407,483
802.086243,481
802.205261,472
802.324158,490
802.443115,464
802.562073,488
802.680969,477
802.799927,469
802.918762,491
803.037659,462
803.156677,441
803.275574,497
803.39447,472
803.513428,462
803.632263,469
803.751221,473
803.870117,476
803.989014,469
804.107971,468
804.226746,467
804.345642,474
804.4646,492
804.583496,491
804.702393,474
804.821228,474
804.940125,499
805.059021,480
805.177917,493
805.296814,462
805.415649,481
805.534546,479
805.653442,476
805.772278,478
805.891113,491
806.01001,496
806.128906,490
806.247742,481
806.366577,479
806.485413,499
806.604309,484
806.723145,471
806.84198,495
806.960876,451
807.079712,484
807.198486,471
807.317383,471
807.436218,489
807.554993,459
807.673889,468
807.792725,476
807.91156,472
808.030396,461
808.14917,477
808.268005,488
808.386841,476
808.505676,479
808.624451,483
808.743286,489
808.862122,453
808.980896,472
809.099731,486
809.218506,482
809.337341,461
809.456116,487
809.57489,473
809.693726,463
809.8125,486
809.931274,477
810.050049,473
810.168884,483
810.287659,492
810.406372,473
810.525269,478
810.643982,477
810.762756,473
810.881531,480
811.000305,470
811.11908,481
811.237854,483
811.356567,488
811.475403,487
811.594116,501
811.71283,457
811.831604,481
811.950378,478
812.069153,481
812.187927,472
812.30658,485
812.425415,486
812.544128,483
812.662781,478
812.781616,485
812.900269,482
813.019043,481
813.137756,486
813.256531,483
813.375244,477
813.493896,463
813.612671,496
813.731384,494
813.850037,473
813.96875,468
814.087524,486
814.206238,488
814.324951,476
814.443604,484
814.562256,503
814.68103,482
814.799683,450
814.918335,496
815.037109,456
815.155762,479
815.274475,476
815.393188,477
815.511841,480
815.630554,497
815.749146,473
815.867859,475
815.986572,463
816.105164,488
816.223877,483
816.342529,486
816.461182,465
816.579895,480
816.698486,473
816.817139,501
816.935791,490
817.054504,464
817.173096,459
817.291748,464
817.4104,462
817.529053,469
817.647644,475
817.766235,469
817.884949,487
818.00354,470
818.122192,457
818.240845,487
818.359436,467
818.478088,449
818.59668,458
818.715271,470
818.833923,480
818.952515,468
819.071106,452
819.189758,475
819.30835,468
819.426941,464
819.545532,448
819.664124,456
819.782715,443
819.901306,457
820.019897,463
820.138489,453
820.25708,457
820.375671,448
820.494202,454
820.612732,458
820.731384,462
820.849915,456
820.968506,471
821.087097,473
821.205627,473
821.324158,438
821.442749,454
821.561279,467
821.679871,442
821.798401,456
821.916931,461
822.035461,464
822.154053,456
822.272583,448
822.391174,448
822.509583,447
822.628174,454
822.746704,467
822.865234,465
822.983765,460
823.102295,465
823.220825,457
823.339294,454
823.457825,455
823.576355,445
823.694824,444
823.813354,466
823.931885,466
824.050354,460
824.168884,478
824.287354,456
824.405823,461
824.524353,464
824.642822,444
824.761353,430
824.879822,454
824.998291,450
825.116699,453
825.235291,460
825.353699,462
825.472168,452
825.590637,457
825.709106,443
825.827576,445
825.946045,459
826.064453,457
826.182983,454
826.301392,449
826.4198,453
826.53833,462
826.656738,447
826.775208,469
826.893677,447
827.012024,445
827.130493,451
827.248962,456
827.36731,464
827.485779,445
827.604248,448
827.722595,450
827.841064,460
827.959412,451
828.077942,438
828.196289,464
828.314636,447
828.433105,457
828.551514,443
828.669861,458
828.78833,426
828.906677,456
829.025085,451
829.143433,449
829.261841,433
829.38031,450
829.498657,451
829.617004,465
829.735413,434
829.85376,467
829.972107,434
830.090515,465
830.208862,456
830.327209,452
830.445557,465
830.563904,430
830.682312,443
830.800659,451
830.919006,438
831.037354,449
831.155701,451
831.274048,444
831.392395,444
831.51062,438
831.629028,479
831.747314,436
831.865662,449
831.984009,437
832.102356,452
832.220642,436
832.338928,440
832.457275,446
832.575623,447
832.693909,476
832.812134,441
832.930481,446
833.048828,436
833.167114,450
833.2854,438
833.403687,455
833.521973,450
833.640259,435
833.758545,467
833.876831,431
833.995056,438
834.113281,446
834.231628,450
834.349915,451
834.468201,443
834.586426,450
834.704651,446
834.822998,448
834.941162,446
835.059448,444
835.177673,434
835.295959,442
835.414246,454
835.53241,450
835.650635,443
835.768921,451
835.887146,448
836.005371,442
836.123596,463
836.241821,458
836.360046,426
836.478271,447
836.596497,423
836.714722,429
836.832886,443
836.95105,438
837.069336,435
837.1875,448
837.305725,448
837.423889,459
837.542053,427
837.660339,465
837.778503,445
837.896667,466
838.014832,432
838.132996,443
838.25116,454
838.369385,448
838.487488,449
838.605713,434
838.723877,442
838.84198,457
838.960205,451
839.078308,461
839.196472,438
839.314636,442
839.4328,445
839.550964,440
839.669067,436
839.787231,444
839.905396,440
840.023499,437
840.141602,442
840.259766,444
840.377869,450
840.495972,454
840.614136,427
840.732239,451
840.850342,448
840.968445,437
841.086548,451
841.204651,453
841.322754,458
841.440918,431
841.55896,444
841.677002,430
841.795166,446
841.913208,443
842.031311,439
842.149353,448
842.267456,435
842.385498,457
842.503601,436
842.621643,451
842.739746,448
842.857788,443
842.97583,430
843.093933,455
843.211975,442
843.330017,460
843.44812,451
843.566101,433
843.684204,437
843.802246,437
843.920227,435
844.038269,449
844.156311,453
844.274292,442
844.392395,438
844.510376,421
844.628357,448
844.74646,441
844.864441,440
844.982422,450
845.100403,439
845.218384,444
845.336426,445
845.454468,433
845.572449,452
845.69043,432
845.808411,437
845.926453,442
846.044373,426
846.162354,447
846.280396,446
846.398315,436
846.516296,436
846.634216,429
846.752197,448
846.870178,438
846.988098,457
847.106079,446
847.22406,423
847.34198,428
847.4599,436
847.577881,439
847.695801,431
847.813782,467
847.931641,434
848.049561,430
848.167603,418
848.285461,455
848.403381,447
848.521362,430
848.639221,439
848.75708,443
848.875,449
848.99292,438
849.110901,457
849.22876,451
849.34668,424
849.464539,464
849.582458,429
849.700317,455
849.818176,448
849.936096,442
850.053955,458
850.171875,448
850.289673,439
850.407593,445
850.525452,444
850.643311,446
850.761169,430
850.878967,431
850.996887,451
851.114746,440
851.232544,438
851.350403,432
851.468262,452
851.58606,436
851.703979,417
851.821777,433
851.939636,455
852.057434,467
852.175232,440
852.293091,429
852.410889,437
852.528687,448
852.646545,429
852.764343,436
852.88208,435
852.999939,444
853.117676,437
853.235535,446
853.353271,438
853.471069,455
853.588928,442
853.706604,448
853.824402,441
853.9422,436
854.059998,439
854.177734,442
854.295532,441
854.413269,448
854.531006,458
854.648804,447
854.766541,452
854.884277,457
855.002014,426
855.119751,440
855.237549,458
855.355225,458
855.473022,431
855.590698,455
855.708435,443
855.826172,446
855.943848,448
856.061646,459
856.179321,434
856.296997,442
856.414795,443
856.53241,433
856.650085,437
856.767822,444
856.885559,422
857.003174,446
857.120911,445
857.238586,457
857.356201,424
857.473938,438
857.591614,442
857.709351,436
857.826965,452
857.944641,473
858.062317,425
858.179993,446
858.297668,442
858.415283,466
858.532959,444
858.650574,455
858.768188,438
858.885803,436
859.003479,455
859.121094,457
859.23877,434
859.356384,464
859.473999,442
859.591675,459
859.709229,444
859.826843,449
859.944458,427
860.062012,432
860.179626,435
860.297302,453
860.414856,433
860.532471,443
860.650024,449
860.767639,431
860.885193,438
861.002808,429
861.120361,438
861.237976,441
861.35553,443
861.473022,449
861.590698,444
861.708191,447
861.825745,435
861.943298,447
862.060852,445
862.178406,430
862.295959,435
862.413513,430
862.531006,423
862.64856,437
862.766113,438
862.883667,448
863.00116,432
863.118713,448
863.236206,427
863.353699,442
863.471252,455
863.588745,457
863.706177,426
863.82373,428
863.941162,451
864.058716,431
864.176208,436
864.29364,440
864.411194,432
864.528687,463
864.646118,438
864.763611,430
864.881042,461
864.998535,463
865.116028,450
865.233459,416
865.350891,456
865.468384,454
865.585754,447
865.703308,450
865.820679,449
865.938171,446
866.055542,437
866.173035,455
866.290466,445
866.407837,452
866.52533,423
866.6427,456
866.760071,445
866.877563,447
866.994934,450
867.112305,440
867.229736,441
867.347107,491
867.464539,452
867.58197,448
867.699341,436
867.81665,447
867.934082,454
868.051453,448
868.168823,451
868.286194,439
868.403564,442
868.520935,453
868.638306,438
868.755676,442
868.872986,442
868.990295,457
869.107727,440
869.225037,446
869.342346,447
869.459717,438
869.577026,423
869.694336,437
869.811707,460
869.929016,448
870.046326,453
870.163635,448
870.280945,452
870.398254,447
870.515564,447
870.632812,456
870.750183,438
870.867432,447
870.984741,465
871.102051,455
871.219299,455
871.336609,447
871.453918,467
871.571106,453
871.688416,454
871.805664,435
871.922852,469
872.040222,463
872.157471,463
872.274719,447
872.391968,453
872.509155,434
872.626465,465
872.743652,456
872.860962,436
872.978149,460
873.095337,445
873.212646,457
873.329834,443
873.44696,453
873.564209,463
873.681396,456
873.798645,458
873.915894,471
874.03302,448
874.150208,429
874.267456,431
874.384583,454
874.501831,437
874.618958,469
874.736145,459
874.853333,448
874.970459,456
875.087646,456
875.204834,445
875.32196,460
875.439148,436
875.556274,459
875.673401,462
875.790527,458
875.907715,441
876.024841,440
876.141968,445
876.259094,466
876.376282,440
876.493347,450
876.610474,449
876.7276,459
876.844727,473
876.961853,437
877.078918,449
877.195984,438
877.313171,447
877.430237,460
877.547302,472
877.664368,445
877.781433,453
877.898499,445
878.015625,449
878.13269,449
878.249695,447
878.366821,458
878.483887,458
878.600952,446
878.717957,435
878.834961,444
878.952087,438
879.069092,450
879.186157,458
879.303162,435
879.420227,437
879.537231,463
879.654236,442
879.77124,425
879.888306,443
880.005249,435
880.122314,452
880.239319,440
880.356323,440
880.473328,448
880.590271,444
880.707275,440
880.824341,474
880.941284,459
881.058228,427
881.175232,455
881.292236,449
881.40918,459
881.526123,458
881.643066,432
881.760071,449
881.877014,454
881.993958,440
882.11084,465
882.227783,440
882.344727,456
882.46167,450
882.578613,463
882.695618,429
882.812439,443
882.929382,447
883.046326,439
883.163208,464
883.280151,449
883.397034,437
883.513916,443
883.630798,468
883.747742,456
883.864563,445
883.981506,450
884.098389,422
884.21521,447
884.332153,435
884.448975,443
884.565796,456
884.682678,438
884.7995,450
884.916443,450
885.033264,458
885.150085,449
885.266968,458
885.383789,446
885.500671,435
885.617493,457
885.734314,450
885.851196,464
885.967896,445
886.084717,480
886.201599,443
886.318359,459
886.435181,438
886.552002,465
886.668762,444
886.785645,457
886.902344,464
887.019165,462
887.135925,447
887.252747,461
887.369446,453
887.486267,456
887.603027,448
887.719788,450
887.836548,432
887.953247,453
888.070068,433
888.186829,449
888.303528,483
888.420288,456
888.536987,463
888.653687,451
888.770447,447
888.887146,444
889.003967,457
889.120667,481
889.237305,452
889.354065,458
889.470703,444
889.587463,444
889.704163,443
889.820862,455
889.937561,459
890.054199,443
890.170837,463
890.287598,449
890.404236,444
890.520874,442
890.637634,446
890.754211,457
890.87085,459
890.987549,443
891.104187,459
891.220886,447
891.337463,454
891.454102,453
891.57074,467
891.687378,476
891.804077,442
891.920654,459
892.037231,435
892.15387,462
892.270447,464
892.387085,455
892.503723,444
892.6203,456
892.736877,438
892.853516,444
892.970032,446
893.08667,460
893.203186,451
893.319763,463
893.43634,466
893.552917,445
893.669556,463
893.786011,446
893.902588,446
894.019165,466
894.135681,463
894.252197,452
894.368835,461
894.485291,453
894.601868,446
894.718384,462
894.8349,435
894.951355,460
895.067932,441
895.184448,466
895.300964,463
895.417419,476
895.533936,462
895.650452,479
895.766907,443
895.883423,449
895.999878,442
896.116333,433
896.232849,454
896.349304,463
896.465759,434
896.582214,468
896.698669,456
896.815125,453
896.931641,471
897.048035,433
897.164551,458
897.280884,467
897.397339,460
897.513794,449
897.630249,472
897.746582,477
897.863098,464
897.979431,451
898.095886,466
898.212341,468
898.328674,455
898.445129,469
898.561462,444
898.677795,467
898.794312,458
898.910645,453
899.026978,463
899.143433,471
899.259766,466
899.37616,452
899.492493,457
899.608765,448
899.725159,445
899.841553,451
899.957947,455
900.07428,460
900.190552,457
900.306946,473
900.423157,450
900.53949,465
900.655884,436
900.772156,459
900.888489,444
901.004822,443
901.121033,447
901.237366,470
901.353699,457
901.46991,460
901.586304,458
901.702515,462
901.818787,458
901.93512,451
902.051331,469
902.167603,463
902.283875,456
902.400085,468
902.516418,458
902.632629,463
902.74884,476
902.865112,471
902.981384,468
903.097595,474
903.213867,465
903.330017,471
903.446289,473
903.5625,459
903.67865,463
903.794922,460
903.911072,461
904.027344,468
904.143494,468
904.259705,468
904.375916,476
904.492065,451
904.608215,473
904.724426,489
904.840576,448
904.956726,466
905.072876,450
905.189087,453
905.305176,462
905.421387,460
905.537537,457
905.653687,472
905.769775,483
905.885925,481
906.002014,440
906.118164,463
906.234314,468
906.350403,453
906.466492,465
906.582642,488
906.69873,469
906.814758,463
906.930908,445
907.046936,495
907.163086,455
907.279175,457
907.395264,453
907.511353,480
907.62738,461
907.743408,468
907.859497,459
907.975525,483
908.091553,448
908.207703,459
908.32373,460
908.439758,481
908.555786,476
908.671814,465
908.787842,478
908.90387,461
909.019775,453
909.135864,465
909.251892,473
909.367859,464
909.483826,476
909.599854,460
909.715881,475
909.831848,462
909.947815,472
910.063782,479
910.179749,464
910.295776,484
910.411743,458
910.527649,467
910.643616,465
910.759583,495
910.875488,479
910.991455,444
911.107361,477
911.223267,458
911.339294,457
911.4552,466
911.571106,445
911.687073,482
911.802979,468
911.918823,454
912.034729,467
912.150635,474
912.266602,458
912.382446,479
912.498352,457
912.614197,470
912.730103,463
912.846008,467
792.44574,492
792.56488,509
792.68396,562
792.80304,551
792.92218,505
793.041199,496
793.160339,475
793.279419,484
793.398499,498
793.517578,485
793.636658,484
793.755737,483
793.874817,529
793.993896,510
794.112976,502
794.232056,488
794.351074,484
794.470215,501
794.589233,502
794.708313,502
794.827393,494
794.946411,504
795.065552,497
795.18457,508
795.303589,477
795.422668,479
795.541687,483
795.660767,496
795.779846,490
795.898865,469
796.017883,492
796.136963,484
796.255981,503
796.375061,481
796.49408,489
796.613037,506
796.732117,477
796.851135,497
796.970154,487
797.089233,503
797.208191,486
797.327271,483
797.446228,491
797.565186,490
797.684265,482
797.803223,482
797.922241,491
798.04126,489
798.160278,487
798.279297,492
798.398315,491
798.517273,471
798.636292,475
798.75531,501
798.874268,484
798.993286,465
799.112244,494
799.231323,477
799.350281,511
799.469238,480
799.588257,475
799.707153,487
799.826111,474
799.945129,464
800.064087,502
800.183044,481
800.302063,489
800.421021,492
800.539978,492
800.658936,489
800.777893,474
800.896912,467
801.015747,486
801.134705,467
801.253723,489
801.37262,469
801.491638,482
801.610535,463
801.729492,483
801.84845,488
801.967407,485
802.086243,477
802.205261,498
802.324158,482
802.443115,474
802.562073,467
802.680969,474
802.799927,457
802.918762,475
803.037659,479
803.156677,455
803.275574,475
803.39447,484
803.513428,516
803.632263,487
803.751221,484
803.870117,478
803.989014,479
804.107971,480
804.226746,468
804.345642,490
804.4646,481
804.583496,481
804.702393,499
804.821228,474
804.940125,493
805.059021,467
805.177917,487
805.296814,473
805.415649,503
805.534546,475
805.653442,465
805.772278,470
805.891113,490
806.01001,487
806.128906,488
806.247742,477
806.366577,480
806.485413,459
806.604309,469
806.723145,463
806.84198,468
806.960876,488
807.079712,476
807.198486,479
807.317383,486
807.436218,466
807.554993,492
807.673889,494
807.792725,493
807.91156,483
808.030396,489
808.14917,479
808.268005,489
808.386841,472
808.505676,478
808.624451,480
808.743286,486
808.862122,492
808.980896,477
809.099731,467
809.218506,476
809.337341,473
809.456116,477
809.57489,497
809.693726,489
809.8125,487
809.931274,467
810.050049,496
810.168884,477
810.287659,485
810.406372,499
810.525269,495
810.643982,475
810.762756,487
810.881531,488
811.000305,480
811.11908,476
811.237854,486
811.356567,470
811.475403,480
811.594116,474
811.71283,475
811.831604,503
811.950378,472
812.069153,482
812.187927,477
812.30658,492
812.425415,483
812.544128,481
812.662781,486
812.781616,470
812.900269,488
813.019043,494
813.137756,479
813.256531,485
813.375244,470
813.493896,486
813.612671,473
813.731384,486
813.850037,489
813.96875,471
814.087524,467
814.206238,461
814.324951,477
814.443604,470
814.562256,471
814.68103,477
814.799683,462
814.918335,478
815.037109,457
815.155762,486
815.274475,459
815.393188,479
815.511841,483
815.630554,477
815.749146,483
815.867859,484
815.986572,485
816.105164,484
816.223877,491
816.342529,457
816.461182,484
816.579895,463
816.698486,461
816.817139,476
816.935791,477
817.054504,490
817.173096,468
817.291748,483
817.4104,469
817.529053,451
817.647644,474
817.766235,446
817.884949,469
818.00354,479
818.122192,469
818.240845,472
818.359436,470
818.478088,475
818.59668,455
818.715271,472
818.833923,487
818.952515,471
819.071106,477
819.189758,473
819.30835,438
819.426941,459
819.545532,446
819.664124,468
819.782715,463
819.901306,450
820.019897,457
820.138489,463
820.25708,462
820.375671,474
820.494202,463
820.612732,452
820.731384,443
820.849915,467
820.968506,470
821.087097,449
821.205627,452
821.324158,458
821.442749,476
821.561279,475
821.679871,453
821.798401,452
821.916931,462
822.035461,447
822.154053,440
822.272583,437
822.391174,457
822.509583,459
822.628174,447
822.746704,451
822.865234,463
822.983765,459
823.102295,453
823.220825,450
823.339294,451
823.457825,469
823.576355,461
823.694824,445
823.813354,452
823.931885,462
824.050354,461
824.168884,450
824.287354,463
824.405823,442
824.524353,454
824.642822,452
824.761353,459
824.879822,454
824.998291,448
825.116699,448
825.235291,438
825.353699,457
825.472168,452
825.590637,457
825.709106,446
825.827576,445
825.946045,449
826.064453,460
826.182983,470
826.301392,424
826.4198,435
826.53833,468
826.656738,459
826.775208,445
826.893677,450
827.012024,461
827.130493,426
827.248962,448
827.36731,445
827.485779,459
827.604248,441
827.722595,453
827.841064,460
827.959412,447
828.077942,457
828.196289,454
828.314636,472
828.433105,438
828.551514,475
828.669861,445
828.78833,444
828.906677,465
829.025085,450
829.143433,469
829.261841,454
829.38031,447
829.498657,443
829.617004,431
829.735413,439
829.85376,452
829.972107,459
830.090515,443
830.208862,436
830.327209,444
830.445557,465
830.563904,432
830.682312,460
830.800659,450
830.919006,465
831.037354,457
831.155701,463
831.274048,458
831.392395,434
831.51062,451
831.629028,451
831.747314,459
831.865662,448
831.984009,444
832.102356,478
832.220642,455
832.338928,433
832.457275,442
832.575623,452
832.693909,458
832.812134,453
832.930481,439
833.048828,448
833.167114,424
833.2854,442
833.403687,440
833.521973,441
833.640259,460
833.758545,455
833.876831,427
833.995056,460
834.113281,443
834.231628,433
834.349915,434
834.468201,428
834.586426,442
834.704651,434
834.822998,455
834.941162,453
835.059448,458
835.177673,447
835.295959,442
835.414246,441
835.53241,457
835.650635,436
835.768921,450
835.887146,442
836.005371,449
836.123596,434
836.241821,442
836.360046,449
836.478271,439
836.596497,452
836.714722,449
836.832886,451
836.95105,456
837.069336,449
837.1875,447
837.305725,450
837.423889,448
837.542053,462
837.660339,455
837.778503,462
837.896667,458
838.014832,444
838.132996,452
838.25116,443
838.369385,453
838.487488,447
838.605713,442
838.723877,433
838.84198,475
838.960205,435
839.078308,440
839.196472,439
839.314636,448
839.4328,426
839.550964,458
839.669067,441
839.787231,450
839.905396,439
840.023499,448
840.141602,458
840.259766,440
840.377869,462
840.495972,453
840.614136,460
840.732239,453
840.850342,440
840.968445,438
841.086548,438
841.204651,453
841.322754,427
841.440918,456
841.55896,452
841.677002,455
841.795166,449
841.913208,440
842.031311,437
842.149353,451
842.267456,473
842.385498,435
842.503601,455
842.621643,447
842.739746,451
842.857788,443
842.97583,454
843.093933,439
843.211975,460
843.330017,456
843.44812,442
843.566101,441
843.684204,438
843.802246,446
843.920227,445
844.038269,456
844.156311,431
844.274292,437
844.392395,445
844.510376,434
844.628357,438
844.74646,436
844.864441,448
844.982422,447
845.100403,453
845.218384,452
845.336426,458
845.454468,452
845.572449,463
845.69043,427
845.808411,446
845.926453,453
846.044373,443
846.162354,448
846.280396,427
846.398315,441
846.516296,432
846.634216,442
846.752197,442
846.870178,462
846.988098,437
847.106079,449
847.22406,439
847.34198,426
847.4599,450
847.577881,445
847.695801,433
847.813782,431
847.931641,448
848.049561,460
848.167603,435
848.285461,439
848.403381,448
848.521362,442
848.639221,453
848.75708,430
848.875,441
848.99292,453
849.110901,425
849.22876,441
849.34668,455
849.464539,433
849.582458,447
849.700317,453
849.818176,453
849.936096,456
850.053955,448
850.171875,423
850.289673,445
850.407593,443
850.525452,432
850.643311,462
850.761169,452
850.878967,439
850.996887,434
851.114746,440
851.232544,443
851.350403,442
851.468262,449
851.58606,446
851.703979,444
851.821777,458
851.939636,460
852.057434,443
852.175232,433
852.293091,451
852.410889,460
852.528687,451
852.646545,447
852.764343,455
852.88208,472
852.999939,451
853.117676,462
853.235535,424
853.353271,426
853.471069,445
853.588928,442
853.706604,447
853.824402,441
853.9422,450
854.059998,416
854.177734,444
854.295532,456
854.413269,441
854.531006,441
854.648804,445
854.766541,441
854.884277,431
855.002014,432
855.119751,449
855.237549,437
855.355225,461
855.473022,420
855.590698,447
855.708435,443
855.826172,431
855.943848,466
856.061646,442
856.179321,447
856.296997,439
856.414795,432
856.53241,460
856.650085,444
856.767822,443
856.885559,436
857.003174,436
857.120911,453
857.238586,463
857.356201,448
857.473938,430
857.591614,445
857.709351,441
857.826965,423
857.944641,442
858.062317,457
858.179993,443
858.297668,429
858.415283,452
858.532959,447
858.650574,437
858.768188,442
858.885803,454
859.003479,429
859.121094,435
859.23877,459
859.356384,456
859.473999,460
859.591675,448
859.709229,433
859.826843,439
859.944458,440
860.062012,442
860.179626,434
860.297302,444
860.414856,448
860.532471,434
860.650024,448
860.767639,442
860.885193,437
861.002808,454
861.120361,460
861.237976,422
861.35553,446
861.473022,455
861.590698,450
861.708191,425
861.825745,434
861.943298,446
862.060852,450
862.178406,450
862.295959,431
862.413513,440
862.531006,444
862.64856,442
862.766113,450
862.883667,445
863.00116,439
863.118713,458
863.236206,462
863.353699,449
863.471252,444
863.588745,438
863.706177,438
863.82373,425
863.941162,440
864.058716,445
864.176208,441
864.29364,454
864.411194,436
864.528687,448
864.646118,455
864.763611,451
864.881042,444
864.998535,446
865.116028,436
865.233459,447
865.350891,451
865.468384,449
865.585754,445
865.703308,452
865.820679,457
865.938171,428
866.055542,452
866.173035,457
866.290466,447
866.407837,439
866.52533,445
866.6427,441
866.760071,442
866.877563,440
866.994934,427
867.112305,445
867.229736,442
867.347107,450
867.464539,449
867.58197,434
867.699341,444
867.81665,440
867.934082,437
868.051453,453
868.168823,461
868.286194,424
868.403564,453
868.520935,451
868.638306,437
868.755676,421
868.872986,436
868.990295,445
869.107727,439
869.225037,462
869.342346,454
869.459717,439
869.577026,449
869.694336,453
869.811707,444
869.929016,437
870.046326,453
870.163635,456
870.280945,446
870.398254,453
870.515564,456
870.632812,449
870.750183,467
870.867432,448
870.984741,439
871.102051,452
871.219299,435
871.336609,448
871.453918,459
871.571106,446
871.688416,444
871.805664,440
871.922852,449
872.040222,438
872.157471,437
872.274719,454
872.391968,443
872.509155,439
872.626465,452
872.743652,478
872.860962,438
872.978149,447
873.095337,441
873.212646,456
873.329834,427
873.44696,451
873.564209,437
873.681396,445
873.798645,460
873.915894,439
874.03302,460
874.150208,456
874.267456,448
874.384583,458
874.501831,453
874.618958,439
874.736145,434
874.853333,446
874.970459,448
875.087646,463
875.204834,443
875.32196,439
875.439148,449
875.556274,454
875.673401,479
875.790527,448
875.907715,439
876.024841,446
876.141968,456
876.259094,471
876.376282,443
876.493347,441
876.610474,455
876.7276,447
876.844727,455
876.961853,448
877.078918,440
877.195984,439
877.313171,442
877.430237,452
877.547302,446
877.664368,436
877.781433,457
877.898499,450
878.015625,454
878.13269,433
878.249695,452
878.366821,457
878.483887,454
878.600952,445
878.717957,444
878.834961,469
878.952087,442
879.069092,469
879.186157,457
879.303162,443
879.420227,435
879.537231,454
879.654236,439
879.77124,453
879.888306,466
880.005249,461
880.122314,448
880.239319,459
880.356323,472
880.473328,445
880.590271,456
880.707275,462
880.824341,463
880.941284,454
881.058228,453
881.175232,449
881.292236,456
881.40918,460
881.526123,461
881.643066,473
881.760071,448
881.877014,452
881.993958,445
882.11084,435
882.227783,455
882.344727,457
882.46167,455
882.578613,437
882.695618,455
882.812439,457
882.929382,450
883.046326,453
883.163208,460
883.280151,468
883.397034,451
883.513916,452
883.630798,442
883.747742,447
883.864563,457
883.981506,455
884.098389,450
884.21521,448
884.332153,450
884.448975,468
884.565796,453
884.682678,451
884.7995,455
884.916443,455
885.033264,440
885.150085,454
885.266968,469
885.383789,453
885.500671,453
885.617493,451
885.734314,470
885.851196,460
885.967896,464
886.084717,454
886.201599,463
886.318359,460
886.435181,468
886.552002,450
886.668762,463
886.785645,456
886.902344,447
887.019165,448
887.135925,458
887.252747,449
887.369446,457
887.486267,459
887.603027,447
887.719788,436
887.836548,443
887.953247,461
888.070068,458
888.186829,461
888.303528,443
888.420288,454
888.536987,455
888.653687,451
888.770447,461
888.887146,458
889.003967,467
889.120667,449
889.237305,434
889.354065,455
889.470703,453
889.587463,445
889.704163,452
889.820862,467
889.937561,445
890.054199,453
890.170837,455
890.287598,465
890.404236,455
890.520874,456
890.637634,452
890.754211,474
890.87085,452
890.987549,460
891.104187,464
891.220886,465
891.337463,460
891.454102,465
891.57074,441
891.687378,456
891.804077,465
891.920654,443
892.037231,457
892.15387,468
892.270447,451
892.387085,443
892.503723,473
892.6203,471
892.736877,452
892.853516,449
892.970032,456
893.08667,464
893.203186,466
893.319763,427
893.43634,455
893.552917,470
893.669556,438
893.786011,472
893.902588,458
894.019165,447
894.135681,454
894.252197,461
894.368835,449
894.485291,476
894.601868,446
894.718384,456
894.8349,441
894.951355,458
895.067932,452
895.184448,456
895.300964,467
895.417419,450
895.533936,447
895.650452,461
895.766907,460
895.883423,459
895.999878,467
896.116333,459
896.232849,445
896.349304,472
896.465759,459
896.582214,438
896.698669,458
896.815125,470
896.931641,460
897.048035,462
897.164551,436
897.280884,462
897.397339,466
897.513794,468
897.630249,467
897.746582,473
897.863098,461
897.979431,462
898.095886,453
898.212341,466
898.328674,458
898.445129,476
898.561462,435
898.677795,473
898.794312,458
898.910645,457
899.026978,451
899.143433,470
899.259766,469
899.37616,457
899.492493,459
899.608765,482
899.725159,459
899.841553,465
899.957947,465
900.07428,462
900.190552,468
900.306946,462
900.423157,463
900.53949,452
900.655884,456
900.772156,453
900.888489,445
901.004822,437
901.121033,456
901.237366,456
901.353699,446
901.46991,460
901.586304,442
901.702515,453
901.818787,453
901.93512,456
902.051331,459
902.167603,469
902.283875,463
902.400085,471
902.516418,463
902.632629,456
902.74884,452
902.865112,454
902.981384,458
903.097595,475
903.213867,471
903.330017,466
903.446289,458
903.5625,470
903.67865,461
903.794922,459
903.911072,438
904.027344,460
904.143494,461
904.259705,482
904.375916,467
904.492065,453
904.608215,471
904.724426,467
904.840576,464
904.956726,449
905.072876,434
905.189087,473
905.305176,462
905.421387,471
905.537537,454
905.653687,455
905.769775,447
905.885925,475
906.002014,450
906.118164,473
906.234314,449
906.350403,476
906.466492,466
906.582642,462
906.69873,469
906.814758,457
906.930908,470
907.046936,459
907.163086,469
907.279175,467
907.395264,462
907.511353,444
907.62738,470
907.743408,495
907.859497,442
907.975525,473
908.091553,465
908.207703,480
908.32373,462
908.439758,480
908.555786,479
908.671814,482
908.787842,450
908.90387,469
909.019775,483
909.135864,463
909.251892,451
909.367859,450
909.483826,462
909.599854,461
909.715881,450
909.831848,476
909.947815,445
910.063782,460
910.179749,461
910.295776,479
910.411743,456
910.527649,478
910.643616,475
910.759583,475
910.875488,467
910.991455,472
911.107361,455
911.223267,460
911.339294,474
911.4552,490
911.571106,477
911.687073,480
911.802979,484
911.918823,454
912.034729,485
912.150635,454
912.266602,458
912.382446,475
912.498352,471
912.614197,466
912.730103,459
912.846008,470
